4.00000	7724.00000
4.01500	7762.00000
4.03000	7704.00000
4.04500	7557.00000
4.06000	7707.00000
4.07500	7713.00000
4.09000	7656.00000
4.10500	7663.00000
4.12000	7649.00000
4.13500	7818.00000
4.15000	7701.00000
4.16500	7828.00000
4.18000	7695.00000
4.19500	7697.00000
4.21000	7782.00000
4.22500	7845.00000
4.24000	7707.00000
4.25500	7770.00000
4.27000	7799.00000
4.28500	7680.00000
4.30000	7732.00000
4.31500	7741.00000
4.33000	7843.00000
4.34500	7828.00000
4.36000	7714.00000
4.37500	7770.00000
4.39000	7892.00000
4.40500	7837.00000
4.42000	7952.00000
4.43500	7856.00000
4.45000	7737.00000
4.46500	7804.00000
4.48000	7818.00000
4.49500	7715.00000
4.51000	7825.00000
4.52500	7898.00000
4.54000	7932.00000
4.55500	7846.00000
4.57000	7916.00000
4.58500	7838.00000
4.60000	7707.00000
4.61500	7922.00000
4.63000	7855.00000
4.64500	7887.00000
4.66000	7915.00000
4.67500	7920.00000
4.69000	7921.00000
4.70500	7970.00000
4.72000	7902.00000
4.73500	7799.00000
4.75000	7821.00000
4.76500	7743.00000
4.78000	7845.00000
4.79500	7724.00000
4.81000	7803.00000
4.82500	7891.00000
4.84000	8027.00000
4.85500	7988.00000
4.87000	7837.00000
4.88500	8011.00000
4.90000	7927.00000
4.91500	7900.00000
4.93000	8039.00000
4.94500	7966.00000
4.96000	7918.00000
4.97500	8062.00000
4.99000	8017.00000
5.00500	8039.00000
5.02000	8061.00000
5.03500	7922.00000
5.05000	7932.00000
5.06500	7756.00000
5.08000	8009.00000
5.09500	8071.00000
5.11000	8076.00000
5.12500	8020.00000
5.14000	8102.00000
5.15500	8044.00000
5.17000	8069.00000
5.18500	8000.00000
5.20000	7905.00000
5.21500	7905.00000
5.23000	7889.00000
5.24500	7945.00000
5.26000	8104.00000
5.27500	8070.00000
5.29000	8150.00000
5.30500	8017.00000
5.32000	8073.00000
5.33500	8130.00000
5.35000	8053.00000
5.36500	8080.00000
5.38000	8130.00000
5.39500	8009.00000
5.41000	8261.00000
5.42500	8070.00000
5.44000	8194.00000
5.45500	8138.00000
5.47000	8092.00000
5.48500	8126.00000
5.50000	8277.00000
5.51500	8179.00000
5.53000	8197.00000
5.54500	8192.00000
5.56000	8192.00000
5.57500	8084.00000
5.59000	8058.00000
5.60500	8172.00000
5.62000	8227.00000
5.63500	8207.00000
5.65000	8091.00000
5.66500	8104.00000
5.68000	8213.00000
5.69500	8183.00000
5.71000	8074.00000
5.72500	7987.00000
5.74000	8129.00000
5.75500	8220.00000
5.77000	8022.00000
5.78500	8386.00000
5.80000	8150.00000
5.81500	8208.00000
5.83000	8170.00000
5.84500	8176.00000
5.86000	8181.00000
5.87500	8258.00000
5.89000	8130.00000
5.90500	8131.00000
5.92000	8148.00000
5.93500	8173.00000
5.95000	8240.00000
5.96500	8180.00000
5.98000	8139.00000
5.99500	8187.00000
6.01000	8227.00000
6.02500	8340.00000
6.04000	8326.00000
6.05500	8247.00000
6.07000	8086.00000
6.08500	8193.00000
6.10000	8295.00000
6.11500	8393.00000
6.13000	8303.00000
6.14500	8368.00000
6.16000	8274.00000
6.17500	8272.00000
6.19000	8231.00000
6.20500	8284.00000
6.22000	8439.00000
6.23500	8432.00000
6.25000	8507.00000
6.26500	8276.00000
6.28000	8344.00000
6.29500	8252.00000
6.31000	8250.00000
6.32500	8470.00000
6.34000	8406.00000
6.35500	8419.00000
6.37000	8437.00000
6.38500	8464.00000
6.40000	8587.00000
6.41500	8602.00000
6.43000	8627.00000
6.44500	8600.00000
6.46000	8521.00000
6.47500	8579.00000
6.49000	8766.00000
6.50500	8583.00000
6.52000	8583.00000
6.53500	8724.00000
6.55000	8743.00000
6.56500	8738.00000
6.58000	8795.00000
6.59500	8691.00000
6.61000	8990.00000
6.62500	8851.00000
6.64000	9013.00000
6.65500	8903.00000
6.67000	8837.00000
6.68500	8883.00000
6.70000	9111.00000
6.71500	9166.00000
6.73000	9110.00000
6.74500	9113.00000
6.76000	9237.00000
6.77500	9235.00000
6.79000	9366.00000
6.80500	9550.00000
6.82000	9615.00000
6.83500	9607.00000
6.85000	9672.00000
6.86500	9777.00000
6.88000	9877.00000
6.89500	10028.00000
6.91000	10082.00000
6.92500	10115.00000
6.94000	10484.00000
6.95500	10721.00000
6.97000	10780.00000
6.98500	10990.00000
7.00000	10941.00000
7.01500	11215.00000
7.03000	11642.00000
7.04500	11578.00000
7.06000	11812.00000
7.07500	12086.00000
7.09000	12159.00000
7.10500	12453.00000
7.12000	12807.00000
7.13500	13453.00000
7.15000	13575.00000
7.16500	14043.00000
7.18000	14571.00000
7.19500	15038.00000
7.21000	15712.00000
7.22500	16192.00000
7.24000	16623.00000
7.25500	17434.00000
7.27000	18434.00000
7.28500	19396.00000
7.30000	20563.00000
7.31500	21778.00000
7.33000	23031.00000
7.34500	24505.00000
7.36000	26293.00000
7.37500	28390.00000
7.39000	30900.00000
7.40500	34086.00000
7.42000	37878.00000
7.43500	42028.00000
7.45000	47787.00000
7.46500	54086.00000
7.48000	56350.00000
7.49500	48929.00000
7.51000	34694.00000
7.52500	24003.00000
7.54000	18976.00000
7.55500	16361.00000
7.57000	14230.00000
7.58500	12513.00000
7.60000	11253.00000
7.61500	10757.00000
7.63000	10315.00000
7.64500	9905.00000
7.66000	9646.00000
7.67500	9427.00000
7.69000	9404.00000
7.70500	9220.00000
7.72000	9358.00000
7.73500	9003.00000
7.75000	8979.00000
7.76500	8831.00000
7.78000	8798.00000
7.79500	8900.00000
7.81000	9004.00000
7.82500	8752.00000
7.84000	8917.00000
7.85500	8929.00000
7.87000	8838.00000
7.88500	8722.00000
7.90000	8658.00000
7.91500	8872.00000
7.93000	8826.00000
7.94500	8729.00000
7.96000	8737.00000
7.97500	8744.00000
7.99000	8781.00000
8.00500	8682.00000
8.02000	8843.00000
8.03500	8747.00000
8.05000	8824.00000
8.06500	8927.00000
8.08000	8774.00000
8.09500	8794.00000
8.11000	8833.00000
8.12500	8938.00000
8.14000	8862.00000
8.15500	8961.00000
8.17000	9027.00000
8.18500	8947.00000
8.20000	9102.00000
8.21500	9040.00000
8.23000	9116.00000
8.24500	9050.00000
8.26000	9130.00000
8.27500	9029.00000
8.29000	9281.00000
8.30500	9330.00000
8.32000	9248.00000
8.33500	9358.00000
8.35000	9515.00000
8.36500	9653.00000
8.38000	9617.00000
8.39500	9953.00000
8.41000	9922.00000
8.42500	9913.00000
8.44000	9885.00000
8.45500	10017.00000
8.47000	10276.00000
8.48500	10522.00000
8.50000	10546.00000
8.51500	10717.00000
8.53000	10975.00000
8.54500	11244.00000
8.56000	11350.00000
8.57500	11624.00000
8.59000	12053.00000
8.60500	12526.00000
8.62000	12718.00000
8.63500	13142.00000
8.65000	13690.00000
8.66500	14270.00000
8.68000	14859.00000
8.69500	15468.00000
8.71000	16412.00000
8.72500	17274.00000
8.74000	18297.00000
8.75500	19777.00000
8.77000	21298.00000
8.78500	23585.00000
8.80000	26426.00000
8.81500	28693.00000
8.83000	29787.00000
8.84500	26386.00000
8.86000	20524.00000
8.87500	15669.00000
8.89000	12982.00000
8.90500	11563.00000
8.92000	10778.00000
8.93500	10160.00000
8.95000	9783.00000
8.96500	9582.00000
8.98000	9539.00000
8.99500	9247.00000
9.01000	9169.00000
9.02500	9190.00000
9.04000	9029.00000
9.05500	9010.00000
9.07000	9073.00000
9.08500	8886.00000
9.10000	8924.00000
9.11500	8842.00000
9.13000	8821.00000
9.14500	8793.00000
9.16000	8858.00000
9.17500	8765.00000
9.19000	8775.00000
9.20500	8849.00000
9.22000	8819.00000
9.23500	8856.00000
9.25000	8653.00000
9.26500	8544.00000
9.28000	8729.00000
9.29500	8786.00000
9.31000	8724.00000
9.32500	8720.00000
9.34000	8776.00000
9.35500	8646.00000
9.37000	8605.00000
9.38500	8632.00000
9.40000	8646.00000
9.41500	8648.00000
9.43000	8799.00000
9.44500	8823.00000
9.46000	8767.00000
9.47500	8761.00000
9.49000	8950.00000
9.50500	8997.00000
9.52000	8915.00000
9.53500	8923.00000
9.55000	9020.00000
9.56500	8877.00000
9.58000	8968.00000
9.59500	9123.00000
9.61000	9078.00000
9.62500	9117.00000
9.64000	9175.00000
9.65500	9478.00000
9.67000	9560.00000
9.68500	9588.00000
9.70000	9776.00000
9.71500	10022.00000
9.73000	10242.00000
9.74500	10593.00000
9.76000	10640.00000
9.77500	10492.00000
9.79000	10022.00000
9.80500	9443.00000
9.82000	9140.00000
9.83500	8977.00000
9.85000	8967.00000
9.86500	8814.00000
9.88000	8619.00000
9.89500	8721.00000
9.91000	8836.00000
9.92500	8580.00000
9.94000	8693.00000
9.95500	8640.00000
9.97000	8543.00000
9.98500	8761.00000
10.00000	8704.00000
10.01500	8553.00000
10.03000	8572.00000
10.04500	8607.00000
10.06000	8784.00000
10.07500	8697.00000
10.09000	8590.00000
10.10500	8608.00000
10.12000	8743.00000
10.13500	8561.00000
10.15000	8639.00000
10.16500	8555.00000
10.18000	8647.00000
10.19500	8541.00000
10.21000	8589.00000
10.22500	8610.00000
10.24000	8518.00000
10.25500	8566.00000
10.27000	8704.00000
10.28500	8561.00000
10.30000	8560.00000
10.31500	8695.00000
10.33000	8616.00000
10.34500	8693.00000
10.36000	8742.00000
10.37500	8760.00000
10.39000	8618.00000
10.40500	8786.00000
10.42000	8790.00000
10.43500	8881.00000
10.45000	8914.00000
10.46500	8989.00000
10.48000	8947.00000
10.49500	9179.00000
10.51000	9034.00000
10.52500	8991.00000
10.54000	8967.00000
10.55500	9060.00000
10.57000	9017.00000
10.58500	9103.00000
10.60000	9165.00000
10.61500	9058.00000
10.63000	8988.00000
10.64500	9132.00000
10.66000	9335.00000
10.67500	9373.00000
10.69000	9323.00000
10.70500	9559.00000
10.72000	9521.00000
10.73500	9568.00000
10.75000	9379.00000
10.76500	9315.00000
10.78000	9123.00000
10.79500	9151.00000
10.81000	9116.00000
10.82500	9161.00000
10.84000	9094.00000
10.85500	9331.00000
10.87000	9305.00000
10.88500	9339.00000
10.90000	9177.00000
10.91500	9114.00000
10.93000	8863.00000
10.94500	8603.00000
10.96000	8719.00000
10.97500	8707.00000
10.99000	8646.00000
11.00500	8583.00000
11.02000	8681.00000
11.03500	8619.00000
11.05000	8688.00000
11.06500	8677.00000
11.08000	8608.00000
11.09500	8613.00000
11.11000	8638.00000
11.12500	8673.00000
11.14000	8591.00000
11.15500	8629.00000
11.17000	8704.00000
11.18500	8670.00000
11.20000	8767.00000
11.21500	8730.00000
11.23000	8727.00000
11.24500	8682.00000
11.26000	8820.00000
11.27500	8638.00000
11.29000	8796.00000
11.30500	8771.00000
11.32000	8689.00000
11.33500	8585.00000
11.35000	8610.00000
11.36500	8618.00000
11.38000	8739.00000
11.39500	8734.00000
11.41000	8601.00000
11.42500	8650.00000
11.44000	8570.00000
11.45500	8645.00000
11.47000	8663.00000
11.48500	8677.00000
11.50000	8702.00000
11.51500	8534.00000
11.53000	8672.00000
11.54500	8718.00000
11.56000	8657.00000
11.57500	8672.00000
11.59000	8714.00000
11.60500	8742.00000
11.62000	8611.00000
11.63500	8599.00000
11.65000	8698.00000
11.66500	8738.00000
11.68000	8573.00000
11.69500	8452.00000
11.71000	8606.00000
11.72500	8723.00000
11.74000	8653.00000
11.75500	8683.00000
11.77000	8529.00000
11.78500	8687.00000
11.80000	8603.00000
11.81500	8765.00000
11.83000	8771.00000
11.84500	8769.00000
11.86000	8685.00000
11.87500	8789.00000
11.89000	8825.00000
11.90500	8835.00000
11.92000	8886.00000
11.93500	8894.00000
11.95000	8932.00000
11.96500	8874.00000
11.98000	8996.00000
11.99500	8958.00000
12.01000	9097.00000
12.02500	9132.00000
12.04000	9153.00000
12.05500	9216.00000
12.07000	9243.00000
12.08500	9291.00000
12.10000	9391.00000
12.11500	9538.00000
12.13000	9557.00000
12.14500	9723.00000
12.16000	9815.00000
12.17500	9913.00000
12.19000	10024.00000
12.20500	10065.00000
12.22000	10315.00000
12.23500	10576.00000
12.25000	10739.00000
12.26500	11037.00000
12.28000	11263.00000
12.29500	11766.00000
12.31000	11845.00000
12.32500	12562.00000
12.34000	13310.00000
12.35500	13944.00000
12.37000	14731.00000
12.38500	15103.00000
12.40000	15118.00000
12.41500	14163.00000
12.43000	12776.00000
12.44500	11615.00000
12.46000	10853.00000
12.47500	10272.00000
12.49000	9840.00000
12.50500	9774.00000
12.52000	9552.00000
12.53500	9425.00000
12.55000	9300.00000
12.56500	9229.00000
12.58000	9274.00000
12.59500	9344.00000
12.61000	9511.00000
12.62500	9433.00000
12.64000	9476.00000
12.65500	9597.00000
12.67000	9588.00000
12.68500	9636.00000
12.70000	9734.00000
12.71500	9784.00000
12.73000	9972.00000
12.74500	10054.00000
12.76000	10194.00000
12.77500	10404.00000
12.79000	10541.00000
12.80500	10907.00000
12.82000	11079.00000
12.83500	11432.00000
12.85000	11681.00000
12.86500	12209.00000
12.88000	12563.00000
12.89500	13218.00000
12.91000	13762.00000
12.92500	14495.00000
12.94000	15582.00000
12.95500	16508.00000
12.97000	17824.00000
12.98500	19453.00000
13.00000	21173.00000
13.01500	23346.00000
13.03000	25363.00000
13.04500	26075.00000
13.06000	25115.00000
13.07500	21576.00000
13.09000	17978.00000
13.10500	15043.00000
13.12000	13145.00000
13.13500	12052.00000
13.15000	11287.00000
13.16500	10763.00000
13.18000	10452.00000
13.19500	10099.00000
13.21000	10138.00000
13.22500	10254.00000
13.24000	10193.00000
13.25500	10100.00000
13.27000	10180.00000
13.28500	10104.00000
13.30000	10111.00000
13.31500	10441.00000
13.33000	10589.00000
13.34500	10759.00000
13.36000	10715.00000
13.37500	11079.00000
13.39000	11303.00000
13.40500	11677.00000
13.42000	12085.00000
13.43500	12554.00000
13.45000	12880.00000
13.46500	13678.00000
13.48000	14279.00000
13.49500	15220.00000
13.51000	16509.00000
13.52500	17508.00000
13.54000	18573.00000
13.55500	19087.00000
13.57000	19128.00000
13.58500	18649.00000
13.60000	17782.00000
13.61500	16996.00000
13.63000	15738.00000
13.64500	14223.00000
13.66000	12903.00000
13.67500	11873.00000
13.69000	11061.00000
13.70500	10369.00000
13.72000	10205.00000
13.73500	9883.00000
13.75000	9684.00000
13.76500	9525.00000
13.78000	9431.00000
13.79500	9282.00000
13.81000	9218.00000
13.82500	9062.00000
13.84000	9021.00000
13.85500	8876.00000
13.87000	8977.00000
13.88500	8924.00000
13.90000	9128.00000
13.91500	8873.00000
13.93000	8885.00000
13.94500	8910.00000
13.96000	8842.00000
13.97500	8914.00000
13.99000	8726.00000
14.00500	8876.00000
14.02000	8971.00000
14.03500	8936.00000
14.05000	8872.00000
14.06500	8948.00000
14.08000	8817.00000
14.09500	8960.00000
14.11000	8936.00000
14.12500	8857.00000
14.14000	8901.00000
14.15500	8996.00000
14.17000	8897.00000
14.18500	8964.00000
14.20000	8968.00000
14.21500	8923.00000
14.23000	8937.00000
14.24500	9156.00000
14.26000	8979.00000
14.27500	9120.00000
14.29000	9192.00000
14.30500	9185.00000
14.32000	9230.00000
14.33500	9223.00000
14.35000	9265.00000
14.36500	9110.00000
14.38000	9079.00000
14.39500	8892.00000
14.41000	8764.00000
14.42500	8977.00000
14.44000	9039.00000
14.45500	8774.00000
14.47000	8780.00000
14.48500	8973.00000
14.50000	9100.00000
14.51500	8900.00000
14.53000	8980.00000
14.54500	9047.00000
14.56000	8857.00000
14.57500	9050.00000
14.59000	9037.00000
14.60500	8960.00000
14.62000	9039.00000
14.63500	9049.00000
14.65000	9220.00000
14.66500	9278.00000
14.68000	9251.00000
14.69500	9378.00000
14.71000	9381.00000
14.72500	9398.00000
14.74000	9447.00000
14.75500	9709.00000
14.77000	9869.00000
14.78500	9920.00000
14.80000	10110.00000
14.81500	10468.00000
14.83000	10108.00000
14.84500	10196.00000
14.86000	9816.00000
14.87500	9902.00000
14.89000	9694.00000
14.90500	9603.00000
14.92000	9579.00000
14.93500	9724.00000
14.95000	9644.00000
14.96500	9815.00000
14.98000	9967.00000
14.99500	10129.00000
15.01000	10151.00000
15.02500	9873.00000
15.04000	9583.00000
15.05500	9452.00000
15.07000	9438.00000
15.08500	9233.00000
15.10000	9189.00000
15.11500	9301.00000
15.13000	9220.00000
15.14500	9366.00000
15.16000	9327.00000
15.17500	9070.00000
15.19000	9075.00000
15.20500	9242.00000
15.22000	9254.00000
15.23500	9171.00000
15.25000	9070.00000
15.26500	9152.00000
15.28000	9187.00000
15.29500	9247.00000
15.31000	9291.00000
15.32500	9187.00000
15.34000	9315.00000
15.35500	9245.00000
15.37000	9309.00000
15.38500	9156.00000
15.40000	9268.00000
15.41500	9315.00000
15.43000	9348.00000
15.44500	9139.00000
15.46000	9394.00000
15.47500	9230.00000
15.49000	9285.00000
15.50500	9264.00000
15.52000	9197.00000
15.53500	9275.00000
15.55000	9237.00000
15.56500	9270.00000
15.58000	9378.00000
15.59500	9231.00000
15.61000	9369.00000
15.62500	9284.00000
15.64000	9481.00000
15.65500	9352.00000
15.67000	9365.00000
15.68500	9502.00000
15.70000	9595.00000
15.71500	9654.00000
15.73000	9573.00000
15.74500	9622.00000
15.76000	9900.00000
15.77500	9812.00000
15.79000	9692.00000
15.80500	9849.00000
15.82000	9651.00000
15.83500	9507.00000
15.85000	9353.00000
15.86500	9438.00000
15.88000	9430.00000
15.89500	9409.00000
15.91000	9361.00000
15.92500	9551.00000
15.94000	9656.00000
15.95500	9608.00000
15.97000	9587.00000
15.98500	9805.00000
16.00000	9697.00000
16.01500	9800.00000
16.03000	10010.00000
16.04500	10185.00000
16.06000	10081.00000
16.07500	10233.00000
16.09000	10252.00000
16.10500	10509.00000
16.12000	10659.00000
16.13500	10830.00000
16.15000	11083.00000
16.16500	11389.00000
16.18000	11734.00000
16.19500	12290.00000
16.21000	12809.00000
16.22500	13493.00000
16.24000	13962.00000
16.25500	14828.00000
16.27000	15579.00000
16.28500	16063.00000
16.30000	15789.00000
16.31500	14633.00000
16.33000	13302.00000
16.34500	12250.00000
16.36000	11595.00000
16.37500	10941.00000
16.39000	10616.00000
16.40500	10406.00000
16.42000	10127.00000
16.43500	10080.00000
16.45000	10190.00000
16.46500	10115.00000
16.48000	10060.00000
16.49500	9889.00000
16.51000	9837.00000
16.52500	9955.00000
16.54000	9974.00000
16.55500	9873.00000
16.57000	9944.00000
16.58500	9925.00000
16.60000	10243.00000
16.61500	10111.00000
16.63000	10125.00000
16.64500	10257.00000
16.66000	10588.00000
16.67500	10579.00000
16.69000	10610.00000
16.70500	10983.00000
16.72000	11038.00000
16.73500	10877.00000
16.75000	10765.00000
16.76500	10620.00000
16.78000	10438.00000
16.79500	10457.00000
16.81000	10502.00000
16.82500	10380.00000
16.84000	10610.00000
16.85500	10558.00000
16.87000	10686.00000
16.88500	10518.00000
16.90000	10440.00000
16.91500	10298.00000
16.93000	10108.00000
16.94500	9968.00000
16.96000	10105.00000
16.97500	9962.00000
16.99000	9967.00000
17.00500	10145.00000
17.02000	10070.00000
17.03500	9999.00000
17.05000	10026.00000
17.06500	10120.00000
17.08000	10069.00000
17.09500	9926.00000
17.11000	10089.00000
17.12500	9985.00000
17.14000	10127.00000
17.15500	10205.00000
17.17000	10278.00000
17.18500	10306.00000
17.20000	10324.00000
17.21500	10183.00000
17.23000	10246.00000
17.24500	10331.00000
17.26000	10292.00000
17.27500	10433.00000
17.29000	10422.00000
17.30500	10323.00000
17.32000	10584.00000
17.33500	10533.00000
17.35000	10641.00000
17.36500	10712.00000
17.38000	10804.00000
17.39500	10944.00000
17.41000	11230.00000
17.42500	11296.00000
17.44000	11500.00000
17.45500	11583.00000
17.47000	11837.00000
17.48500	12075.00000
17.50000	12338.00000
17.51500	12698.00000
17.53000	13134.00000
17.54500	13552.00000
17.56000	14305.00000
17.57500	14614.00000
17.59000	15541.00000
17.60500	16415.00000
17.62000	17484.00000
17.63500	18854.00000
17.65000	20320.00000
17.66500	22427.00000
17.68000	24869.00000
17.69500	27539.00000
17.71000	29919.00000
17.72500	31449.00000
17.74000	30585.00000
17.75500	27000.00000
17.77000	22447.00000
17.78500	18415.00000
17.80000	16176.00000
17.81500	14659.00000
17.83000	13517.00000
17.84500	12986.00000
17.86000	12346.00000
17.87500	12159.00000
17.89000	11897.00000
17.90500	11609.00000
17.92000	11468.00000
17.93500	11261.00000
17.95000	11475.00000
17.96500	11184.00000
17.98000	11194.00000
17.99500	11315.00000
18.01000	11107.00000
18.02500	11237.00000
18.04000	11124.00000
18.05500	11118.00000
18.07000	11218.00000
18.08500	11088.00000
18.10000	11051.00000
18.11500	11098.00000
18.13000	11117.00000
18.14500	11174.00000
18.16000	11193.00000
18.17500	11224.00000
18.19000	11154.00000
18.20500	11250.00000
18.22000	11612.00000
18.23500	11490.00000
18.25000	11514.00000
18.26500	11407.00000
18.28000	11417.00000
18.29500	11628.00000
18.31000	11696.00000
18.32500	11621.00000
18.34000	11607.00000
18.35500	11608.00000
18.37000	11817.00000
18.38500	11742.00000
18.40000	11865.00000
18.41500	12254.00000
18.43000	12351.00000
18.44500	12516.00000
18.46000	12886.00000
18.47500	13153.00000
18.49000	13315.00000
18.50500	13450.00000
18.52000	13828.00000
18.53500	14156.00000
18.55000	14637.00000
18.56500	14712.00000
18.58000	14945.00000
18.59500	15609.00000
18.61000	16046.00000
18.62500	16756.00000
18.64000	17348.00000
18.65500	18486.00000
18.67000	19858.00000
18.68500	21233.00000
18.70000	23010.00000
18.71500	24982.00000
18.73000	27518.00000
18.74500	30697.00000
18.76000	33922.00000
18.77500	36958.00000
18.79000	39707.00000
18.80500	39861.00000
18.82000	37571.00000
18.83500	34213.00000
18.85000	30867.00000
18.86500	27571.00000
18.88000	24650.00000
18.89500	22587.00000
18.91000	20599.00000
18.92500	19349.00000
18.94000	18584.00000
18.95500	18040.00000
18.97000	17642.00000
18.98500	17489.00000
19.00000	17244.00000
19.01500	17658.00000
19.03000	18050.00000
19.04500	18325.00000
19.06000	19152.00000
19.07500	20186.00000
19.09000	21288.00000
19.10500	22548.00000
19.12000	24309.00000
19.13500	26373.00000
19.15000	29061.00000
19.16500	32096.00000
19.18000	35379.00000
19.19500	39557.00000
19.21000	44206.00000
19.22500	49374.00000
19.24000	54200.00000
19.25500	57068.00000
19.27000	57240.00000
19.28500	53302.00000
19.30000	46971.00000
19.31500	39964.00000
19.33000	33706.00000
19.34500	29046.00000
19.36000	25904.00000
19.37500	23208.00000
19.39000	21494.00000
19.40500	19997.00000
19.42000	19161.00000
19.43500	18578.00000
19.45000	18358.00000
19.46500	18453.00000
19.48000	18710.00000
19.49500	18465.00000
19.51000	17725.00000
19.52500	17076.00000
19.54000	16565.00000
19.55500	16404.00000
19.57000	16537.00000
19.58500	16566.00000
19.60000	16764.00000
19.61500	16737.00000
19.63000	16299.00000
19.64500	15878.00000
19.66000	15473.00000
19.67500	15075.00000
19.69000	15155.00000
19.70500	14745.00000
19.72000	14774.00000
19.73500	14637.00000
19.75000	14868.00000
19.76500	14990.00000
19.78000	15119.00000
19.79500	15732.00000
19.81000	15801.00000
19.82500	16376.00000
19.84000	17026.00000
19.85500	17696.00000
19.87000	18491.00000
19.88500	19232.00000
19.90000	20007.00000
19.91500	21012.00000
19.93000	21838.00000
19.94500	22949.00000
19.96000	24094.00000
19.97500	25770.00000
19.99000	27807.00000
20.00500	30500.00000
20.02000	33323.00000
20.03500	36813.00000
20.05000	41085.00000
20.06500	45794.00000
20.08000	50267.00000
20.09500	53869.00000
20.11000	54418.00000
20.12500	52374.00000
20.14000	48490.00000
20.15500	43150.00000
20.17000	39567.00000
20.18500	37634.00000
20.20000	37039.00000
20.21500	37252.00000
20.23000	38281.00000
20.24500	39024.00000
20.26000	39103.00000
20.27500	37782.00000
20.29000	34848.00000
20.30500	30911.00000
20.32000	27117.00000
20.33500	23856.00000
20.35000	21415.00000
20.36500	19467.00000
20.38000	18071.00000
20.39500	16870.00000
20.41000	16346.00000
20.42500	15982.00000
20.44000	15331.00000
20.45500	14854.00000
20.47000	14486.00000
20.48500	14337.00000
20.50000	14074.00000
20.51500	13998.00000
20.53000	13965.00000
20.54500	13794.00000
20.56000	13630.00000
20.57500	13567.00000
20.59000	13657.00000
20.60500	13806.00000
20.62000	13714.00000
20.63500	13785.00000
20.65000	13889.00000
20.66500	13898.00000
20.68000	13986.00000
20.69500	14284.00000
20.71000	14473.00000
20.72500	14556.00000
20.74000	15057.00000
20.75500	15141.00000
20.77000	15054.00000
20.78500	14715.00000
20.80000	14566.00000
20.81500	14100.00000
20.83000	14074.00000
20.84500	13979.00000
20.86000	14251.00000
20.87500	14333.00000
20.89000	14466.00000
20.90500	14840.00000
20.92000	15347.00000
20.93500	15571.00000
20.95000	15887.00000
20.96500	16420.00000
20.98000	16690.00000
20.99500	17834.00000
21.01000	18523.00000
21.02500	19502.00000
21.04000	20499.00000
21.05500	22136.00000
21.07000	23809.00000
21.08500	25600.00000
21.10000	27182.00000
21.11500	28580.00000
21.13000	29070.00000
21.14500	28474.00000
21.16000	26994.00000
21.17500	25101.00000
21.19000	22520.00000
21.20500	20663.00000
21.22000	18817.00000
21.23500	17698.00000
21.25000	16621.00000
21.26500	16037.00000
21.28000	15278.00000
21.29500	14967.00000
21.31000	14586.00000
21.32500	14328.00000
21.34000	14190.00000
21.35500	13857.00000
21.37000	13892.00000
21.38500	13930.00000
21.40000	13779.00000
21.41500	13735.00000
21.43000	13550.00000
21.44500	13668.00000
21.46000	13840.00000
21.47500	13834.00000
21.49000	13747.00000
21.50500	13914.00000
21.52000	13988.00000
21.53500	14041.00000
21.55000	14257.00000
21.56500	14420.00000
21.58000	13936.00000
21.59500	14012.00000
21.61000	13855.00000
21.62500	13618.00000
21.64000	13544.00000
21.65500	13533.00000
21.67000	13637.00000
21.68500	13686.00000
21.70000	13850.00000
21.71500	13850.00000
21.73000	14198.00000
21.74500	14316.00000
21.76000	14565.00000
21.77500	14816.00000
21.79000	14893.00000
21.80500	15301.00000
21.82000	15636.00000
21.83500	15955.00000
21.85000	16581.00000
21.86500	17367.00000
21.88000	17476.00000
21.89500	17731.00000
21.91000	17525.00000
21.92500	17040.00000
21.94000	16295.00000
21.95500	15567.00000
21.97000	14977.00000
21.98500	14676.00000
22.00000	14226.00000
22.01500	13890.00000
22.03000	13697.00000
22.04500	13648.00000
22.06000	13431.00000
22.07500	13308.00000
22.09000	13043.00000
22.10500	12952.00000
22.12000	12991.00000
22.13500	12904.00000
22.15000	12905.00000
22.16500	12936.00000
22.18000	12754.00000
22.19500	12775.00000
22.21000	12865.00000
22.22500	12894.00000
22.24000	12837.00000
22.25500	12684.00000
22.27000	12672.00000
22.28500	12747.00000
22.30000	12835.00000
22.31500	12832.00000
22.33000	12803.00000
22.34500	12807.00000
22.36000	12900.00000
22.37500	12955.00000
22.39000	13201.00000
22.40500	13171.00000
22.42000	13173.00000
22.43500	13390.00000
22.45000	13686.00000
22.46500	13751.00000
22.48000	13997.00000
22.49500	14011.00000
22.51000	14323.00000
22.52500	14499.00000
22.54000	14517.00000
22.55500	14506.00000
22.57000	14407.00000
22.58500	14471.00000
22.60000	14692.00000
22.61500	14719.00000
22.63000	14410.00000
22.64500	14407.00000
22.66000	14346.00000
22.67500	14344.00000
22.69000	14572.00000
22.70500	14540.00000
22.72000	14736.00000
22.73500	14953.00000
22.75000	15179.00000
22.76500	15539.00000
22.78000	15938.00000
22.79500	16689.00000
22.81000	17428.00000
22.82500	18251.00000
22.84000	19270.00000
22.85500	20621.00000
22.87000	22064.00000
22.88500	23162.00000
22.90000	24261.00000
22.91500	24427.00000
22.93000	23582.00000
22.94500	21688.00000
22.96000	19526.00000
22.97500	17601.00000
22.99000	16357.00000
23.00500	15470.00000
23.02000	14536.00000
23.03500	14181.00000
23.05000	13803.00000
23.06500	13393.00000
23.08000	13249.00000
23.09500	13180.00000
23.11000	12961.00000
23.12500	12877.00000
23.14000	12953.00000
23.15500	13111.00000
23.17000	13182.00000
23.18500	13108.00000
23.20000	13280.00000
23.21500	13149.00000
23.23000	13226.00000
23.24500	13433.00000
23.26000	13250.00000
23.27500	13236.00000
23.29000	13431.00000
23.30500	13320.00000
23.32000	13457.00000
23.33500	13793.00000
23.35000	13828.00000
23.36500	14078.00000
23.38000	14327.00000
23.39500	14798.00000
23.41000	15134.00000
23.42500	15859.00000
23.44000	16499.00000
23.45500	17312.00000
23.47000	18092.00000
23.48500	18850.00000
23.50000	19801.00000
23.51500	20696.00000
23.53000	21381.00000
23.54500	22062.00000
23.56000	23321.00000
23.57500	24542.00000
23.59000	25621.00000
23.60500	26618.00000
23.62000	26551.00000
23.63500	25618.00000
23.65000	23830.00000
23.66500	21653.00000
23.68000	19713.00000
23.69500	18057.00000
23.71000	17012.00000
23.72500	15986.00000
23.74000	15176.00000
23.75500	14805.00000
23.77000	14439.00000
23.78500	13970.00000
23.80000	13693.00000
23.81500	13355.00000
23.83000	12876.00000
23.84500	12843.00000
23.86000	12702.00000
23.87500	12767.00000
23.89000	12552.00000
23.90500	12458.00000
23.92000	12766.00000
23.93500	12709.00000
23.95000	12786.00000
23.96500	12965.00000
23.98000	12753.00000
23.99500	12641.00000
24.01000	12442.00000
24.02500	12105.00000
24.04000	12162.00000
24.05500	11821.00000
24.07000	11704.00000
24.08500	11761.00000
24.10000	11459.00000
24.11500	11445.00000
24.13000	11551.00000
24.14500	11322.00000
24.16000	11310.00000
24.17500	11328.00000
24.19000	11254.00000
24.20500	11225.00000
24.22000	11361.00000
24.23500	11424.00000
24.25000	11311.00000
24.26500	11282.00000
24.28000	11234.00000
24.29500	11259.00000
24.31000	11210.00000
24.32500	11160.00000
24.34000	10940.00000
24.35500	10904.00000
24.37000	10967.00000
24.38500	10861.00000
24.40000	10851.00000
24.41500	10707.00000
24.43000	10966.00000
24.44500	10718.00000
24.46000	10732.00000
24.47500	10717.00000
24.49000	10946.00000
24.50500	10915.00000
24.52000	10889.00000
24.53500	10715.00000
24.55000	10778.00000
24.56500	10869.00000
24.58000	10944.00000
24.59500	10945.00000
24.61000	10968.00000
24.62500	11112.00000
24.64000	11227.00000
24.65500	11404.00000
24.67000	11582.00000
24.68500	11744.00000
24.70000	11895.00000
24.71500	12471.00000
24.73000	12604.00000
24.74500	13036.00000
24.76000	13622.00000
24.77500	14100.00000
24.79000	14810.00000
24.80500	15774.00000
24.82000	16549.00000
24.83500	17532.00000
24.85000	18709.00000
24.86500	19371.00000
24.88000	20111.00000
24.89500	20786.00000
24.91000	21106.00000
24.92500	20684.00000
24.94000	19806.00000
24.95500	18660.00000
24.97000	17300.00000
24.98500	16023.00000
25.00000	14866.00000
25.01500	13895.00000
25.03000	13131.00000
25.04500	12447.00000
25.06000	12076.00000
25.07500	11867.00000
25.09000	11483.00000
25.10500	11282.00000
25.12000	11187.00000
25.13500	11048.00000
25.15000	11051.00000
25.16500	11185.00000
25.18000	11143.00000
25.19500	11284.00000
25.21000	11413.00000
25.22500	11516.00000
25.24000	11470.00000
25.25500	11371.00000
25.27000	11319.00000
25.28500	11199.00000
25.30000	10921.00000
25.31500	10984.00000
25.33000	10951.00000
25.34500	10869.00000
25.36000	10778.00000
25.37500	10855.00000
25.39000	10825.00000
25.40500	10939.00000
25.42000	10859.00000
25.43500	10708.00000
25.45000	10629.00000
25.46500	10636.00000
25.48000	10674.00000
25.49500	10733.00000
25.51000	10734.00000
25.52500	10502.00000
25.54000	10521.00000
25.55500	10427.00000
25.57000	10271.00000
25.58500	10491.00000
25.60000	10353.00000
25.61500	10420.00000
25.63000	10657.00000
25.64500	10726.00000
25.66000	10802.00000
25.67500	11116.00000
25.69000	11054.00000
25.70500	11135.00000
25.72000	11237.00000
25.73500	11585.00000
25.75000	12355.00000
25.76500	12721.00000
25.78000	13306.00000
25.79500	14091.00000
25.81000	14964.00000
25.82500	16139.00000
25.84000	17540.00000
25.85500	19021.00000
25.87000	20953.00000
25.88500	23269.00000
25.90000	25313.00000
25.91500	27589.00000
25.93000	29432.00000
25.94500	30542.00000
25.96000	29615.00000
25.97500	27890.00000
25.99000	24926.00000
26.00500	21898.00000
26.02000	19199.00000
26.03500	16798.00000
26.05000	15230.00000
26.06500	13800.00000
26.08000	12700.00000
26.09500	11924.00000
26.11000	11325.00000
26.12500	10938.00000
26.14000	10485.00000
26.15500	10244.00000
26.17000	10004.00000
26.18500	9809.00000
26.20000	9613.00000
26.21500	9527.00000
26.23000	9384.00000
26.24500	9298.00000
26.26000	9271.00000
26.27500	9145.00000
26.29000	9185.00000
26.30500	8948.00000
26.32000	9045.00000
26.33500	8862.00000
26.35000	8735.00000
26.36500	8697.00000
26.38000	8755.00000
26.39500	8697.00000
26.41000	8793.00000
26.42500	8777.00000
26.44000	8736.00000
26.45500	8658.00000
26.47000	8682.00000
26.48500	8684.00000
26.50000	8647.00000
26.51500	8805.00000
26.53000	8758.00000
26.54500	8856.00000
26.56000	8762.00000
26.57500	8731.00000
26.59000	8883.00000
26.60500	9013.00000
26.62000	8997.00000
26.63500	9281.00000
26.65000	9282.00000
26.66500	9469.00000
26.68000	9791.00000
26.69500	9770.00000
26.71000	9871.00000
26.72500	9718.00000
26.74000	9519.00000
26.75500	9230.00000
26.77000	9084.00000
26.78500	8838.00000
26.80000	8704.00000
26.81500	8471.00000
26.83000	8401.00000
26.84500	8357.00000
26.86000	8176.00000
26.87500	8148.00000
26.89000	8193.00000
26.90500	8165.00000
26.92000	8173.00000
26.93500	8014.00000
26.95000	7987.00000
26.96500	8020.00000
26.98000	8129.00000
26.99500	8003.00000
27.01000	7948.00000
27.02500	7747.00000
27.04000	7871.00000
27.05500	7811.00000
27.07000	7790.00000
27.08500	7852.00000
27.10000	7854.00000
27.11500	7884.00000
27.13000	7855.00000
27.14500	7844.00000
27.16000	7902.00000
27.17500	7842.00000
27.19000	7949.00000
27.20500	7831.00000
27.22000	7830.00000
27.23500	7874.00000
27.25000	7909.00000
27.26500	7946.00000
27.28000	7975.00000
27.29500	7965.00000
27.31000	7796.00000
27.32500	7759.00000
27.34000	7755.00000
27.35500	7751.00000
27.37000	7583.00000
27.38500	7730.00000
27.40000	7761.00000
27.41500	7736.00000
27.43000	7731.00000
27.44500	7703.00000
27.46000	7594.00000
27.47500	7600.00000
27.49000	7606.00000
27.50500	7574.00000
27.52000	7477.00000
27.53500	7548.00000
27.55000	7465.00000
27.56500	7655.00000
27.58000	7537.00000
27.59500	7582.00000
27.61000	7595.00000
27.62500	7535.00000
27.64000	7504.00000
27.65500	7577.00000
27.67000	7460.00000
27.68500	7664.00000
27.70000	7614.00000
27.71500	7700.00000
27.73000	7431.00000
27.74500	7617.00000
27.76000	7801.00000
27.77500	7832.00000
27.79000	7703.00000
27.80500	7588.00000
27.82000	7473.00000
27.83500	7496.00000
27.85000	7457.00000
27.86500	7464.00000
27.88000	7384.00000
27.89500	7369.00000
27.91000	7424.00000
27.92500	7337.00000
27.94000	7312.00000
27.95500	7345.00000
27.97000	7310.00000
27.98500	7395.00000
28.00000	7332.00000
28.01500	7239.00000
28.03000	7322.00000
28.04500	7186.00000
28.06000	7251.00000
28.07500	7258.00000
28.09000	7136.00000
28.10500	7338.00000
28.12000	7231.00000
28.13500	7236.00000
28.15000	7243.00000
28.16500	7138.00000
28.18000	7192.00000
28.19500	7173.00000
28.21000	7083.00000
28.22500	7231.00000
28.24000	7176.00000
28.25500	7119.00000
28.27000	7166.00000
28.28500	7184.00000
28.30000	7179.00000
28.31500	7289.00000
28.33000	7306.00000
28.34500	7428.00000
28.36000	7296.00000
28.37500	7335.00000
28.39000	7421.00000
28.40500	7473.00000
28.42000	7638.00000
28.43500	7647.00000
28.45000	7900.00000
28.46500	8009.00000
28.48000	8108.00000
28.49500	8159.00000
28.51000	8237.00000
28.52500	8504.00000
28.54000	8718.00000
28.55500	8803.00000
28.57000	8908.00000
28.58500	8747.00000
28.60000	8862.00000
28.61500	8564.00000
28.63000	8441.00000
28.64500	8404.00000
28.66000	8354.00000
28.67500	8192.00000
28.69000	8365.00000
28.70500	8578.00000
28.72000	8469.00000
28.73500	8361.00000
28.75000	8428.00000
28.76500	8378.00000
28.78000	8299.00000
28.79500	8342.00000
28.81000	8361.00000
28.82500	8400.00000
28.84000	8554.00000
28.85500	8452.00000
28.87000	8543.00000
28.88500	8664.00000
28.90000	8848.00000
28.91500	8770.00000
28.93000	8797.00000
28.94500	8685.00000
28.96000	8618.00000
28.97500	8378.00000
28.99000	8285.00000
29.00500	8208.00000
29.02000	8253.00000
29.03500	8252.00000
29.05000	8334.00000
29.06500	8449.00000
29.08000	8695.00000
29.09500	8806.00000
29.11000	9279.00000
29.12500	9612.00000
29.14000	10121.00000
29.15500	10614.00000
29.17000	10841.00000
29.18500	11226.00000
29.20000	11488.00000
29.21500	11628.00000
29.23000	11623.00000
29.24500	11409.00000
29.26000	11145.00000
29.27500	10443.00000
29.29000	9596.00000
29.30500	9098.00000
29.32000	8487.00000
29.33500	8211.00000
29.35000	7852.00000
29.36500	7553.00000
29.38000	7477.00000
29.39500	7434.00000
29.41000	7321.00000
29.42500	7216.00000
29.44000	7133.00000
29.45500	7132.00000
29.47000	7309.00000
29.48500	7166.00000
29.50000	7242.00000
29.51500	7323.00000
29.53000	7360.00000
29.54500	7339.00000
29.56000	7507.00000
29.57500	7577.00000
29.59000	7478.00000
29.60500	7537.00000
29.62000	7379.00000
29.63500	7307.00000
29.65000	7229.00000
29.66500	7148.00000
29.68000	7060.00000
29.69500	7016.00000
29.71000	7042.00000
29.72500	6958.00000
29.74000	7065.00000
29.75500	6909.00000
29.77000	7010.00000
29.78500	7049.00000
29.80000	7114.00000
29.81500	7200.00000
29.83000	7372.00000
29.84500	7364.00000
29.86000	7458.00000
29.87500	7551.00000
29.89000	7839.00000
29.90500	8083.00000
29.92000	8346.00000
29.93500	8684.00000
29.95000	8686.00000
29.96500	9000.00000
29.98000	9401.00000
29.99500	9667.00000
30.01000	10020.00000
30.02500	10638.00000
30.04000	11143.00000
30.05500	11855.00000
30.07000	12482.00000
30.08500	13398.00000
30.10000	13839.00000
30.11500	14405.00000
30.13000	14374.00000
30.14500	14004.00000
30.16000	13633.00000
30.17500	12865.00000
30.19000	12153.00000
30.20500	11665.00000
30.22000	11354.00000
30.23500	11179.00000
30.25000	10863.00000
30.26500	10823.00000
30.28000	10984.00000
30.29500	10892.00000
30.31000	10822.00000
30.32500	10696.00000
30.34000	10142.00000
30.35500	9566.00000
30.37000	8959.00000
30.38500	8368.00000
30.40000	7908.00000
30.41500	7684.00000
30.43000	7363.00000
30.44500	7038.00000
30.46000	6964.00000
30.47500	6926.00000
30.49000	6729.00000
30.50500	6597.00000
30.52000	6573.00000
30.53500	6587.00000
30.55000	6476.00000
30.56500	6372.00000
30.58000	6442.00000
30.59500	6439.00000
30.61000	6477.00000
30.62500	6424.00000
30.64000	6495.00000
30.65500	6392.00000
30.67000	6563.00000
30.68500	6565.00000
30.70000	6655.00000
30.71500	6689.00000
30.73000	6694.00000
30.74500	6660.00000
30.76000	6758.00000
30.77500	6808.00000
30.79000	6821.00000
30.80500	7146.00000
30.82000	7058.00000
30.83500	7113.00000
30.85000	7278.00000
30.86500	7278.00000
30.88000	7344.00000
30.89500	7425.00000
30.91000	7539.00000
30.92500	7526.00000
30.94000	7373.00000
30.95500	7361.00000
30.97000	7109.00000
30.98500	7054.00000
31.00000	6874.00000
31.01500	6776.00000
31.03000	6633.00000
31.04500	6458.00000
31.06000	6539.00000
31.07500	6478.00000
31.09000	6470.00000
31.10500	6581.00000
31.12000	6761.00000
31.13500	6770.00000
31.15000	6791.00000
31.16500	6994.00000
31.18000	7117.00000
31.19500	7242.00000
31.21000	7398.00000
31.22500	7509.00000
31.24000	7361.00000
31.25500	7244.00000
31.27000	7240.00000
31.28500	7105.00000
31.30000	6981.00000
31.31500	6957.00000
31.33000	6884.00000
31.34500	6913.00000
31.36000	6967.00000
31.37500	7077.00000
31.39000	7163.00000
31.40500	7235.00000
31.42000	7356.00000
31.43500	7554.00000
31.45000	7701.00000
31.46500	8188.00000
31.48000	8434.00000
31.49500	8577.00000
31.51000	8742.00000
31.52500	8807.00000
31.54000	8710.00000
31.55500	8488.00000
31.57000	8136.00000
31.58500	7967.00000
31.60000	7461.00000
31.61500	7168.00000
31.63000	6926.00000
31.64500	6674.00000
31.66000	6487.00000
31.67500	6406.00000
31.69000	6132.00000
31.70500	6170.00000
31.72000	6168.00000
31.73500	6043.00000
31.75000	5906.00000
31.76500	5952.00000
31.78000	5877.00000
31.79500	5958.00000
31.81000	5879.00000
31.82500	6026.00000
31.84000	5986.00000
31.85500	6027.00000
31.87000	5996.00000
31.88500	6029.00000
31.90000	5984.00000
31.91500	5981.00000
31.93000	6204.00000
31.94500	6039.00000
31.96000	6024.00000
31.97500	6181.00000
31.99000	5988.00000
32.00500	6106.00000
32.02000	5975.00000
32.03500	6124.00000
32.05000	5980.00000
32.06500	6078.00000
32.08000	6066.00000
32.09500	6076.00000
32.11000	6301.00000
32.12500	6490.00000
32.14000	6574.00000
32.15500	6622.00000
32.17000	6855.00000
32.18500	6786.00000
32.20000	6757.00000
32.21500	7011.00000
32.23000	6897.00000
32.24500	6909.00000
32.26000	6752.00000
32.27500	6450.00000
32.29000	6389.00000
32.30500	6322.00000
32.32000	6131.00000
32.33500	5928.00000
32.35000	5935.00000
32.36500	5990.00000
32.38000	6171.00000
32.39500	6058.00000
32.41000	5926.00000
32.42500	5960.00000
32.44000	5917.00000
32.45500	5981.00000
32.47000	5897.00000
32.48500	5825.00000
32.50000	5846.00000
32.51500	5880.00000
32.53000	5780.00000
32.54500	5750.00000
32.56000	5717.00000
32.57500	5845.00000
32.59000	5817.00000
32.60500	5712.00000
32.62000	5764.00000
32.63500	5642.00000
32.65000	5726.00000
32.66500	5666.00000
32.68000	5752.00000
32.69500	5803.00000
32.71000	5864.00000
32.72500	5903.00000
32.74000	5923.00000
32.75500	5716.00000
32.77000	5672.00000
32.78500	5726.00000
32.80000	5748.00000
32.81500	5825.00000
32.83000	5826.00000
32.84500	5745.00000
32.86000	5774.00000
32.87500	5970.00000
32.89000	5877.00000
32.90500	5905.00000
32.92000	6059.00000
32.93500	6131.00000
32.95000	5988.00000
32.96500	6000.00000
32.98000	5946.00000
32.99500	5927.00000
33.01000	5865.00000
33.02500	6057.00000
33.04000	5936.00000
33.05500	5965.00000
33.07000	6074.00000
33.08500	6100.00000
33.10000	6198.00000
33.11500	6190.00000
33.13000	6106.00000
33.14500	6370.00000
33.16000	6351.00000
33.17500	6295.00000
33.19000	6361.00000
33.20500	6387.00000
33.22000	6360.00000
33.23500	6479.00000
33.25000	6543.00000
33.26500	6656.00000
33.28000	6485.00000
33.29500	6443.00000
33.31000	6444.00000
33.32500	6162.00000
33.34000	6085.00000
33.35500	5919.00000
33.37000	5872.00000
33.38500	5789.00000
33.40000	5864.00000
33.41500	5699.00000
33.43000	5536.00000
33.44500	5601.00000
33.46000	5514.00000
33.47500	5542.00000
33.49000	5467.00000
33.50500	5398.00000
33.52000	5406.00000
33.53500	5376.00000
33.55000	5504.00000
33.56500	5522.00000
33.58000	5356.00000
33.59500	5387.00000
33.61000	5255.00000
33.62500	5292.00000
33.64000	5281.00000
33.65500	5308.00000
33.67000	5241.00000
33.68500	5216.00000
33.70000	5073.00000
33.71500	5122.00000
33.73000	5142.00000
33.74500	5255.00000
33.76000	5149.00000
33.77500	5033.00000
33.79000	5033.00000
33.80500	4999.00000
33.82000	5023.00000
33.83500	5033.00000
33.85000	5114.00000
33.86500	4962.00000
33.88000	4960.00000
33.89500	5112.00000
33.91000	5076.00000
33.92500	5100.00000
33.94000	5047.00000
33.95500	5070.00000
33.97000	5114.00000
33.98500	5087.00000
34.00000	5228.00000
34.01500	5365.00000
34.03000	5472.00000
34.04500	5575.00000
34.06000	5598.00000
34.07500	5669.00000
34.09000	5850.00000
34.10500	6035.00000
34.12000	6008.00000
34.13500	6167.00000
34.15000	6056.00000
34.16500	6200.00000
34.18000	6119.00000
34.19500	5922.00000
34.21000	5912.00000
34.22500	5828.00000
34.24000	5776.00000
34.25500	5869.00000
34.27000	5903.00000
34.28500	6003.00000
34.30000	6193.00000
34.31500	6385.00000
34.33000	6546.00000
34.34500	6825.00000
34.36000	6915.00000
34.37500	7012.00000
34.39000	7278.00000
34.40500	7425.00000
34.42000	7579.00000
34.43500	7655.00000
34.45000	7601.00000
34.46500	7630.00000
34.48000	7597.00000
34.49500	7671.00000
34.51000	7806.00000
34.52500	7798.00000
34.54000	8040.00000
34.55500	8092.00000
34.57000	8219.00000
34.58500	8093.00000
34.60000	7906.00000
34.61500	7472.00000
34.63000	7291.00000
34.64500	6877.00000
34.66000	6473.00000
34.67500	6204.00000
34.69000	5891.00000
34.70500	5826.00000
34.72000	5525.00000
34.73500	5449.00000
34.75000	5272.00000
34.76500	5323.00000
34.78000	5246.00000
34.79500	5244.00000
34.81000	5230.00000
34.82500	5228.00000
34.84000	5249.00000
34.85500	5230.00000
34.87000	5163.00000
34.88500	5208.00000
34.90000	5343.00000
34.91500	5458.00000
34.93000	5583.00000
34.94500	5701.00000
34.96000	5746.00000
34.97500	5938.00000
34.99000	6118.00000
35.00500	6289.00000
35.02000	6551.00000
35.03500	6762.00000
35.05000	6999.00000
35.06500	7183.00000
35.08000	7397.00000
35.09500	7271.00000
35.11000	7144.00000
35.12500	7035.00000
35.14000	6650.00000
35.15500	6442.00000
35.17000	6221.00000
35.18500	6298.00000
35.20000	5916.00000
35.21500	5863.00000
35.23000	5854.00000
35.24500	5862.00000
35.26000	5774.00000
35.27500	5978.00000
35.29000	5910.00000
35.30500	5920.00000
35.32000	5996.00000
35.33500	6083.00000
35.35000	5912.00000
35.36500	5870.00000
35.38000	5786.00000
35.39500	5795.00000
35.41000	5830.00000
35.42500	5820.00000
35.44000	5775.00000
35.45500	5833.00000
35.47000	5834.00000
35.48500	5943.00000
35.50000	6034.00000
35.51500	6255.00000
35.53000	6286.00000
35.54500	6348.00000
35.56000	6333.00000
35.57500	6210.00000
35.59000	6209.00000
35.60500	6013.00000
35.62000	5918.00000
35.63500	5752.00000
35.65000	5556.00000
35.66500	5403.00000
35.68000	5229.00000
35.69500	5168.00000
35.71000	5099.00000
35.72500	5018.00000
35.74000	4914.00000
35.75500	4923.00000
35.77000	4973.00000
35.78500	4949.00000
35.80000	4986.00000
35.81500	4871.00000
35.83000	4924.00000
35.84500	4904.00000
35.86000	5056.00000
35.87500	5164.00000
35.89000	5154.00000
35.90500	5280.00000
35.92000	5304.00000
35.93500	5319.00000
35.95000	5359.00000
35.96500	5352.00000
35.98000	5131.00000
35.99500	5124.00000
36.01000	5114.00000
36.02500	4933.00000
36.04000	4917.00000
36.05500	4926.00000
36.07000	4934.00000
36.08500	4813.00000
36.10000	4772.00000
36.11500	4903.00000
36.13000	4881.00000
36.14500	5010.00000
36.16000	4991.00000
36.17500	5068.00000
36.19000	5059.00000
36.20500	5207.00000
36.22000	5156.00000
36.23500	5127.00000
36.25000	5218.00000
36.26500	5311.00000
36.28000	5363.00000
36.29500	5425.00000
36.31000	5398.00000
36.32500	5310.00000
36.34000	5564.00000
36.35500	5618.00000
36.37000	5583.00000
36.38500	5605.00000
36.40000	5491.00000
36.41500	5451.00000
36.43000	5300.00000
36.44500	5407.00000
36.46000	5327.00000
36.47500	5189.00000
36.49000	5170.00000
36.50500	5204.00000
36.52000	5149.00000
36.53500	5226.00000
36.55000	5181.00000
36.56500	5240.00000
36.58000	5158.00000
36.59500	5073.00000
36.61000	5079.00000
36.62500	5177.00000
36.64000	5073.00000
36.65500	4930.00000
36.67000	4953.00000
36.68500	4793.00000
36.70000	4901.00000
36.71500	4809.00000
36.73000	4728.00000
36.74500	4759.00000
36.76000	4814.00000
36.77500	4881.00000
36.79000	4938.00000
36.80500	4935.00000
36.82000	5157.00000
36.83500	5086.00000
36.85000	5245.00000
36.86500	5421.00000
36.88000	5553.00000
36.89500	5805.00000
36.91000	5967.00000
36.92500	6247.00000
36.94000	6432.00000
36.95500	6445.00000
36.97000	6405.00000
36.98500	6480.00000
37.00000	6203.00000
37.01500	5958.00000
37.03000	5661.00000
37.04500	5450.00000
37.06000	5254.00000
37.07500	5128.00000
37.09000	4959.00000
37.10500	4884.00000
37.12000	4839.00000
37.13500	4774.00000
37.15000	4696.00000
37.16500	4733.00000
37.18000	4669.00000
37.19500	4786.00000
37.21000	4721.00000
37.22500	4781.00000
37.24000	4904.00000
37.25500	4921.00000
37.27000	4935.00000
37.28500	5094.00000
37.30000	5329.00000
37.31500	5502.00000
37.33000	5772.00000
37.34500	5793.00000
37.36000	6106.00000
37.37500	6599.00000
37.39000	7108.00000
37.40500	7347.00000
37.42000	7788.00000
37.43500	8157.00000
37.45000	8152.00000
37.46500	8114.00000
37.48000	7958.00000
37.49500	7535.00000
37.51000	7102.00000
37.52500	6631.00000
37.54000	6114.00000
37.55500	5858.00000
37.57000	5561.00000
37.58500	5334.00000
37.60000	5219.00000
37.61500	5044.00000
37.63000	5063.00000
37.64500	4992.00000
37.66000	4796.00000
37.67500	4769.00000
37.69000	4684.00000
37.70500	4778.00000
37.72000	4732.00000
37.73500	4550.00000
37.75000	4682.00000
37.76500	4550.00000
37.78000	4602.00000
37.79500	4627.00000
37.81000	4676.00000
37.82500	4677.00000
37.84000	4679.00000
37.85500	4746.00000
37.87000	4737.00000
37.88500	4704.00000
37.90000	4645.00000
37.91500	4689.00000
37.93000	4726.00000
37.94500	4671.00000
37.96000	4595.00000
37.97500	4476.00000
37.99000	4538.00000
38.00500	4591.00000
38.02000	4540.00000
38.03500	4496.00000
38.05000	4456.00000
38.06500	4546.00000
38.08000	4478.00000
38.09500	4564.00000
38.11000	4547.00000
38.12500	4685.00000
38.14000	4653.00000
38.15500	4730.00000
38.17000	4733.00000
38.18500	4822.00000
38.20000	4839.00000
38.21500	4802.00000
38.23000	4776.00000
38.24500	4878.00000
38.26000	5016.00000
38.27500	5012.00000
38.29000	5166.00000
38.30500	5264.00000
38.32000	5338.00000
38.33500	5314.00000
38.35000	5600.00000
38.36500	5764.00000
38.38000	5806.00000
38.39500	5950.00000
38.41000	6070.00000
38.42500	6241.00000
38.44000	6237.00000
38.45500	6081.00000
38.47000	6106.00000
38.48500	5905.00000
38.50000	5838.00000
38.51500	5650.00000
38.53000	5489.00000
38.54500	5168.00000
38.56000	4992.00000
38.57500	4793.00000
38.59000	4773.00000
38.60500	4564.00000
38.62000	4568.00000
38.63500	4423.00000
38.65000	4451.00000
38.66500	4347.00000
38.68000	4409.00000
38.69500	4355.00000
38.71000	4390.00000
38.72500	4279.00000
38.74000	4394.00000
38.75500	4381.00000
38.77000	4351.00000
38.78500	4261.00000
38.80000	4234.00000
38.81500	4225.00000
38.83000	4177.00000
38.84500	4184.00000
38.86000	4100.00000
38.87500	4146.00000
38.89000	4078.00000
38.90500	4140.00000
38.92000	4140.00000
38.93500	4040.00000
38.95000	4018.00000
38.96500	4025.00000
38.98000	4101.00000
38.99500	4209.00000
39.01000	4208.00000
39.02500	4221.00000
39.04000	4344.00000
39.05500	4408.00000
39.07000	4359.00000
39.08500	4306.00000
39.10000	4416.00000
39.11500	4524.00000
39.13000	4521.00000
39.14500	4518.00000
39.16000	4509.00000
39.17500	4463.00000
39.19000	4532.00000
39.20500	4537.00000
39.22000	4580.00000
39.23500	4642.00000
39.25000	4569.00000
39.26500	4658.00000
39.28000	4694.00000
39.29500	4648.00000
39.31000	4684.00000
39.32500	4747.00000
39.34000	4719.00000
39.35500	4707.00000
39.37000	4660.00000
39.38500	4553.00000
39.40000	4480.00000
39.41500	4394.00000
39.43000	4373.00000
39.44500	4232.00000
39.46000	4305.00000
39.47500	4203.00000
39.49000	4056.00000
39.50500	4085.00000
39.52000	4055.00000
39.53500	4120.00000
39.55000	4124.00000
39.56500	4161.00000
39.58000	4210.00000
39.59500	4147.00000
39.61000	4215.00000
39.62500	4092.00000
39.64000	4099.00000
39.65500	4211.00000
39.67000	4239.00000
39.68500	4309.00000
39.70000	4263.00000
39.71500	4410.00000
39.73000	4430.00000
39.74500	4653.00000
39.76000	4796.00000
39.77500	4956.00000
39.79000	5031.00000
39.80500	5314.00000
39.82000	5375.00000
39.83500	5408.00000
39.85000	5448.00000
39.86500	5636.00000
39.88000	5674.00000
39.89500	5613.00000
39.91000	5484.00000
39.92500	5505.00000
39.94000	5600.00000
39.95500	5361.00000
39.97000	5318.00000
39.98500	5193.00000
40.00000	5164.00000
40.01500	5077.00000
40.03000	4883.00000
40.04500	4662.00000
40.06000	4666.00000
40.07500	4523.00000
40.09000	4523.00000
40.10500	4521.00000
40.12000	4467.00000
40.13500	4506.00000
40.15000	4420.00000
40.16500	4427.00000
40.18000	4538.00000
40.19500	4661.00000
40.21000	4761.00000
40.22500	4841.00000
40.24000	4886.00000
40.25500	4985.00000
40.27000	5117.00000
40.28500	5338.00000
40.30000	5455.00000
40.31500	5362.00000
40.33000	5369.00000
40.34500	5375.00000
40.36000	5314.00000
40.37500	5189.00000
40.39000	4975.00000
40.40500	4984.00000
40.42000	4792.00000
40.43500	4702.00000
40.45000	4704.00000
40.46500	4656.00000
40.48000	4648.00000
40.49500	4621.00000
40.51000	4616.00000
40.52500	4533.00000
40.54000	4529.00000
40.55500	4457.00000
40.57000	4499.00000
40.58500	4404.00000
40.60000	4338.00000
40.61500	4244.00000
40.63000	4286.00000
40.64500	4225.00000
40.66000	4114.00000
40.67500	4133.00000
40.69000	4112.00000
40.70500	4104.00000
40.72000	4276.00000
40.73500	4073.00000
40.75000	4141.00000
40.76500	4209.00000
40.78000	4206.00000
40.79500	4301.00000
40.81000	4278.00000
40.82500	4188.00000
40.84000	4135.00000
40.85500	4176.00000
40.87000	4237.00000
40.88500	4320.00000
40.90000	4372.00000
40.91500	4443.00000
40.93000	4413.00000
40.94500	4449.00000
40.96000	4561.00000
40.97500	4537.00000
40.99000	4618.00000
41.00500	4588.00000
41.02000	4659.00000
41.03500	4688.00000
41.05000	4804.00000
41.06500	4941.00000
41.08000	4884.00000
41.09500	5042.00000
41.11000	5040.00000
41.12500	5032.00000
41.14000	4900.00000
41.15500	5159.00000
41.17000	5071.00000
41.18500	4961.00000
41.20000	5051.00000
41.21500	4899.00000
41.23000	4722.00000
41.24500	4560.00000
41.26000	4537.00000
41.27500	4499.00000
41.29000	4375.00000
41.30500	4292.00000
41.32000	4362.00000
41.33500	4252.00000
41.35000	4134.00000
41.36500	4127.00000
41.38000	4058.00000
41.39500	4044.00000
41.41000	4091.00000
41.42500	4046.00000
41.44000	4123.00000
41.45500	4101.00000
41.47000	4110.00000
41.48500	4061.00000
41.50000	4132.00000
41.51500	4218.00000
41.53000	4238.00000
41.54500	4376.00000
41.56000	4403.00000
41.57500	4517.00000
41.59000	4612.00000
41.60500	4598.00000
41.62000	4633.00000
41.63500	4754.00000
41.65000	4837.00000
41.66500	5020.00000
41.68000	5084.00000
41.69500	5207.00000
41.71000	5425.00000
41.72500	5451.00000
41.74000	5453.00000
41.75500	5504.00000
41.77000	5451.00000
41.78500	5400.00000
41.80000	5242.00000
41.81500	5126.00000
41.83000	4864.00000
41.84500	4673.00000
41.86000	4625.00000
41.87500	4544.00000
41.89000	4523.00000
41.90500	4324.00000
41.92000	4291.00000
41.93500	4133.00000
41.95000	4137.00000
41.96500	4111.00000
41.98000	3980.00000
41.99500	3938.00000
42.01000	3853.00000
42.02500	3897.00000
42.04000	3838.00000
42.05500	3744.00000
42.07000	3782.00000
42.08500	3782.00000
42.10000	3786.00000
42.11500	3779.00000
42.13000	3699.00000
42.14500	3642.00000
42.16000	3700.00000
42.17500	3690.00000
42.19000	3677.00000
42.20500	3658.00000
42.22000	3675.00000
42.23500	3703.00000
42.25000	3565.00000
42.26500	3744.00000
42.28000	3640.00000
42.29500	3613.00000
42.31000	3626.00000
42.32500	3652.00000
42.34000	3689.00000
42.35500	3649.00000
42.37000	3620.00000
42.38500	3664.00000
42.40000	3669.00000
42.41500	3727.00000
42.43000	3653.00000
42.44500	3681.00000
42.46000	3640.00000
42.47500	3668.00000
42.49000	3707.00000
42.50500	3639.00000
42.52000	3636.00000
42.53500	3586.00000
42.55000	3655.00000
42.56500	3698.00000
42.58000	3672.00000
42.59500	3773.00000
42.61000	3731.00000
42.62500	3684.00000
42.64000	3702.00000
42.65500	3743.00000
42.67000	3739.00000
42.68500	3649.00000
42.70000	3687.00000
42.71500	3787.00000
42.73000	3780.00000
42.74500	3795.00000
42.76000	3899.00000
42.77500	3875.00000
42.79000	3805.00000
42.80500	3732.00000
42.82000	3905.00000
42.83500	3779.00000
42.85000	3967.00000
42.86500	3944.00000
42.88000	3933.00000
42.89500	3901.00000
42.91000	3881.00000
42.92500	3836.00000
42.94000	3820.00000
42.95500	3702.00000
42.97000	3862.00000
42.98500	3800.00000
43.00000	3798.00000
43.01500	3783.00000
43.03000	3787.00000
43.04500	3674.00000
43.06000	3812.00000
43.07500	3792.00000
43.09000	3735.00000
43.10500	3754.00000
43.12000	3711.00000
43.13500	3744.00000
43.15000	3784.00000
43.16500	3661.00000
43.18000	3726.00000
43.19500	3774.00000
43.21000	3727.00000
43.22500	3785.00000
43.24000	3788.00000
43.25500	3822.00000
43.27000	3822.00000
43.28500	3848.00000
43.30000	3928.00000
43.31500	3863.00000
43.33000	3740.00000
43.34500	3958.00000
43.36000	3997.00000
43.37500	3979.00000
43.39000	3920.00000
43.40500	3981.00000
43.42000	4149.00000
43.43500	4259.00000
43.45000	4217.00000
43.46500	4194.00000
43.48000	4257.00000
43.49500	4181.00000
43.51000	4266.00000
43.52500	4373.00000
43.54000	4295.00000
43.55500	4423.00000
43.57000	4494.00000
43.58500	4508.00000
43.60000	4421.00000
43.61500	4442.00000
43.63000	4550.00000
43.64500	4606.00000
43.66000	4508.00000
43.67500	4580.00000
43.69000	4524.00000
43.70500	4531.00000
43.72000	4609.00000
43.73500	4503.00000
43.75000	4665.00000
43.76500	4605.00000
43.78000	4592.00000
43.79500	4549.00000
43.81000	4647.00000
43.82500	4556.00000
43.84000	4559.00000
43.85500	4622.00000
43.87000	4652.00000
43.88500	4726.00000
43.90000	4713.00000
43.91500	4745.00000
43.93000	4770.00000
43.94500	4756.00000
43.96000	4829.00000
43.97500	4886.00000
43.99000	4905.00000
44.00500	4853.00000
44.02000	4772.00000
44.03500	4604.00000
44.05000	4561.00000
44.06500	4489.00000
44.08000	4392.00000
44.09500	4348.00000
44.11000	4259.00000
44.12500	4199.00000
44.14000	4153.00000
44.15500	4168.00000
44.17000	4186.00000
44.18500	4124.00000
44.20000	4153.00000
44.21500	4143.00000
44.23000	4100.00000
44.24500	4136.00000
44.26000	4245.00000
44.27500	4241.00000
44.29000	4254.00000
44.30500	4334.00000
44.32000	4277.00000
44.33500	4408.00000
44.35000	4593.00000
44.36500	4675.00000
44.38000	4642.00000
44.39500	4600.00000
44.41000	4774.00000
44.42500	4698.00000
44.44000	4692.00000
44.45500	4676.00000
44.47000	4425.00000
44.48500	4463.00000
44.50000	4388.00000
44.51500	4378.00000
44.53000	4274.00000
44.54500	4318.00000
44.56000	4268.00000
44.57500	4374.00000
44.59000	4293.00000
44.60500	4306.00000
44.62000	4332.00000
44.63500	4370.00000
44.65000	4285.00000
44.66500	4311.00000
44.68000	4212.00000
44.69500	4277.00000
44.71000	4383.00000
44.72500	4421.00000
44.74000	4408.00000
44.75500	4412.00000
44.77000	4362.00000
44.78500	4300.00000
44.80000	4214.00000
44.81500	4180.00000
44.83000	4160.00000
44.84500	4148.00000
44.86000	4121.00000
44.87500	4004.00000
44.89000	3916.00000
44.90500	3898.00000
44.92000	3837.00000
44.93500	3834.00000
44.95000	3769.00000
44.96500	3845.00000
44.98000	3776.00000
44.99500	3859.00000
45.01000	3868.00000
45.02500	3797.00000
45.04000	3735.00000
45.05500	3872.00000
45.07000	3846.00000
45.08500	3858.00000
45.10000	3965.00000
45.11500	3991.00000
45.13000	3963.00000
45.14500	4054.00000
45.16000	4013.00000
45.17500	3951.00000
45.19000	3950.00000
45.20500	4004.00000
45.22000	4021.00000
45.23500	3971.00000
45.25000	3978.00000
45.26500	3881.00000
45.28000	3892.00000
45.29500	3836.00000
45.31000	3842.00000
45.32500	3830.00000
45.34000	3821.00000
45.35500	3802.00000
45.37000	3759.00000
45.38500	3824.00000
45.40000	3797.00000
45.41500	3752.00000
45.43000	3672.00000
45.44500	3813.00000
45.46000	3883.00000
45.47500	3764.00000
45.49000	3841.00000
45.50500	4007.00000
45.52000	3958.00000
45.53500	4037.00000
45.55000	4035.00000
45.56500	4084.00000
45.58000	4122.00000
45.59500	4228.00000
45.61000	4301.00000
45.62500	4369.00000
45.64000	4537.00000
45.65500	4611.00000
45.67000	4804.00000
45.68500	4925.00000
45.70000	5062.00000
45.71500	5210.00000
45.73000	5325.00000
45.74500	5409.00000
45.76000	5468.00000
45.77500	5548.00000
45.79000	5371.00000
45.80500	5323.00000
45.82000	5248.00000
45.83500	5227.00000
45.85000	5002.00000
45.86500	5042.00000
45.88000	4871.00000
45.89500	4790.00000
45.91000	4739.00000
45.92500	4623.00000
45.94000	4670.00000
45.95500	4706.00000
45.97000	4599.00000
45.98500	4688.00000
46.00000	4583.00000
46.01500	4489.00000
46.03000	4374.00000
46.04500	4357.00000
46.06000	4330.00000
46.07500	4340.00000
46.09000	4430.00000
46.10500	4282.00000
46.12000	4277.00000
46.13500	4168.00000
46.15000	4189.00000
46.16500	4114.00000
46.18000	4183.00000
46.19500	4115.00000
46.21000	4126.00000
46.22500	3926.00000
46.24000	3886.00000
46.25500	3914.00000
46.27000	3861.00000
46.28500	3875.00000
46.30000	3872.00000
46.31500	3725.00000
46.33000	3700.00000
46.34500	3829.00000
46.36000	3782.00000
46.37500	3709.00000
46.39000	3853.00000
46.40500	3746.00000
46.42000	3781.00000
46.43500	3857.00000
46.45000	3867.00000
46.46500	3825.00000
46.48000	3785.00000
46.49500	3813.00000
46.51000	3696.00000
46.52500	3827.00000
46.54000	3946.00000
46.55500	4020.00000
46.57000	4077.00000
46.58500	3996.00000
46.60000	4054.00000
46.61500	4065.00000
46.63000	4070.00000
46.64500	4125.00000
46.66000	4166.00000
46.67500	4105.00000
46.69000	4036.00000
46.70500	3954.00000
46.72000	3988.00000
46.73500	3950.00000
46.75000	4032.00000
46.76500	3902.00000
46.78000	3855.00000
46.79500	3751.00000
46.81000	3848.00000
46.82500	3773.00000
46.84000	3800.00000
46.85500	3757.00000
46.87000	3769.00000
46.88500	3822.00000
46.90000	3821.00000
46.91500	3951.00000
46.93000	3931.00000
46.94500	4089.00000
46.96000	4000.00000
46.97500	4031.00000
46.99000	4069.00000
47.00500	4246.00000
47.02000	4257.00000
47.03500	4228.00000
47.05000	4253.00000
47.06500	4258.00000
47.08000	4185.00000
47.09500	4205.00000
47.11000	4170.00000
47.12500	4093.00000
47.14000	4050.00000
47.15500	4095.00000
47.17000	4039.00000
47.18500	3953.00000
47.20000	3872.00000
47.21500	3837.00000
47.23000	3786.00000
47.24500	3764.00000
47.26000	3803.00000
47.27500	3718.00000
47.29000	3656.00000
47.30500	3676.00000
47.32000	3700.00000
47.33500	3685.00000
47.35000	3632.00000
47.36500	3661.00000
47.38000	3755.00000
47.39500	3723.00000
47.41000	3727.00000
47.42500	3696.00000
47.44000	3850.00000
47.45500	3760.00000
47.47000	3799.00000
47.48500	3777.00000
47.50000	3825.00000
47.51500	3835.00000
47.53000	3842.00000
47.54500	3728.00000
47.56000	3829.00000
47.57500	3838.00000
47.59000	3746.00000
47.60500	3684.00000
47.62000	3571.00000
47.63500	3647.00000
47.65000	3599.00000
47.66500	3647.00000
47.68000	3615.00000
47.69500	3615.00000
47.71000	3503.00000
47.72500	3569.00000
47.74000	3616.00000
47.75500	3610.00000
47.77000	3561.00000
47.78500	3536.00000
47.80000	3424.00000
47.81500	3495.00000
47.83000	3440.00000
47.84500	3516.00000
47.86000	3499.00000
47.87500	3492.00000
47.89000	3533.00000
47.90500	3502.00000
47.92000	3492.00000
47.93500	3537.00000
47.95000	3674.00000
47.96500	3611.00000
47.98000	3546.00000
47.99500	3580.00000
48.01000	3556.00000
48.02500	3400.00000
48.04000	3390.00000
48.05500	3344.00000
48.07000	3433.00000
48.08500	3396.00000
48.10000	3454.00000
48.11500	3480.00000
48.13000	3402.00000
48.14500	3516.00000
48.16000	3450.00000
48.17500	3438.00000
48.19000	3451.00000
48.20500	3471.00000
48.22000	3451.00000
48.23500	3578.00000
48.25000	3517.00000
48.26500	3463.00000
48.28000	3428.00000
48.29500	3498.00000
48.31000	3543.00000
48.32500	3631.00000
48.34000	3608.00000
48.35500	3603.00000
48.37000	3626.00000
48.38500	3584.00000
48.40000	3665.00000
48.41500	3747.00000
48.43000	3599.00000
48.44500	3644.00000
48.46000	3640.00000
48.47500	3816.00000
48.49000	3894.00000
48.50500	3820.00000
48.52000	3785.00000
48.53500	3846.00000
48.55000	3771.00000
48.56500	3849.00000
48.58000	3818.00000
48.59500	3755.00000
48.61000	3782.00000
48.62500	3667.00000
48.64000	3742.00000
48.65500	3762.00000
48.67000	3701.00000
48.68500	3681.00000
48.70000	3785.00000
48.71500	3738.00000
48.73000	3830.00000
48.74500	3727.00000
48.76000	3691.00000
48.77500	3705.00000
48.79000	3678.00000
48.80500	3659.00000
48.82000	3536.00000
48.83500	3628.00000
48.85000	3651.00000
48.86500	3554.00000
48.88000	3477.00000
48.89500	3491.00000
48.91000	3696.00000
48.92500	3585.00000
48.94000	3557.00000
48.95500	3518.00000
48.97000	3594.00000
48.98500	3608.00000
49.00000	3575.00000
49.01500	3656.00000
49.03000	3705.00000
49.04500	3720.00000
49.06000	3759.00000
49.07500	3809.00000
49.09000	3826.00000
49.10500	3873.00000
49.12000	3907.00000
49.13500	3899.00000
49.15000	3945.00000
49.16500	3877.00000
49.18000	3917.00000
49.19500	3933.00000
49.21000	3793.00000
49.22500	3842.00000
49.24000	3903.00000
49.25500	3881.00000
49.27000	3861.00000
49.28500	3779.00000
49.30000	3795.00000
49.31500	3776.00000
49.33000	3715.00000
49.34500	3652.00000
49.36000	3657.00000
49.37500	3749.00000
49.39000	3611.00000
49.40500	3694.00000
49.42000	3573.00000
49.43500	3544.00000
49.45000	3510.00000
49.46500	3507.00000
49.48000	3480.00000
49.49500	3534.00000
49.51000	3445.00000
49.52500	3399.00000
49.54000	3522.00000
49.55500	3523.00000
49.57000	3405.00000
49.58500	3533.00000
49.60000	3480.00000
49.61500	3488.00000
49.63000	3492.00000
49.64500	3545.00000
49.66000	3421.00000
49.67500	3459.00000
49.69000	3343.00000
49.70500	3314.00000
49.72000	3381.00000
49.73500	3328.00000
49.75000	3253.00000
49.76500	3300.00000
49.78000	3230.00000
49.79500	3258.00000
49.81000	3170.00000
49.82500	3145.00000
49.84000	3190.00000
49.85500	3207.00000
49.87000	3157.00000
49.88500	3185.00000
49.90000	3140.00000
49.91500	3258.00000
49.93000	3229.00000
49.94500	3169.00000
49.96000	3175.00000
49.97500	3250.00000
49.99000	3213.00000
50.00500	3142.00000
50.02000	3161.00000
50.03500	3205.00000
50.05000	3245.00000
50.06500	3258.00000
50.08000	3278.00000
50.09500	3287.00000
50.11000	3358.00000
50.12500	3270.00000
50.14000	3312.00000
50.15500	3324.00000
50.17000	3279.00000
50.18500	3357.00000
50.20000	3486.00000
50.21500	3432.00000
50.23000	3442.00000
50.24500	3466.00000
50.26000	3487.00000
50.27500	3476.00000
50.29000	3518.00000
50.30500	3573.00000
50.32000	3585.00000
50.33500	3512.00000
50.35000	3544.00000
50.36500	3514.00000
50.38000	3500.00000
50.39500	3538.00000
50.41000	3513.00000
50.42500	3436.00000
50.44000	3363.00000
50.45500	3408.00000
50.47000	3412.00000
50.48500	3273.00000
50.50000	3310.00000
50.51500	3452.00000
50.53000	3398.00000
50.54500	3348.00000
50.56000	3416.00000
50.57500	3397.00000
50.59000	3520.00000
50.60500	3510.00000
50.62000	3429.00000
50.63500	3565.00000
50.65000	3564.00000
50.66500	3575.00000
50.68000	3626.00000
50.69500	3663.00000
50.71000	3565.00000
50.72500	3612.00000
50.74000	3616.00000
50.75500	3535.00000
50.77000	3638.00000
50.78500	3609.00000
50.80000	3550.00000
50.81500	3535.00000
50.83000	3515.00000
50.84500	3493.00000
50.86000	3571.00000
50.87500	3527.00000
50.89000	3571.00000
50.90500	3500.00000
50.92000	3517.00000
50.93500	3520.00000
50.95000	3530.00000
50.96500	3644.00000
50.98000	3704.00000
50.99500	3639.00000
51.01000	3682.00000
51.02500	3804.00000
51.04000	3703.00000
51.05500	3645.00000
51.07000	3778.00000
51.08500	3714.00000
51.10000	3712.00000
51.11500	3853.00000
51.13000	3809.00000
51.14500	3855.00000
51.16000	3872.00000
51.17500	3764.00000
51.19000	3621.00000
51.20500	3714.00000
51.22000	3664.00000
51.23500	3648.00000
51.25000	3579.00000
51.26500	3521.00000
51.28000	3495.00000
51.29500	3477.00000
51.31000	3450.00000
51.32500	3426.00000
51.34000	3412.00000
51.35500	3293.00000
51.37000	3307.00000
51.38500	3386.00000
51.40000	3254.00000
51.41500	3166.00000
51.43000	3197.00000
51.44500	3240.00000
51.46000	3194.00000
51.47500	3245.00000
51.49000	3216.00000
51.50500	3241.00000
51.52000	3174.00000
51.53500	3295.00000
51.55000	3181.00000
51.56500	3199.00000
51.58000	3181.00000
51.59500	3247.00000
51.61000	3295.00000
51.62500	3271.00000
51.64000	3301.00000
51.65500	3426.00000
51.67000	3471.00000
51.68500	3426.00000
51.70000	3429.00000
51.71500	3409.00000
51.73000	3343.00000
51.74500	3389.00000
51.76000	3444.00000
51.77500	3506.00000
51.79000	3381.00000
51.80500	3428.00000
51.82000	3417.00000
51.83500	3375.00000
51.85000	3455.00000
51.86500	3466.00000
51.88000	3508.00000
51.89500	3478.00000
51.91000	3521.00000
51.92500	3514.00000
51.94000	3450.00000
51.95500	3482.00000
51.97000	3399.00000
51.98500	3561.00000
52.00000	3581.00000
52.01500	3574.00000
52.03000	3576.00000
52.04500	3512.00000
52.06000	3616.00000
52.07500	3606.00000
52.09000	3609.00000
52.10500	3778.00000
52.12000	3767.00000
52.13500	3777.00000
52.15000	3816.00000
52.16500	3961.00000
52.18000	3952.00000
52.19500	3937.00000
52.21000	3896.00000
52.22500	3899.00000
52.24000	3751.00000
52.25500	3793.00000
52.27000	3686.00000
52.28500	3672.00000
52.30000	3628.00000
52.31500	3692.00000
52.33000	3681.00000
52.34500	3632.00000
52.36000	3593.00000
52.37500	3518.00000
52.39000	3500.00000
52.40500	3550.00000
52.42000	3442.00000
52.43500	3539.00000
52.45000	3507.00000
52.46500	3444.00000
52.48000	3472.00000
52.49500	3451.00000
52.51000	3388.00000
52.52500	3451.00000
52.54000	3381.00000
52.55500	3391.00000
52.57000	3333.00000
52.58500	3265.00000
52.60000	3263.00000
52.61500	3251.00000
52.63000	3253.00000
52.64500	3222.00000
52.66000	3186.00000
52.67500	3280.00000
52.69000	3237.00000
52.70500	3197.00000
52.72000	3251.00000
52.73500	3296.00000
52.75000	3251.00000
52.76500	3210.00000
52.78000	3306.00000
52.79500	3308.00000
52.81000	3218.00000
52.82500	3293.00000
52.84000	3375.00000
52.85500	3339.00000
52.87000	3383.00000
52.88500	3444.00000
52.90000	3463.00000
52.91500	3468.00000
52.93000	3325.00000
52.94500	3439.00000
52.96000	3280.00000
52.97500	3404.00000
52.99000	3429.00000
53.00500	3353.00000
53.02000	3342.00000
53.03500	3275.00000
53.05000	3267.00000
53.06500	3295.00000
53.08000	3204.00000
53.09500	3220.00000
53.11000	3429.00000
53.12500	3230.00000
53.14000	3320.00000
53.15500	3423.00000
53.17000	3389.00000
53.18500	3366.00000
53.20000	3381.00000
53.21500	3329.00000
53.23000	3388.00000
53.24500	3334.00000
53.26000	3395.00000
53.27500	3419.00000
53.29000	3321.00000
53.30500	3341.00000
53.32000	3380.00000
53.33500	3489.00000
53.35000	3392.00000
53.36500	3545.00000
53.38000	3561.00000
53.39500	3497.00000
53.41000	3467.00000
53.42500	3368.00000
53.44000	3461.00000
53.45500	3356.00000
53.47000	3389.00000
53.48500	3360.00000
53.50000	3309.00000
53.51500	3280.00000
53.53000	3241.00000
53.54500	3153.00000
53.56000	3094.00000
53.57500	3034.00000
53.59000	3036.00000
53.60500	3056.00000
53.62000	3179.00000
53.63500	3025.00000
53.65000	2933.00000
53.66500	2922.00000
53.68000	2972.00000
53.69500	2950.00000
53.71000	2881.00000
53.72500	3027.00000
53.74000	3057.00000
53.75500	3045.00000
53.77000	2948.00000
53.78500	2970.00000
53.80000	2991.00000
53.81500	3045.00000
53.83000	3039.00000
53.84500	3109.00000
53.86000	3094.00000
53.87500	3064.00000
53.89000	3148.00000
53.90500	3148.00000
53.92000	3170.00000
53.93500	3175.00000
53.95000	3165.00000
53.96500	3094.00000
53.98000	3186.00000
53.99500	3174.00000
54.01000	3197.00000
54.02500	3115.00000
54.04000	3157.00000
54.05500	3207.00000
54.07000	3260.00000
54.08500	3260.00000
54.10000	3208.00000
54.11500	3208.00000
54.13000	3242.00000
54.14500	3084.00000
54.16000	3067.00000
54.17500	3156.00000
54.19000	3101.00000
54.20500	3082.00000
54.22000	3116.00000
54.23500	3065.00000
54.25000	3049.00000
54.26500	3093.00000
54.28000	3073.00000
54.29500	3080.00000
54.31000	3015.00000
54.32500	3109.00000
54.34000	3105.00000
54.35500	3027.00000
54.37000	3155.00000
54.38500	3195.00000
54.40000	3217.00000
54.41500	3190.00000
54.43000	3164.00000
54.44500	3161.00000
54.46000	3195.00000
54.47500	3267.00000
54.49000	3148.00000
54.50500	3156.00000
54.52000	3241.00000
54.53500	3212.00000
54.55000	3198.00000
54.56500	3189.00000
54.58000	3177.00000
54.59500	3162.00000
54.61000	3035.00000
54.62500	3154.00000
54.64000	3136.00000
54.65500	3131.00000
54.67000	3078.00000
54.68500	3225.00000
54.70000	3043.00000
54.71500	3198.00000
54.73000	3048.00000
54.74500	3077.00000
54.76000	3084.00000
54.77500	2984.00000
54.79000	3068.00000
54.80500	3081.00000
54.82000	3074.00000
54.83500	3078.00000
54.85000	3038.00000
54.86500	3143.00000
54.88000	3135.00000
54.89500	3073.00000
54.91000	3077.00000
54.92500	3058.00000
54.94000	2996.00000
54.95500	2984.00000
54.97000	3152.00000
54.98500	3102.00000
55.00000	2926.00000
55.01500	3011.00000
55.03000	3046.00000
55.04500	3081.00000
55.06000	3159.00000
55.07500	3069.00000
55.09000	3086.00000
55.10500	3064.00000
55.12000	3105.00000
55.13500	3079.00000
55.15000	3095.00000
55.16500	3061.00000
55.18000	2897.00000
55.19500	2942.00000
55.21000	2923.00000
55.22500	2975.00000
55.24000	2926.00000
55.25500	2875.00000
55.27000	2867.00000
55.28500	2872.00000
55.30000	2758.00000
55.31500	2846.00000
55.33000	2891.00000
55.34500	2891.00000
55.36000	2965.00000
55.37500	2904.00000
55.39000	2859.00000
55.40500	2848.00000
55.42000	2892.00000
55.43500	2860.00000
55.45000	2807.00000
55.46500	2890.00000
55.48000	2922.00000
55.49500	2975.00000
55.51000	2997.00000
55.52500	2867.00000
55.54000	2939.00000
55.55500	2923.00000
55.57000	2961.00000
55.58500	2963.00000
55.60000	2966.00000
55.61500	2919.00000
55.63000	2987.00000
55.64500	2940.00000
55.66000	2943.00000
55.67500	2983.00000
55.69000	2884.00000
55.70500	2957.00000
55.72000	2981.00000
55.73500	2988.00000
55.75000	2966.00000
55.76500	3075.00000
55.78000	3051.00000
55.79500	3006.00000
55.81000	2891.00000
55.82500	2997.00000
55.84000	2909.00000
55.85500	2946.00000
55.87000	2929.00000
55.88500	2973.00000
55.90000	2876.00000
55.91500	2925.00000
55.93000	2943.00000
55.94500	2865.00000
55.96000	2904.00000
55.97500	2930.00000
55.99000	2863.00000
56.00500	2842.00000
56.02000	2927.00000
56.03500	2884.00000
56.05000	2884.00000
56.06500	2901.00000
56.08000	2915.00000
56.09500	3016.00000
56.11000	3031.00000
56.12500	3088.00000
56.14000	3069.00000
56.15500	3054.00000
56.17000	3051.00000
56.18500	3090.00000
56.20000	3116.00000
56.21500	3060.00000
56.23000	3120.00000
56.24500	3104.00000
56.26000	3125.00000
56.27500	3170.00000
56.29000	3149.00000
56.30500	3135.00000
56.32000	3111.00000
56.33500	3206.00000
56.35000	3163.00000
56.36500	3164.00000
56.38000	3008.00000
56.39500	3152.00000
56.41000	3091.00000
56.42500	3118.00000
56.44000	3081.00000
56.45500	3056.00000
56.47000	3023.00000
56.48500	2943.00000
56.50000	2939.00000
56.51500	2944.00000
56.53000	2972.00000
56.54500	2943.00000
56.56000	2956.00000
56.57500	3016.00000
56.59000	3018.00000
56.60500	2960.00000
56.62000	2938.00000
56.63500	2967.00000
56.65000	3058.00000
56.66500	2989.00000
56.68000	3047.00000
56.69500	3050.00000
56.71000	2970.00000
56.72500	2949.00000
56.74000	2997.00000
56.75500	3075.00000
56.77000	3082.00000
56.78500	3006.00000
56.80000	3001.00000
56.81500	2992.00000
56.83000	2997.00000
56.84500	2974.00000
56.86000	2981.00000
56.87500	2999.00000
56.89000	3017.00000
56.90500	2863.00000
56.92000	2966.00000
56.93500	2967.00000
56.95000	2987.00000
56.96500	3027.00000
56.98000	2918.00000
56.99500	2897.00000
57.01000	2861.00000
57.02500	2914.00000
57.04000	2874.00000
57.05500	2877.00000
57.07000	2812.00000
57.08500	2858.00000
57.10000	2816.00000
57.11500	2863.00000
57.13000	2948.00000
57.14500	2796.00000
57.16000	2863.00000
57.17500	2853.00000
57.19000	2769.00000
57.20500	2849.00000
57.22000	2841.00000
57.23500	2801.00000
57.25000	2871.00000
57.26500	2855.00000
57.28000	2837.00000
57.29500	2839.00000
57.31000	2786.00000
57.32500	2871.00000
57.34000	2867.00000
57.35500	2812.00000
57.37000	2910.00000
57.38500	2941.00000
57.40000	2873.00000
57.41500	2814.00000
57.43000	2863.00000
57.44500	2862.00000
57.46000	2838.00000
57.47500	2811.00000
57.49000	2794.00000
57.50500	2855.00000
57.52000	2828.00000
57.53500	2839.00000
57.55000	2833.00000
57.56500	2983.00000
57.58000	2948.00000
57.59500	2918.00000
57.61000	2862.00000
57.62500	2874.00000
57.64000	2810.00000
57.65500	2780.00000
57.67000	2782.00000
57.68500	2798.00000
57.70000	2788.00000
57.71500	2796.00000
57.73000	2799.00000
57.74500	2792.00000
57.76000	2789.00000
57.77500	2861.00000
57.79000	2862.00000
57.80500	2846.00000
57.82000	2811.00000
57.83500	2813.00000
57.85000	2785.00000
57.86500	2767.00000
57.88000	2747.00000
57.89500	2891.00000
57.91000	2880.00000
57.92500	2914.00000
57.94000	2798.00000
57.95500	2779.00000
57.97000	2782.00000
57.98500	2773.00000
58.00000	2851.00000
58.01500	2783.00000
58.03000	2782.00000
58.04500	2827.00000
58.06000	2731.00000
58.07500	2755.00000
58.09000	2812.00000
58.10500	2895.00000
58.12000	2818.00000
58.13500	2815.00000
58.15000	2829.00000
58.16500	2855.00000
58.18000	2850.00000
58.19500	2869.00000
58.21000	2785.00000
58.22500	2794.00000
58.24000	2935.00000
58.25500	2935.00000
58.27000	2902.00000
58.28500	2923.00000
58.30000	2979.00000
58.31500	2959.00000
58.33000	2930.00000
58.34500	2956.00000
58.36000	2981.00000
58.37500	2983.00000
58.39000	2935.00000
58.40500	2940.00000
58.42000	3010.00000
58.43500	3089.00000
58.45000	3092.00000
58.46500	3132.00000
58.48000	3089.00000
58.49500	3068.00000
58.51000	3092.00000
58.52500	3166.00000
58.54000	3122.00000
58.55500	3105.00000
58.57000	3115.00000
58.58500	3048.00000
58.60000	3045.00000
58.61500	3008.00000
58.63000	3032.00000
58.64500	3016.00000
58.66000	2971.00000
58.67500	2993.00000
58.69000	2951.00000
58.70500	2906.00000
58.72000	2959.00000
58.73500	2913.00000
58.75000	2864.00000
58.76500	2876.00000
58.78000	2878.00000
58.79500	2890.00000
58.81000	2818.00000
58.82500	2736.00000
58.84000	2781.00000
58.85500	2791.00000
58.87000	2778.00000
58.88500	2750.00000
58.90000	2717.00000
58.91500	2729.00000
58.93000	2736.00000
58.94500	2772.00000
58.96000	2816.00000
58.97500	2708.00000
58.99000	2780.00000
59.00500	2793.00000
59.02000	2814.00000
59.03500	2819.00000
59.05000	2751.00000
59.06500	2700.00000
59.08000	2708.00000
59.09500	2750.00000
59.11000	2726.00000
59.12500	2759.00000
59.14000	2808.00000
59.15500	2792.00000
59.17000	2818.00000
59.18500	2701.00000
59.20000	2761.00000
59.21500	2702.00000
59.23000	2667.00000
59.24500	2652.00000
59.26000	2728.00000
59.27500	2727.00000
59.29000	2735.00000
59.30500	2749.00000
59.32000	2719.00000
59.33500	2689.00000
59.35000	2744.00000
59.36500	2728.00000
59.38000	2648.00000
59.39500	2664.00000
59.41000	2654.00000
59.42500	2768.00000
59.44000	2780.00000
59.45500	2818.00000
59.47000	2715.00000
59.48500	2758.00000
59.50000	2676.00000
59.51500	2739.00000
59.53000	2749.00000
59.54500	2762.00000
59.56000	2798.00000
59.57500	2739.00000
59.59000	2723.00000
59.60500	2794.00000
59.62000	2804.00000
59.63500	2810.00000
59.65000	2841.00000
59.66500	2761.00000
59.68000	2786.00000
59.69500	2821.00000
59.71000	2832.00000
59.72500	2785.00000
59.74000	2859.00000
59.75500	2813.00000
59.77000	2756.00000
59.78500	2736.00000
59.80000	2750.00000
59.81500	2841.00000
59.83000	2817.00000
59.84500	2862.00000
59.86000	2788.00000
59.87500	2879.00000
59.89000	2904.00000
59.90500	2818.00000
59.92000	2813.00000
59.93500	2765.00000
59.95000	2788.00000
59.96500	2883.00000
59.98000	2767.00000
59.99500	2849.00000
