5.06691	655.00000
5.09291	650.00000
5.11891	645.00000
5.14491	650.00000
5.17091	640.00000
5.19691	630.00000
5.22291	640.00000
5.24891	645.00000
5.27491	650.00000
5.30091	620.00000
5.32691	630.00000
5.35290	630.00000
5.37890	625.00000
5.40490	635.00000
5.43090	625.00000
5.45690	630.00000
5.48290	625.00000
5.50890	625.00000
5.53490	620.00000
5.56090	635.00000
5.58690	640.00000
5.61290	635.00000
5.63890	630.00000
5.66490	635.00000
5.69090	615.00000
5.71690	630.00000
5.74290	635.00000
5.76890	625.00000
5.79490	635.00000
5.82090	630.00000
5.84689	625.00000
5.87289	615.00000
5.89889	605.00000
5.92489	620.00000
5.95089	615.00000
5.97689	620.00000
6.00289	630.00000
6.02889	635.00000
6.05489	640.00000
6.08089	640.00000
6.10689	635.00000
6.13289	635.00000
6.15889	640.00000
6.18489	660.00000
6.21089	676.00000
6.23689	671.00000
6.26288	676.00000
6.28888	692.00000
6.31488	697.00000
6.34088	708.00000
6.36688	740.00000
6.39288	751.00000
6.41888	784.00000
6.44488	835.00000
6.47088	876.00000
6.49688	961.00000
6.52288	1076.00000
6.54888	1190.00000
6.57488	1391.00000
6.60088	1608.00000
6.62688	1884.00000
6.65288	2294.00000
6.67887	2841.00000
6.70488	3493.00000
6.73087	4173.00000
6.75687	4761.00000
6.78287	5565.00000
6.80887	6956.00000
6.83487	8724.00000
6.86087	9880.00000
6.88687	9332.00000
6.91287	6740.00000
6.93887	3856.00000
6.96487	2362.00000
6.99087	1689.00000
7.01687	1347.00000
7.04287	1156.00000
7.06887	1063.00000
7.09487	1011.00000
7.12086	1011.00000
7.14686	1011.00000
7.17286	1043.00000
7.19886	1136.00000
7.22486	1246.00000
7.25086	1391.00000
7.27686	1592.00000
7.30286	1927.00000
7.32886	2411.00000
7.35486	3047.00000
7.38086	4007.00000
7.40686	5358.00000
7.43286	5776.00000
7.45886	4330.00000
7.48486	3272.00000
7.51086	3306.00000
7.53685	3660.00000
7.56285	3528.00000
7.58885	2970.00000
7.61485	2052.00000
7.64085	1444.00000
7.66685	1176.00000
7.69285	1043.00000
7.71885	1056.00000
7.74485	1102.00000
7.77085	1204.00000
7.79685	1274.00000
7.82285	1211.00000
7.84885	1011.00000
7.87485	961.00000
7.90085	999.00000
7.92684	1050.00000
7.95284	1129.00000
7.97884	1225.00000
8.00484	1399.00000
8.03084	1537.00000
8.05684	1482.00000
8.08284	1190.00000
8.10884	900.00000
8.13484	751.00000
8.16084	681.00000
8.18684	666.00000
8.21284	625.00000
8.23883	640.00000
8.26483	605.00000
8.29083	610.00000
8.31683	595.00000
8.34283	581.00000
8.36883	576.00000
8.39483	581.00000
8.42083	576.00000
8.44683	571.00000
8.47283	576.00000
8.49883	571.00000
8.52483	576.00000
8.55083	571.00000
8.57683	562.00000
8.60283	581.00000
8.62882	571.00000
8.65483	562.00000
8.68082	557.00000
8.70682	552.00000
8.73282	557.00000
8.75882	562.00000
8.78482	548.00000
8.81082	543.00000
8.83682	543.00000
8.86282	538.00000
8.88882	548.00000
8.91482	543.00000
8.94082	538.00000
8.96682	538.00000
8.99281	548.00000
9.01881	552.00000
9.04481	557.00000
9.07081	543.00000
9.09681	543.00000
9.12281	552.00000
9.14881	543.00000
9.17481	543.00000
9.20081	534.00000
9.22681	524.00000
9.25281	529.00000
9.27881	534.00000
9.30481	534.00000
9.33080	524.00000
9.35680	534.00000
9.38280	557.00000
9.40880	548.00000
9.43480	543.00000
9.46080	543.00000
9.48680	548.00000
9.51280	543.00000
9.53880	548.00000
9.56480	543.00000
9.59080	538.00000
9.61680	552.00000
9.64279	566.00000
9.66880	586.00000
9.69479	590.00000
9.72080	610.00000
9.74679	610.00000
9.77279	600.00000
9.79879	566.00000
9.82479	538.00000
9.85079	538.00000
9.87679	534.00000
9.90279	562.00000
9.92879	557.00000
9.95479	538.00000
9.98078	538.00000
10.00678	557.00000
10.03278	557.00000
10.05878	571.00000
10.08478	566.00000
10.11078	600.00000
10.13678	605.00000
10.16278	635.00000
10.18878	615.00000
10.21478	586.00000
10.24078	552.00000
10.26678	566.00000
10.29278	576.00000
10.31878	600.00000
10.34477	630.00000
10.37077	666.00000
10.39677	708.00000
10.42277	795.00000
10.44877	888.00000
10.47477	936.00000
10.50077	812.00000
10.52677	681.00000
10.55277	615.00000
10.57877	576.00000
10.60477	566.00000
10.63077	529.00000
10.65677	538.00000
10.68276	534.00000
10.70876	529.00000
10.73476	529.00000
10.76076	520.00000
10.78676	534.00000
10.81276	538.00000
10.83876	534.00000
10.86476	515.00000
10.89076	520.00000
10.91676	538.00000
10.94276	511.00000
10.96875	524.00000
10.99475	543.00000
11.02075	538.00000
11.04675	543.00000
11.07275	548.00000
11.09875	552.00000
11.12475	571.00000
11.15075	557.00000
11.17675	529.00000
11.20275	524.00000
11.22874	538.00000
11.25474	538.00000
11.28074	538.00000
11.30674	538.00000
11.33274	538.00000
11.35874	529.00000
11.38474	543.00000
11.41074	543.00000
11.43674	534.00000
11.46274	529.00000
11.48874	534.00000
11.51474	529.00000
11.54074	520.00000
11.56673	515.00000
11.59273	515.00000
11.61873	524.00000
11.64473	534.00000
11.67073	538.00000
11.69673	534.00000
11.72273	524.00000
11.74873	534.00000
11.77473	529.00000
11.80073	515.00000
11.82673	524.00000
11.85273	538.00000
11.87872	534.00000
11.90472	543.00000
11.93072	543.00000
11.95672	552.00000
11.98272	552.00000
12.00872	548.00000
12.03472	548.00000
12.06072	543.00000
12.08672	538.00000
12.11272	543.00000
12.13872	543.00000
12.16471	538.00000
12.19071	543.00000
12.21672	557.00000
12.24271	566.00000
12.26871	557.00000
12.29471	552.00000
12.32071	562.00000
12.34671	571.00000
12.37271	562.00000
12.39870	576.00000
12.42471	600.00000
12.45070	615.00000
12.47670	620.00000
12.50270	660.00000
12.52870	718.00000
12.55470	778.00000
12.58070	930.00000
12.60670	1116.00000
12.63270	1332.00000
12.65870	1376.00000
12.68470	1129.00000
12.71069	876.00000
12.73669	740.00000
12.76269	676.00000
12.78869	620.00000
12.81469	610.00000
12.84069	610.00000
12.86669	595.00000
12.89269	562.00000
12.91869	581.00000
12.94469	571.00000
12.97069	590.00000
12.99669	571.00000
13.02268	552.00000
13.04868	576.00000
13.07468	562.00000
13.10068	571.00000
13.12668	600.00000
13.15268	586.00000
13.17868	595.00000
13.20468	581.00000
13.23067	590.00000
13.25667	562.00000
13.28267	576.00000
13.30867	566.00000
13.33467	576.00000
13.36067	581.00000
13.38667	562.00000
13.41267	586.00000
13.43867	595.00000
13.46467	586.00000
13.49066	595.00000
13.51666	605.00000
13.54266	595.00000
13.56866	610.00000
13.59466	630.00000
13.62066	635.00000
13.64666	671.00000
13.67266	676.00000
13.69866	686.00000
13.72466	708.00000
13.75066	686.00000
13.77666	655.00000
13.80265	635.00000
13.82865	630.00000
13.85465	615.00000
13.88065	610.00000
13.90665	610.00000
13.93265	605.00000
13.95865	600.00000
13.98465	605.00000
14.01065	595.00000
14.03665	590.00000
14.06264	595.00000
14.08864	615.00000
14.11464	620.00000
14.14064	615.00000
14.16664	620.00000
14.19264	625.00000
14.21864	610.00000
14.24464	605.00000
14.27064	610.00000
14.29664	600.00000
14.32264	605.00000
14.34863	610.00000
14.37463	610.00000
14.40063	615.00000
14.42663	615.00000
14.45263	625.00000
14.47863	630.00000
14.50463	615.00000
14.53063	640.00000
14.55663	655.00000
14.58262	655.00000
14.60862	655.00000
14.63462	671.00000
14.66062	686.00000
14.68662	729.00000
14.71262	773.00000
14.73862	812.00000
14.76462	912.00000
14.79062	1037.00000
14.81662	1204.00000
14.84262	1253.00000
14.86861	1149.00000
14.89461	1030.00000
14.92061	942.00000
14.94661	949.00000
14.97261	1018.00000
14.99861	1122.00000
15.02461	1253.00000
15.05061	1354.00000
15.07661	1332.00000
15.10260	1303.00000
15.12860	1282.00000
15.15460	1246.00000
15.18060	1156.00000
15.20660	1116.00000
15.23260	1109.00000
15.25860	1176.00000
15.28460	1289.00000
15.31059	1459.00000
15.33660	1739.00000
15.36259	2190.00000
15.38859	2809.00000
15.41459	3528.00000
15.44059	4449.00000
15.46659	5127.00000
15.49259	4970.00000
15.51859	4134.00000
15.54458	3136.00000
15.57058	2294.00000
15.59658	1772.00000
15.62258	1452.00000
15.64858	1253.00000
15.67458	1089.00000
15.70058	1018.00000
15.72658	986.00000
15.75258	942.00000
15.77858	949.00000
15.80458	967.00000
15.83057	973.00000
15.85657	1005.00000
15.88257	1037.00000
15.90857	1005.00000
15.93457	936.00000
15.96057	864.00000
15.98657	812.00000
16.01257	795.00000
16.03856	784.00000
16.06457	778.00000
16.09056	767.00000
16.11656	790.00000
16.14256	801.00000
16.16856	807.00000
16.19456	807.00000
16.22056	778.00000
16.24656	756.00000
16.27255	745.00000
16.29855	751.00000
16.32455	784.00000
16.35055	801.00000
16.37655	841.00000
16.40255	888.00000
16.42855	967.00000
16.45455	1037.00000
16.48054	1136.00000
16.50654	1218.00000
16.53254	1253.00000
16.55854	1225.00000
16.58454	1142.00000
16.61054	1076.00000
16.63654	1030.00000
16.66254	1030.00000
16.68854	1089.00000
16.71454	1176.00000
16.74053	1289.00000
16.76653	1391.00000
16.79253	1429.00000
16.81853	1414.00000
16.84453	1362.00000
16.87053	1253.00000
16.89653	1149.00000
16.92253	1129.00000
16.94852	1149.00000
16.97452	1218.00000
17.00052	1376.00000
17.02652	1544.00000
17.05252	1648.00000
17.07852	1600.00000
17.10452	1406.00000
17.13052	1211.00000
17.15651	1063.00000
17.18252	967.00000
17.20851	912.00000
17.23451	900.00000
17.26051	882.00000
17.28651	829.00000
17.31251	807.00000
17.33851	801.00000
17.36451	784.00000
17.39051	773.00000
17.41651	767.00000
17.44250	784.00000
17.46850	778.00000
17.49450	767.00000
17.52050	778.00000
17.54650	795.00000
17.57250	807.00000
17.59849	835.00000
17.62449	847.00000
17.65049	894.00000
17.67649	949.00000
17.70249	1037.00000
17.72849	1082.00000
17.75449	1149.00000
17.78049	1129.00000
17.80649	1170.00000
17.83248	1253.00000
17.85848	1362.00000
17.88448	1436.00000
17.91048	1521.00000
17.93648	1436.00000
17.96248	1369.00000
17.98848	1260.00000
18.01448	1176.00000
18.04048	1109.00000
18.06647	1043.00000
18.09247	1050.00000
18.11847	1069.00000
18.14447	1116.00000
18.17047	1204.00000
18.19647	1325.00000
18.22247	1544.00000
18.24846	1781.00000
18.27446	2125.00000
18.30046	2352.00000
18.32646	2401.00000
18.35246	2200.00000
18.37846	1927.00000
18.40446	1697.00000
18.43045	1584.00000
18.45645	1576.00000
18.48245	1600.00000
18.50845	1576.00000
18.53445	1537.00000
18.56045	1513.00000
18.58645	1513.00000
18.61245	1513.00000
18.63845	1640.00000
18.66445	1789.00000
18.69044	1936.00000
18.71644	2052.00000
18.74244	2025.00000
18.76844	1910.00000
18.79444	1764.00000
18.82044	1600.00000
18.84644	1459.00000
18.87244	1303.00000
18.89843	1170.00000
18.92443	1089.00000
18.95043	1018.00000
18.97643	973.00000
19.00243	955.00000
19.02842	942.00000
19.05443	918.00000
19.08043	906.00000
19.10643	930.00000
19.13242	942.00000
19.15842	973.00000
19.18442	1024.00000
19.21042	1116.00000
19.23642	1253.00000
19.26242	1444.00000
19.28842	1731.00000
19.31442	2016.00000
19.34041	2107.00000
19.36641	1962.00000
19.39241	1714.00000
19.41841	1537.00000
19.44441	1429.00000
19.47041	1362.00000
19.49641	1332.00000
19.52241	1310.00000
19.54840	1274.00000
19.57440	1218.00000
19.60040	1170.00000
19.62640	1176.00000
19.65240	1183.00000
19.67840	1156.00000
19.70440	1142.00000
19.73039	1096.00000
19.75639	1030.00000
19.78239	992.00000
19.80839	973.00000
19.83439	973.00000
19.86039	973.00000
19.88639	961.00000
19.91239	1005.00000
19.93839	1050.00000
19.96438	1122.00000
19.99038	1218.00000
20.01638	1376.00000
20.04238	1459.00000
20.06838	1429.00000
20.09438	1369.00000
20.12038	1332.00000
20.14637	1391.00000
20.17237	1552.00000
20.19837	1815.00000
20.22437	2153.00000
20.25037	2540.00000
20.27637	2642.00000
20.30237	2421.00000
20.32836	2172.00000
20.35436	1927.00000
20.38036	1789.00000
20.40636	1689.00000
20.43236	1665.00000
20.45836	1697.00000
20.48436	1789.00000
20.51036	1910.00000
20.53635	2070.00000
20.56235	2079.00000
20.58835	1980.00000
20.61435	1840.00000
20.64035	1681.00000
20.66635	1568.00000
20.69235	1475.00000
20.71835	1414.00000
20.74434	1391.00000
20.77034	1421.00000
20.79634	1521.00000
20.82234	1640.00000
20.84834	1832.00000
20.87434	2116.00000
20.90033	2352.00000
20.92633	2581.00000
20.95233	2725.00000
20.97833	2663.00000
21.00433	2372.00000
21.03033	2125.00000
21.05633	1849.00000
21.08233	1600.00000
21.10832	1467.00000
21.13432	1376.00000
21.16032	1362.00000
21.18632	1318.00000
21.21232	1310.00000
21.23832	1303.00000
21.26431	1347.00000
21.29031	1406.00000
21.31631	1498.00000
21.34231	1560.00000
21.36831	1640.00000
21.39431	1656.00000
21.42031	1600.00000
21.44631	1498.00000
21.47230	1414.00000
21.49830	1318.00000
21.52430	1225.00000
21.55030	1149.00000
21.57630	1136.00000
21.60230	1122.00000
21.62829	1109.00000
21.65429	1122.00000
21.68029	1142.00000
21.70629	1149.00000
21.73229	1176.00000
21.75829	1225.00000
21.78429	1310.00000
21.81029	1399.00000
21.83628	1537.00000
21.86228	1714.00000
21.88828	1858.00000
21.91428	1962.00000
21.94028	2070.00000
21.96628	2107.00000
21.99227	2116.00000
22.01827	2209.00000
22.04427	2285.00000
22.07027	2228.00000
22.09627	2061.00000
22.12227	1875.00000
22.14827	1706.00000
22.17427	1560.00000
22.20027	1467.00000
22.22627	1429.00000
22.25227	1421.00000
22.27826	1452.00000
22.30426	1505.00000
22.33026	1505.00000
22.35626	1444.00000
22.38226	1376.00000
22.40826	1289.00000
22.43425	1274.00000
22.46025	1267.00000
22.48625	1260.00000
22.51225	1274.00000
22.53825	1267.00000
22.56424	1296.00000
22.59025	1310.00000
22.61624	1318.00000
22.64224	1362.00000
22.66824	1384.00000
22.69423	1369.00000
22.72024	1384.00000
22.74623	1459.00000
22.77224	1529.00000
22.79823	1592.00000
22.82423	1632.00000
22.85023	1656.00000
22.87623	1632.00000
22.90223	1482.00000
22.92823	1384.00000
22.95422	1274.00000
22.98022	1170.00000
23.00622	1142.00000
23.03222	1142.00000
23.05822	1122.00000
23.08422	1122.00000
23.11022	1096.00000
23.13621	1063.00000
23.16221	1063.00000
23.18821	1005.00000
23.21421	1005.00000
23.24021	980.00000
23.26620	980.00000
23.29221	986.00000
23.31820	967.00000
23.34420	961.00000
23.37020	955.00000
23.39620	961.00000
23.42220	936.00000
23.44820	980.00000
23.47420	942.00000
23.50019	930.00000
23.52619	955.00000
23.55219	949.00000
23.57819	973.00000
23.60419	961.00000
23.63018	992.00000
23.65619	1005.00000
23.68218	1037.00000
23.70818	1063.00000
23.73418	1089.00000
23.76018	1163.00000
23.78618	1218.00000
23.81218	1267.00000
23.83817	1282.00000
23.86417	1274.00000
23.89017	1239.00000
23.91617	1204.00000
23.94217	1142.00000
23.96816	1096.00000
23.99416	1069.00000
24.02016	1030.00000
24.04616	1024.00000
24.07216	1024.00000
24.09816	1024.00000
24.12416	1037.00000
24.15016	1050.00000
24.17616	1043.00000
24.20215	1056.00000
24.22815	1043.00000
24.25415	1030.00000
24.28015	1024.00000
24.30615	992.00000
24.33215	980.00000
24.35815	973.00000
24.38414	955.00000
24.41014	942.00000
24.43614	949.00000
24.46214	961.00000
24.48814	967.00000
24.51413	980.00000
24.54013	986.00000
24.56613	992.00000
24.59213	992.00000
24.61813	986.00000
24.64413	980.00000
24.67013	986.00000
24.69612	986.00000
24.72212	980.00000
24.74812	967.00000
24.77412	949.00000
24.80012	942.00000
24.82612	942.00000
24.85212	942.00000
24.87812	936.00000
24.90411	924.00000
24.93011	930.00000
24.95611	936.00000
24.98211	936.00000
25.00811	942.00000
25.03410	949.00000
25.06010	955.00000
25.08610	955.00000
25.11210	967.00000
25.13810	980.00000
25.16409	1005.00000
25.19009	1024.00000
25.21609	1063.00000
25.24209	1082.00000
25.26809	1136.00000
25.29409	1190.00000
25.32009	1225.00000
25.34608	1325.00000
25.37208	1436.00000
25.39808	1521.00000
25.42408	1498.00000
25.45008	1421.00000
25.47608	1347.00000
25.50208	1282.00000
25.52807	1246.00000
25.55407	1260.00000
25.58007	1296.00000
25.60607	1347.00000
25.63207	1406.00000
25.65807	1452.00000
25.68407	1475.00000
25.71006	1467.00000
25.73606	1467.00000
25.76206	1429.00000
25.78806	1459.00000
25.81405	1467.00000
25.84005	1537.00000
25.86605	1592.00000
25.89205	1632.00000
25.91805	1576.00000
25.94405	1544.00000
25.97004	1513.00000
25.99604	1452.00000
26.02204	1414.00000
26.04804	1467.00000
26.07404	1482.00000
26.10004	1475.00000
26.12604	1482.00000
26.15204	1490.00000
26.17803	1444.00000
26.20403	1414.00000
26.23003	1332.00000
26.25603	1325.00000
26.28203	1310.00000
26.30803	1310.00000
26.33402	1310.00000
26.36002	1318.00000
26.38602	1376.00000
26.41202	1406.00000
26.43802	1452.00000
26.46401	1513.00000
26.49001	1560.00000
26.51601	1490.00000
26.54201	1406.00000
26.56801	1289.00000
26.59401	1190.00000
26.62001	1122.00000
26.64600	1109.00000
26.67200	1082.00000
26.69800	1063.00000
26.72400	1056.00000
26.75000	1063.00000
26.77600	1076.00000
26.80199	1096.00000
26.82799	1149.00000
26.85399	1176.00000
26.87999	1197.00000
26.90599	1204.00000
26.93199	1204.00000
26.95798	1218.00000
26.98398	1274.00000
27.00998	1354.00000
27.03598	1429.00000
27.06198	1529.00000
27.08798	1624.00000
27.11398	1648.00000
27.13997	1648.00000
27.16597	1616.00000
27.19197	1544.00000
27.21797	1452.00000
27.24397	1369.00000
27.26997	1340.00000
27.29596	1310.00000
27.32196	1260.00000
27.34796	1225.00000
27.37396	1225.00000
27.39996	1260.00000
27.42595	1267.00000
27.45195	1253.00000
27.47796	1239.00000
27.50395	1204.00000
27.52995	1163.00000
27.55595	1136.00000
27.58195	1089.00000
27.60794	1043.00000
27.63394	1011.00000
27.65994	999.00000
27.68594	986.00000
27.71194	980.00000
27.73793	986.00000
27.76393	973.00000
27.78993	961.00000
27.81593	961.00000
27.84193	955.00000
27.86793	967.00000
27.89392	955.00000
27.91992	973.00000
27.94592	967.00000
27.97192	961.00000
27.99791	980.00000
28.02392	992.00000
28.04991	980.00000
28.07591	992.00000
28.10191	980.00000
28.12791	999.00000
28.15391	1043.00000
28.17991	1063.00000
28.20590	1109.00000
28.23190	1163.00000
28.25790	1239.00000
28.28390	1246.00000
28.30990	1376.00000
28.33589	1459.00000
28.36190	1513.00000
28.38789	1521.00000
28.41389	1521.00000
28.43989	1475.00000
28.46589	1414.00000
28.49189	1310.00000
28.51788	1218.00000
28.54388	1170.00000
28.56988	1136.00000
28.59588	1122.00000
28.62188	1116.00000
28.64787	1149.00000
28.67387	1136.00000
28.69987	1102.00000
28.72587	1069.00000
28.75187	1076.00000
28.77787	1069.00000
28.80386	1037.00000
28.82986	1037.00000
28.85586	1063.00000
28.88186	1076.00000
28.90786	1136.00000
28.93385	1149.00000
28.95985	1149.00000
28.98585	1122.00000
29.01185	1102.00000
29.03785	1050.00000
29.06385	1030.00000
29.08985	1011.00000
29.11585	986.00000
29.14184	961.00000
29.16784	967.00000
29.19384	961.00000
29.21984	936.00000
29.24584	955.00000
29.27183	936.00000
29.29783	936.00000
29.32383	930.00000
29.34983	924.00000
29.37583	936.00000
29.40183	955.00000
29.42782	980.00000
29.45382	1005.00000
29.47982	1018.00000
29.50582	1011.00000
29.53182	1037.00000
29.55781	1050.00000
29.58381	1076.00000
29.60981	1109.00000
29.63581	1116.00000
29.66181	1102.00000
29.68781	1102.00000
29.71380	1056.00000
29.73980	1030.00000
29.76580	1037.00000
29.79180	1043.00000
29.81780	1063.00000
29.84379	1109.00000
29.86979	1116.00000
29.89579	1089.00000
29.92179	1069.00000
29.94779	1050.00000
29.97378	1011.00000
29.99978	986.00000
30.02578	980.00000
30.05178	961.00000
30.07778	967.00000
30.10378	986.00000
30.12977	1030.00000
30.15577	1076.00000
30.18177	1116.00000
30.20777	1170.00000
30.23377	1218.00000
30.25977	1253.00000
30.28576	1303.00000
30.31176	1325.00000
30.33776	1303.00000
30.36376	1239.00000
30.38976	1197.00000
30.41575	1176.00000
30.44175	1142.00000
30.46775	1109.00000
30.49375	1076.00000
30.51975	1076.00000
30.54574	1096.00000
30.57174	1102.00000
30.59774	1069.00000
30.62374	1043.00000
30.64974	1030.00000
30.67574	986.00000
30.70173	980.00000
30.72773	942.00000
30.75373	924.00000
30.77973	930.00000
30.80573	930.00000
30.83173	924.00000
30.85772	942.00000
30.88372	980.00000
30.90972	986.00000
30.93571	980.00000
30.96171	1011.00000
30.98772	1024.00000
31.01371	1050.00000
31.03971	1096.00000
31.06571	1122.00000
31.09171	1149.00000
31.11770	1190.00000
31.14370	1211.00000
31.16970	1197.00000
31.19570	1183.00000
31.22170	1142.00000
31.24769	1129.00000
31.27369	1030.00000
31.29969	1018.00000
31.32569	986.00000
31.35169	980.00000
31.37769	955.00000
31.40368	949.00000
31.42968	949.00000
31.45568	961.00000
31.48168	955.00000
31.50768	967.00000
31.53367	986.00000
31.55967	999.00000
31.58567	967.00000
31.61167	973.00000
31.63766	955.00000
31.66366	930.00000
31.68966	918.00000
31.71566	918.00000
31.74166	924.00000
31.76766	900.00000
31.79365	918.00000
31.81965	900.00000
31.84565	894.00000
31.87165	906.00000
31.89765	888.00000
31.92365	918.00000
31.94964	930.00000
31.97564	918.00000
32.00164	961.00000
32.02764	980.00000
32.05363	992.00000
32.07964	992.00000
32.10563	973.00000
32.13163	961.00000
32.15763	918.00000
32.18363	900.00000
32.20963	870.00000
32.23562	858.00000
32.26163	847.00000
32.28762	829.00000
32.31362	829.00000
32.33962	829.00000
32.36561	824.00000
32.39161	824.00000
32.41761	812.00000
32.44361	812.00000
32.46960	824.00000
32.49560	812.00000
32.52160	812.00000
32.54760	824.00000
32.57360	829.00000
32.59960	829.00000
32.62559	835.00000
32.65160	841.00000
32.67759	847.00000
32.70359	853.00000
32.72959	853.00000
32.75559	870.00000
32.78159	870.00000
32.80758	882.00000
32.83358	930.00000
32.85957	967.00000
32.88557	992.00000
32.91157	992.00000
32.93757	1018.00000
32.96357	1018.00000
32.98957	986.00000
33.01557	955.00000
33.04156	930.00000
33.06756	894.00000
33.09356	882.00000
33.11956	876.00000
33.14556	858.00000
33.17155	858.00000
33.19755	858.00000
33.22355	818.00000
33.24955	829.00000
33.27554	829.00000
33.30154	807.00000
33.32754	795.00000
33.35354	790.00000
33.37954	778.00000
33.40554	773.00000
33.43153	762.00000
33.45753	778.00000
33.48353	756.00000
33.50953	756.00000
33.53553	762.00000
33.56153	767.00000
33.58752	773.00000
33.61352	756.00000
33.63952	767.00000
33.66551	790.00000
33.69151	812.00000
33.71751	818.00000
33.74351	818.00000
33.76951	864.00000
33.79551	918.00000
33.82151	949.00000
33.84750	949.00000
33.87350	1005.00000
33.89950	1018.00000
33.92550	1063.00000
33.95150	1056.00000
33.97749	1043.00000
34.00349	1024.00000
34.02949	980.00000
34.05549	949.00000
34.08149	936.00000
34.10748	930.00000
34.13348	955.00000
34.15948	924.00000
34.18548	906.00000
34.21148	894.00000
34.23747	888.00000
34.26347	858.00000
34.28947	864.00000
34.31547	853.00000
34.34146	841.00000
34.36747	829.00000
34.39346	829.00000
34.41946	812.00000
34.44546	812.00000
34.47146	812.00000
34.49745	795.00000
34.52345	778.00000
34.54945	751.00000
34.57545	745.00000
34.60145	729.00000
34.62744	713.00000
34.65344	713.00000
34.67944	724.00000
34.70544	708.00000
34.73143	697.00000
34.75744	708.00000
34.78343	718.00000
34.80943	718.00000
34.83543	713.00000
34.86143	702.00000
34.88742	676.00000
34.91342	666.00000
34.93942	666.00000
34.96542	650.00000
34.99141	645.00000
35.01741	640.00000
35.04341	630.00000
35.06941	635.00000
35.09541	635.00000
35.12140	645.00000
35.14740	655.00000
35.17340	650.00000
35.19940	660.00000
35.22539	671.00000
35.25140	676.00000
35.27739	676.00000
35.30339	655.00000
35.32939	650.00000
35.35539	655.00000
35.38139	650.00000
35.40739	640.00000
35.43338	630.00000
35.45938	625.00000
35.48537	650.00000
35.51138	671.00000
35.53737	676.00000
35.56337	681.00000
35.58937	671.00000
35.61536	660.00000
35.64136	666.00000
35.66736	650.00000
35.69336	645.00000
35.71936	630.00000
35.74535	615.00000
35.77135	600.00000
35.79735	610.00000
35.82335	610.00000
35.84935	620.00000
35.87534	615.00000
35.90134	605.00000
35.92734	620.00000
35.95334	600.00000
35.97934	615.00000
36.00534	610.00000
36.03133	620.00000
36.05733	630.00000
36.08332	630.00000
36.10933	630.00000
36.13532	635.00000
36.16132	635.00000
36.18732	640.00000
36.21332	610.00000
36.23931	615.00000
36.26531	625.00000
36.29131	620.00000
36.31731	600.00000
36.34330	595.00000
36.36930	586.00000
36.39530	576.00000
36.42130	581.00000
36.44730	562.00000
36.47330	571.00000
36.49929	571.00000
36.52529	557.00000
36.55129	566.00000
36.57729	562.00000
36.60328	576.00000
36.62928	571.00000
36.65528	586.00000
36.68128	576.00000
36.70728	600.00000
36.73328	590.00000
36.75927	586.00000
36.78527	571.00000
36.81127	571.00000
36.83727	605.00000
36.86326	590.00000
36.88926	586.00000
36.91526	581.00000
36.94126	571.00000
36.96725	581.00000
36.99325	581.00000
37.01925	600.00000
37.04525	600.00000
37.07125	590.00000
37.09725	610.00000
37.12324	600.00000
37.14925	600.00000
37.17524	600.00000
37.20124	615.00000
37.22724	605.00000
37.25323	595.00000
37.27923	605.00000
37.30523	605.00000
37.33123	600.00000
37.35722	600.00000
37.38322	605.00000
37.40922	605.00000
37.43521	605.00000
37.46122	605.00000
37.48721	600.00000
37.51321	610.00000
37.53921	605.00000
37.56521	595.00000
37.59121	595.00000
37.61721	605.00000
37.64320	600.00000
37.66920	600.00000
37.69520	595.00000
37.72119	600.00000
37.74719	615.00000
37.77319	630.00000
37.79919	630.00000
37.82518	645.00000
37.85119	671.00000
37.87718	666.00000
37.90318	660.00000
37.92917	676.00000
37.95517	686.00000
37.98117	671.00000
38.00717	655.00000
38.03316	660.00000
38.05917	650.00000
38.08516	630.00000
38.11116	605.00000
38.13716	605.00000
38.16316	605.00000
38.18915	605.00000
38.21515	600.00000
38.24115	581.00000
38.26715	581.00000
38.29314	590.00000
38.31914	581.00000
38.34514	566.00000
38.37114	566.00000
38.39714	566.00000
38.42313	571.00000
38.44913	581.00000
38.47513	586.00000
38.50113	595.00000
38.52712	620.00000
38.55312	615.00000
38.57912	600.00000
38.60512	600.00000
38.63112	586.00000
38.65711	576.00000
38.68311	566.00000
38.70911	562.00000
38.73510	552.00000
38.76111	562.00000
38.78710	543.00000
38.81310	557.00000
38.83910	562.00000
38.86510	581.00000
38.89109	552.00000
38.91710	557.00000
38.94309	576.00000
38.96909	557.00000
38.99509	548.00000
39.02108	543.00000
39.04708	562.00000
39.07308	566.00000
39.09908	552.00000
39.12507	581.00000
39.15107	557.00000
39.17707	557.00000
39.20307	552.00000
39.22906	576.00000
39.25507	552.00000
39.28106	581.00000
39.30706	552.00000
39.33305	562.00000
39.35906	552.00000
39.38505	562.00000
39.41105	538.00000
39.43705	543.00000
39.46304	543.00000
39.48905	543.00000
39.51504	529.00000
39.54104	520.00000
39.56704	520.00000
39.59303	511.00000
39.61903	529.00000
39.64503	515.00000
39.67103	502.00000
39.69702	506.00000
39.72302	502.00000
39.74902	493.00000
39.77502	493.00000
39.80101	511.00000
39.82702	515.00000
39.85301	506.00000
39.87901	502.00000
39.90501	534.00000
39.93101	529.00000
39.95701	538.00000
39.98300	543.00000
40.00900	543.00000
40.03500	557.00000
40.06099	566.00000
40.08699	562.00000
40.11299	566.00000
40.13898	571.00000
40.16498	562.00000
40.19098	576.00000
40.21698	566.00000
40.24298	557.00000
40.26897	557.00000
40.29497	562.00000
40.32097	566.00000
40.34697	566.00000
40.37296	557.00000
40.39897	552.00000
40.42496	562.00000
40.45096	571.00000
40.47695	581.00000
40.50296	600.00000
40.52895	620.00000
40.55495	630.00000
40.58094	625.00000
40.60695	630.00000
40.63294	650.00000
40.65894	645.00000
40.68493	625.00000
40.71093	620.00000
40.73693	625.00000
40.76293	620.00000
40.78893	605.00000
40.81493	605.00000
40.84092	595.00000
40.86692	590.00000
40.89292	581.00000
40.91891	576.00000
40.94491	576.00000
40.97091	576.00000
40.99691	571.00000
41.02291	557.00000
41.04890	576.00000
41.07490	576.00000
41.10090	571.00000
41.12690	571.00000
41.15290	571.00000
41.17889	576.00000
41.20489	581.00000
41.23089	557.00000
41.25689	605.00000
41.28288	610.00000
41.30888	590.00000
41.33488	590.00000
41.36087	600.00000
41.38688	605.00000
41.41287	615.00000
41.43887	625.00000
41.46486	635.00000
41.49086	635.00000
41.51686	635.00000
41.54285	640.00000
41.56885	620.00000
41.59485	620.00000
41.62085	655.00000
41.64685	625.00000
41.67285	635.00000
41.69884	630.00000
41.72484	660.00000
41.75084	681.00000
41.77684	708.00000
41.80284	686.00000
41.82883	686.00000
41.85483	660.00000
41.88083	655.00000
41.90683	640.00000
41.93282	640.00000
41.95882	625.00000
41.98482	590.00000
42.01082	600.00000
42.03682	586.00000
42.06281	571.00000
42.08881	571.00000
42.11480	576.00000
42.14080	571.00000
42.16680	571.00000
42.19280	566.00000
42.21880	562.00000
42.24479	552.00000
42.27079	562.00000
42.29680	562.00000
42.32278	562.00000
42.34878	552.00000
42.37478	552.00000
42.40078	557.00000
42.42678	576.00000
42.45278	586.00000
42.47877	590.00000
42.50476	600.00000
42.53077	586.00000
42.55677	571.00000
42.58276	566.00000
42.60876	571.00000
42.63476	571.00000
42.66075	552.00000
42.68675	529.00000
42.71275	538.00000
42.73875	543.00000
42.76475	529.00000
42.79074	524.00000
42.81674	524.00000
42.84274	511.00000
42.86873	515.00000
42.89474	506.00000
42.92073	506.00000
42.94673	506.00000
42.97273	497.00000
42.99872	506.00000
43.02472	515.00000
43.05071	520.00000
43.07672	515.00000
43.10272	515.00000
43.12872	520.00000
43.15472	511.00000
43.18071	511.00000
43.20672	493.00000
43.23271	484.00000
43.25870	484.00000
43.28470	480.00000
43.31070	488.00000
43.33670	488.00000
43.36270	497.00000
43.38869	502.00000
43.41469	502.00000
43.44069	493.00000
43.46669	488.00000
43.49268	497.00000
43.51868	497.00000
43.54467	502.00000
43.57068	488.00000
43.59668	480.00000
43.62267	493.00000
43.64867	488.00000
43.67466	493.00000
43.70067	493.00000
43.72666	488.00000
43.75266	484.00000
43.77866	467.00000
43.80465	467.00000
43.83065	475.00000
43.85665	480.00000
43.88264	488.00000
43.90865	488.00000
43.93464	484.00000
43.96064	488.00000
43.98664	506.00000
44.01264	497.00000
44.03863	497.00000
44.06462	484.00000
44.09062	488.00000
44.11662	484.00000
44.14262	502.00000
44.16862	480.00000
44.19462	497.00000
44.22061	520.00000
44.24661	515.00000
44.27261	511.00000
44.29861	484.00000
44.32460	502.00000
44.35060	502.00000
44.37660	511.00000
44.40260	529.00000
44.42860	511.00000
44.45459	493.00000
44.48059	502.00000
44.50659	502.00000
44.53258	502.00000
44.55858	529.00000
44.58457	520.00000
44.61058	520.00000
44.63657	520.00000
44.66257	515.00000
44.68856	524.00000
44.71456	520.00000
44.74056	534.00000
44.76656	543.00000
44.79256	534.00000
44.81856	538.00000
44.84455	538.00000
44.87055	529.00000
44.89655	538.00000
44.92255	520.00000
44.94854	511.00000
44.97454	515.00000
45.00054	524.00000
45.02654	502.00000
45.05253	493.00000
45.07853	497.00000
45.10453	506.00000
45.13052	529.00000
45.15653	520.00000
45.18252	534.00000
45.20852	520.00000
45.23451	520.00000
45.26051	543.00000
45.28651	538.00000
45.31251	534.00000
45.33850	529.00000
45.36450	520.00000
45.39050	529.00000
45.41650	534.00000
45.44249	534.00000
45.46849	524.00000
45.49449	520.00000
45.52049	515.00000
45.54649	506.00000
45.57248	493.00000
45.59848	493.00000
45.62447	484.00000
45.65047	484.00000
45.67647	497.00000
45.70247	488.00000
45.72847	471.00000
45.75446	471.00000
45.78046	480.00000
45.80647	467.00000
45.83246	467.00000
45.85845	488.00000
45.88445	484.00000
45.91045	480.00000
45.93645	480.00000
45.96245	493.00000
45.98844	502.00000
46.01444	493.00000
46.04044	484.00000
46.06644	497.00000
46.09243	493.00000
46.11842	493.00000
46.14442	488.00000
46.17042	497.00000
46.19642	520.00000
46.22242	515.00000
46.24841	488.00000
46.27441	502.00000
46.30041	502.00000
46.32641	506.00000
46.35241	502.00000
46.37840	511.00000
46.40440	502.00000
46.43040	506.00000
46.45639	515.00000
46.48239	529.00000
46.50839	515.00000
46.53438	529.00000
46.56039	538.00000
46.58638	543.00000
46.61238	534.00000
46.63837	515.00000
46.66437	524.00000
46.69036	529.00000
46.71637	524.00000
46.74236	515.00000
46.76836	520.00000
46.79436	529.00000
46.82035	506.00000
46.84636	497.00000
46.87235	524.00000
46.89835	520.00000
46.92435	502.00000
46.95034	515.00000
46.97635	520.00000
47.00235	538.00000
47.02834	529.00000
47.05434	529.00000
47.08033	571.00000
47.10633	566.00000
47.13233	576.00000
47.15832	566.00000
47.18432	595.00000
47.21032	600.00000
47.23632	586.00000
47.26231	595.00000
47.28831	581.00000
47.31430	581.00000
47.34030	586.00000
47.36631	586.00000
47.39230	581.00000
47.41830	571.00000
47.44429	557.00000
47.47029	552.00000
47.49629	548.00000
47.52228	552.00000
47.54828	534.00000
47.57428	529.00000
47.60028	515.00000
47.62628	520.00000
47.65228	511.00000
47.67827	493.00000
47.70427	480.00000
47.73026	484.00000
47.75626	480.00000
47.78226	462.00000
47.80826	471.00000
47.83425	480.00000
47.86025	471.00000
47.88625	471.00000
47.91225	488.00000
47.93824	475.00000
47.96424	471.00000
47.99024	467.00000
48.01624	471.00000
48.04223	467.00000
48.06823	462.00000
48.09423	480.00000
48.12023	471.00000
48.14623	467.00000
48.17223	467.00000
48.19823	467.00000
48.22422	471.00000
48.25021	480.00000
48.27622	471.00000
48.30221	467.00000
48.32820	475.00000
48.35421	467.00000
48.38020	467.00000
48.40620	471.00000
48.43220	471.00000
48.45820	484.00000
48.48419	484.00000
48.51019	480.00000
48.53619	484.00000
48.56218	488.00000
48.58818	488.00000
48.61418	497.00000
48.64017	484.00000
48.66618	471.00000
48.69217	484.00000
48.71817	488.00000
48.74416	475.00000
48.77016	475.00000
48.79617	471.00000
48.82216	471.00000
48.84815	471.00000
48.87415	462.00000
48.90015	462.00000
48.92614	462.00000
48.95215	475.00000
48.97814	471.00000
49.00414	462.00000
49.03014	467.00000
49.05613	480.00000
49.08213	475.00000
49.10813	462.00000
49.13412	449.00000
49.16012	458.00000
49.18612	471.00000
49.21212	458.00000
49.23811	467.00000
49.26411	449.00000
49.29010	445.00000
49.31611	441.00000
49.34211	437.00000
49.36810	428.00000
49.39410	428.00000
49.42009	462.00000
49.44609	445.00000
49.47208	449.00000
49.49809	433.00000
49.52408	441.00000
49.55008	428.00000
49.57608	420.00000
49.60208	441.00000
49.62808	445.00000
49.65407	441.00000
49.68006	424.00000
49.70607	420.00000
49.73206	428.00000
49.75806	437.00000
49.78405	441.00000
49.81006	441.00000
49.83606	449.00000
49.86205	437.00000
49.88805	424.00000
49.91404	437.00000
49.94003	433.00000
49.96604	445.00000
49.99204	428.00000
50.01803	424.00000
50.04403	420.00000
50.07002	433.00000
50.09602	420.00000
50.12202	416.00000
50.14801	428.00000
50.17401	420.00000
50.20002	416.00000
50.22601	416.00000
50.25201	404.00000
50.27800	420.00000
50.30400	412.00000
50.32999	424.00000
50.35600	420.00000
50.38200	408.00000
50.40799	416.00000
50.43399	420.00000
50.45998	424.00000
50.48598	433.00000
50.51198	433.00000
50.53798	420.00000
50.56397	416.00000
50.58997	424.00000
50.61597	433.00000
50.64196	428.00000
50.66796	424.00000
50.69396	428.00000
50.71995	433.00000
50.74595	424.00000
50.77195	416.00000
50.79795	412.00000
50.82394	404.00000
50.84994	412.00000
50.87594	416.00000
50.90194	408.00000
50.92794	396.00000
50.95393	400.00000
50.97993	404.00000
51.00593	400.00000
51.03193	396.00000
51.05792	392.00000
51.08392	404.00000
51.10991	404.00000
51.13591	396.00000
51.16191	396.00000
51.18790	388.00000
51.21390	384.00000
51.23990	388.00000
51.26590	384.00000
51.29190	396.00000
51.31789	396.00000
51.34389	408.00000
51.36988	408.00000
51.39589	396.00000
51.42189	392.00000
51.44788	404.00000
51.47387	408.00000
51.49987	400.00000
51.52587	404.00000
51.55187	412.00000
51.57787	404.00000
51.60387	404.00000
51.62986	412.00000
51.65586	408.00000
51.68185	396.00000
51.70785	408.00000
51.73384	412.00000
51.75985	433.00000
51.78584	428.00000
51.81184	437.00000
51.83784	428.00000
51.86383	437.00000
51.88982	424.00000
51.91583	433.00000
51.94183	441.00000
51.96782	433.00000
51.99382	433.00000
52.01982	433.00000
52.04581	424.00000
52.07181	412.00000
52.09781	408.00000
52.12381	416.00000
52.14980	408.00000
52.17580	424.00000
52.20180	392.00000
52.22780	400.00000
52.25379	420.00000
52.27978	424.00000
52.30579	396.00000
52.33178	416.00000
52.35778	424.00000
52.38377	396.00000
52.40977	396.00000
52.43578	404.00000
52.46176	424.00000
52.48776	404.00000
52.51376	420.00000
52.53976	416.00000
52.56576	428.00000
52.59175	420.00000
52.61776	420.00000
52.64375	412.00000
52.66974	408.00000
52.69575	404.00000
52.72174	420.00000
52.74773	408.00000
52.77373	420.00000
52.79974	408.00000
52.82573	400.00000
52.85173	412.00000
52.87772	428.00000
52.90372	424.00000
52.92971	420.00000
52.95571	420.00000
52.98171	424.00000
53.00771	416.00000
53.03370	420.00000
53.05970	428.00000
53.08570	416.00000
53.11170	420.00000
53.13770	416.00000
53.16370	400.00000
53.18969	404.00000
53.21569	404.00000
53.24169	400.00000
53.26768	400.00000
53.29368	400.00000
53.31967	388.00000
53.34568	388.00000
53.37167	392.00000
53.39767	388.00000
53.42367	376.00000
53.44966	376.00000
53.47566	380.00000
53.50166	380.00000
53.52765	376.00000
53.55365	369.00000
53.57964	376.00000
53.60565	372.00000
53.63164	369.00000
53.65764	376.00000
53.68363	372.00000
53.70963	376.00000
53.73563	380.00000
53.76163	376.00000
53.78762	369.00000
53.81362	369.00000
53.83962	361.00000
53.86562	357.00000
53.89162	361.00000
53.91761	365.00000
53.94360	357.00000
53.96960	361.00000
53.99561	357.00000
54.02160	369.00000
54.04760	372.00000
54.07359	376.00000
54.09959	376.00000
54.12558	376.00000
54.15159	372.00000
54.17758	369.00000
54.20358	372.00000
54.22958	376.00000
54.25557	376.00000
54.28157	376.00000
54.30756	384.00000
54.33356	384.00000
54.35956	384.00000
54.38556	384.00000
54.41156	380.00000
54.43755	372.00000
54.46355	384.00000
54.48954	372.00000
54.51555	380.00000
54.54154	388.00000
54.56754	388.00000
54.59354	365.00000
54.61953	376.00000
54.64553	380.00000
54.67152	384.00000
54.69752	380.00000
54.72352	388.00000
54.74951	380.00000
54.77551	372.00000
54.80151	388.00000
54.82751	384.00000
54.85350	384.00000
54.87949	392.00000
54.90550	384.00000
54.93150	384.00000
54.95749	396.00000
54.98349	392.00000
55.00949	384.00000
55.03548	384.00000
55.06148	384.00000
55.08747	396.00000
55.11348	412.00000
55.13947	392.00000
55.16547	376.00000
55.19147	376.00000
55.21746	380.00000
55.24346	396.00000
55.26945	372.00000
55.29546	384.00000
55.32145	396.00000
55.34745	388.00000
55.37344	380.00000
55.39944	384.00000
55.42544	392.00000
55.45143	376.00000
55.47743	396.00000
55.50343	392.00000
55.52942	388.00000
55.55543	388.00000
55.58142	380.00000
55.60742	396.00000
55.63341	396.00000
55.65941	384.00000
55.68541	384.00000
55.71141	376.00000
55.73740	369.00000
55.76340	376.00000
55.78940	372.00000
55.81540	369.00000
55.84139	372.00000
55.86739	372.00000
55.89339	380.00000
55.91938	372.00000
55.94538	365.00000
55.97138	369.00000
55.99738	369.00000
56.02337	365.00000
56.04936	361.00000
56.07536	365.00000
56.10136	365.00000
56.12735	365.00000
56.15335	369.00000
56.17935	369.00000
56.20535	365.00000
56.23135	365.00000
56.25734	372.00000
56.28333	365.00000
56.30933	357.00000
56.33534	353.00000
56.36133	357.00000
56.38732	369.00000
56.41333	372.00000
56.43932	361.00000
56.46532	353.00000
56.49132	361.00000
56.51732	365.00000
56.54331	365.00000
56.56930	365.00000
56.59531	361.00000
56.62130	357.00000
56.64730	372.00000
56.67329	365.00000
56.69929	353.00000
56.72529	350.00000
56.75129	350.00000
56.77728	353.00000
56.80328	357.00000
56.82928	357.00000
56.85527	361.00000
56.88127	361.00000
56.90727	361.00000
56.93326	350.00000
56.95926	357.00000
56.98526	376.00000
57.01126	369.00000
57.03725	372.00000
57.06325	365.00000
57.08924	369.00000
57.11524	369.00000
57.14124	365.00000
57.16724	353.00000
57.19324	339.00000
57.21923	353.00000
57.24523	361.00000
57.27123	357.00000
57.29722	346.00000
57.32321	357.00000
57.34921	372.00000
57.37521	357.00000
57.40121	342.00000
57.42720	342.00000
57.45320	346.00000
57.47919	350.00000
57.50520	346.00000
57.53119	339.00000
57.55719	339.00000
57.58319	346.00000
57.60918	346.00000
57.63518	346.00000
57.66118	350.00000
57.68717	335.00000
57.71317	365.00000
57.73917	357.00000
57.76517	346.00000
57.79117	339.00000
57.81716	339.00000
57.84316	357.00000
57.86915	365.00000
57.89515	361.00000
57.92115	353.00000
57.94714	353.00000
57.97314	361.00000
57.99914	365.00000
58.02514	353.00000
58.05114	369.00000
58.07713	365.00000
58.10313	346.00000
58.12912	350.00000
58.15512	361.00000
58.18112	357.00000
58.20712	350.00000
58.23311	369.00000
58.25911	372.00000
58.28511	361.00000
58.31110	365.00000
58.33710	372.00000
58.36310	357.00000
58.38909	361.00000
58.41510	365.00000
58.44109	365.00000
58.46708	365.00000
58.49308	361.00000
58.51908	365.00000
58.54508	365.00000
58.57108	369.00000
58.59708	372.00000
58.62307	369.00000
58.64906	365.00000
58.67506	372.00000
58.70106	369.00000
58.72706	357.00000
58.75305	365.00000
58.77905	372.00000
58.80505	372.00000
58.83104	372.00000
58.85704	361.00000
58.88303	361.00000
58.90903	369.00000
58.93503	365.00000
58.96103	357.00000
58.98702	361.00000
59.01302	365.00000
59.03901	365.00000
59.06501	361.00000
59.09101	353.00000
59.11701	353.00000
59.14300	353.00000
59.16900	357.00000
59.19500	357.00000
59.22100	361.00000
59.24699	361.00000
59.27299	353.00000
59.29899	353.00000
59.32499	357.00000
59.35098	376.00000
59.37698	361.00000
59.40298	353.00000
59.42897	353.00000
59.45497	350.00000
59.48096	353.00000
59.50696	361.00000
59.53295	350.00000
59.55895	350.00000
59.58495	346.00000
59.61095	353.00000
59.63694	353.00000
59.66294	350.00000
59.68893	353.00000
59.71493	346.00000
59.74093	365.00000
59.76693	346.00000
59.79293	353.00000
59.81892	350.00000
59.84492	346.00000
59.87091	339.00000
59.89691	350.00000
59.92291	350.00000
59.94890	353.00000
59.97491	342.00000
60.00090	353.00000
60.02690	365.00000
60.05289	369.00000
60.07889	346.00000
60.10489	357.00000
60.13089	350.00000
60.15688	365.00000
60.18288	369.00000
60.20887	342.00000
60.23487	339.00000
60.26086	361.00000
60.28686	361.00000
60.31286	350.00000
60.33885	357.00000
60.36486	353.00000
60.39085	339.00000
60.41685	353.00000
60.44284	353.00000
60.46884	357.00000
60.49484	350.00000
60.52084	342.00000
60.54683	350.00000
60.57283	353.00000
60.59883	353.00000
60.62483	357.00000
60.65082	350.00000
60.67682	353.00000
60.70282	339.00000
60.72881	342.00000
60.75481	353.00000
60.78080	357.00000
60.80680	350.00000
60.83280	342.00000
60.85880	350.00000
60.88479	350.00000
60.91079	346.00000
60.93678	357.00000
60.96278	361.00000
60.98877	350.00000
61.01478	350.00000
61.04077	350.00000
61.06676	353.00000
61.09277	357.00000
61.11876	353.00000
61.14476	339.00000
61.17076	339.00000
61.19675	342.00000
61.22275	339.00000
61.24874	339.00000
61.27474	339.00000
61.30074	339.00000
61.32673	339.00000
61.35274	339.00000
61.37873	339.00000
61.40473	342.00000
61.43073	339.00000
61.45672	339.00000
61.48272	342.00000
61.50871	339.00000
61.53471	331.00000
61.56071	331.00000
61.58670	342.00000
61.61270	346.00000
61.63870	339.00000
61.66470	335.00000
61.69069	331.00000
61.71669	342.00000
61.74268	342.00000
61.76868	339.00000
61.79468	342.00000
61.82068	342.00000
61.84667	331.00000
61.87266	342.00000
61.89867	350.00000
61.92466	339.00000
61.95066	342.00000
61.97665	342.00000
62.00265	328.00000
62.02864	320.00000
62.05465	339.00000
62.08064	335.00000
62.10664	331.00000
62.13263	339.00000
62.15863	346.00000
62.18463	339.00000
62.21063	328.00000
62.23662	331.00000
62.26262	342.00000
62.28861	331.00000
62.31461	328.00000
62.34061	324.00000
62.36661	335.00000
62.39261	342.00000
62.41860	342.00000
62.44460	339.00000
62.47059	346.00000
62.49659	346.00000
62.52258	361.00000
62.54858	342.00000
62.57458	331.00000
62.60058	328.00000
62.62658	342.00000
62.65257	342.00000
62.67856	339.00000
62.70456	335.00000
62.73056	339.00000
62.75656	346.00000
62.78255	346.00000
62.80855	328.00000
62.83455	339.00000
62.86054	339.00000
62.88654	346.00000
62.91253	350.00000
62.93853	339.00000
62.96453	331.00000
62.99053	331.00000
63.01653	331.00000
63.04252	324.00000
63.06852	342.00000
63.09452	342.00000
63.12052	350.00000
63.14651	342.00000
63.17251	339.00000
63.19850	335.00000
63.22451	339.00000
63.25050	346.00000
63.27649	353.00000
63.30249	342.00000
63.32848	335.00000
63.35448	331.00000
63.38048	339.00000
63.40648	350.00000
63.43248	339.00000
63.45847	346.00000
63.48447	350.00000
63.51046	346.00000
63.53646	350.00000
63.56246	346.00000
63.58845	346.00000
63.61446	346.00000
63.64045	350.00000
63.66644	350.00000
63.69244	339.00000
63.71844	324.00000
63.74443	328.00000
63.77043	335.00000
63.79643	335.00000
63.82243	331.00000
63.84842	339.00000
63.87442	342.00000
63.90042	331.00000
63.92641	331.00000
63.95241	342.00000
63.97841	350.00000
64.00441	346.00000
64.03040	339.00000
64.05639	335.00000
64.08239	335.00000
64.10839	335.00000
64.13438	328.00000
64.16039	328.00000
64.18638	331.00000
64.21238	335.00000
64.23837	335.00000
64.26437	328.00000
64.29037	331.00000
64.31636	331.00000
64.34236	353.00000
64.36835	350.00000
64.39436	339.00000
64.42035	335.00000
64.44635	331.00000
64.47234	335.00000
64.49834	335.00000
64.52434	335.00000
64.55032	342.00000
64.57632	357.00000
64.60232	342.00000
64.62832	346.00000
64.65432	339.00000
64.68031	342.00000
64.70631	339.00000
64.73230	339.00000
64.75830	342.00000
64.78430	342.00000
64.81029	328.00000
64.83630	328.00000
64.86228	342.00000
64.88828	342.00000
64.91428	335.00000
64.94028	339.00000
64.96628	342.00000
64.99227	353.00000
65.01827	328.00000
65.04427	346.00000
65.07026	357.00000
65.09626	339.00000
65.12225	346.00000
65.14825	324.00000
65.17425	342.00000
65.20025	342.00000
65.22624	342.00000
65.25223	335.00000
65.27823	342.00000
65.30424	342.00000
65.33023	339.00000
65.35622	350.00000
65.38223	339.00000
65.40822	328.00000
65.43422	346.00000
65.46021	328.00000
65.48621	335.00000
65.51221	328.00000
65.53820	339.00000
65.56420	346.00000
65.59020	342.00000
65.61620	339.00000
65.64218	350.00000
65.66818	331.00000
65.69419	331.00000
65.72018	331.00000
65.74618	339.00000
65.77217	342.00000
65.79817	346.00000
65.82416	346.00000
65.85017	335.00000
65.87616	335.00000
65.90215	335.00000
65.92815	339.00000
65.95416	331.00000
65.98015	339.00000
66.00614	331.00000
66.03214	342.00000
66.05814	346.00000
66.08413	342.00000
66.11013	339.00000
66.13612	331.00000
66.16213	335.00000
66.18812	346.00000
66.21412	350.00000
66.24012	342.00000
66.26611	331.00000
66.29211	339.00000
66.31809	339.00000
66.34409	342.00000
66.37009	339.00000
66.39609	339.00000
66.42208	335.00000
66.44807	335.00000
66.47407	335.00000
66.50007	331.00000
66.52607	324.00000
66.55206	320.00000
66.57806	339.00000
66.60406	342.00000
66.63006	339.00000
66.65605	331.00000
66.68205	324.00000
66.70805	320.00000
66.73404	324.00000
66.76004	328.00000
66.78603	317.00000
66.81203	320.00000
66.83803	328.00000
66.86402	320.00000
66.89003	324.00000
66.91602	328.00000
66.94202	324.00000
66.96801	331.00000
66.99401	331.00000
67.02000	320.00000
67.04600	324.00000
67.07200	320.00000
67.09799	324.00000
67.12399	328.00000
67.14999	317.00000
67.17599	328.00000
67.20198	331.00000
67.22797	317.00000
67.25398	328.00000
67.27997	335.00000
67.30597	313.00000
67.33196	324.00000
67.35796	313.00000
67.38396	313.00000
67.40996	324.00000
67.43595	324.00000
67.46195	328.00000
67.48795	317.00000
67.51394	320.00000
67.53994	328.00000
67.56593	331.00000
67.59193	317.00000
67.61793	303.00000
67.64393	328.00000
67.66991	328.00000
67.69591	317.00000
67.72192	324.00000
67.74790	324.00000
67.77391	328.00000
67.79990	320.00000
67.82591	320.00000
67.85189	313.00000
67.87789	313.00000
67.90389	313.00000
67.92989	331.00000
67.95589	313.00000
67.98188	320.00000
68.00788	303.00000
68.03387	317.00000
68.05988	331.00000
68.08586	317.00000
68.11187	313.00000
68.13786	310.00000
68.16386	317.00000
68.18986	306.00000
68.21584	313.00000
68.24184	317.00000
68.26784	328.00000
68.29384	310.00000
68.31983	317.00000
68.34583	320.00000
68.37182	328.00000
68.39783	317.00000
68.42383	331.00000
68.44981	328.00000
68.47581	313.00000
68.50181	320.00000
68.52780	313.00000
68.55380	313.00000
68.57980	310.00000
68.60580	313.00000
68.63179	313.00000
68.65779	320.00000
68.68378	331.00000
68.70978	320.00000
68.73577	320.00000
68.76178	317.00000
68.78777	313.00000
68.81377	310.00000
68.83976	320.00000
68.86576	313.00000
68.89176	310.00000
68.91775	324.00000
68.94375	328.00000
68.96975	324.00000
68.99575	313.00000
69.02174	313.00000
69.04774	313.00000
69.07373	310.00000
69.09973	313.00000
69.12573	317.00000
69.15173	320.00000
69.17772	310.00000
69.20372	306.00000
69.22971	313.00000
69.25571	313.00000
69.28170	313.00000
69.30769	313.00000
69.33370	313.00000
69.35970	313.00000
69.38569	306.00000
69.41169	303.00000
69.43768	303.00000
69.46368	306.00000
69.48968	310.00000
69.51568	306.00000
69.54166	310.00000
69.56767	320.00000
69.59367	320.00000
69.61967	310.00000
69.64565	303.00000
69.67165	313.00000
69.69765	313.00000
69.72365	306.00000
69.74965	299.00000
69.77563	313.00000
69.80164	299.00000
69.82763	299.00000
69.85363	306.00000
69.87962	299.00000
69.90562	303.00000
69.93161	299.00000
69.95761	292.00000
69.98362	306.00000
70.00961	310.00000
70.03561	303.00000
