15.00000	4514.00000
15.01998	4402.00000
15.03995	4421.00000
15.05993	4364.00000
15.07991	4439.00000
15.09989	4507.00000
15.11986	4385.00000
15.13984	4399.00000
15.15982	4467.00000
15.17979	4403.00000
15.19977	4374.00000
15.21975	4543.00000
15.23972	4479.00000
15.25970	4530.00000
15.27968	4381.00000
15.29966	4429.00000
15.31963	4344.00000
15.33961	4524.00000
15.35959	4405.00000
15.37956	4305.00000
15.39954	4352.00000
15.41952	4353.00000
15.43949	4497.00000
15.45947	4528.00000
15.47945	4599.00000
15.49943	4569.00000
15.51940	4620.00000
15.53938	4634.00000
15.55936	4714.00000
15.57933	4640.00000
15.59931	4774.00000
15.61929	4500.00000
15.63926	4654.00000
15.65924	4659.00000
15.67922	4558.00000
15.69920	4393.00000
15.71917	4418.00000
15.73915	4320.00000
15.75913	4405.00000
15.77910	4399.00000
15.79908	4380.00000
15.81906	4250.00000
15.83903	4319.00000
15.85901	4313.00000
15.87899	4323.00000
15.89897	4173.00000
15.91894	4333.00000
15.93892	4175.00000
15.95890	4215.00000
15.97887	4319.00000
15.99885	4319.00000
16.01883	4207.00000
16.03880	4307.00000
16.05878	4285.00000
16.07876	4288.00000
16.09874	4273.00000
16.11871	4194.00000
16.13869	4201.00000
16.15867	4220.00000
16.17864	4197.00000
16.19862	4298.00000
16.21860	4131.00000
16.23857	4309.00000
16.25855	4187.00000
16.27853	4193.00000
16.29851	4118.00000
16.31848	4202.00000
16.33846	4101.00000
16.35844	4136.00000
16.37841	4271.00000
16.39839	4174.00000
16.41837	4225.00000
16.43834	4149.00000
16.45832	4025.00000
16.47830	4174.00000
16.49828	4131.00000
16.51825	4151.00000
16.53823	4165.00000
16.55821	4062.00000
16.57818	4215.00000
16.59816	4179.00000
16.61814	4201.00000
16.63811	4098.00000
16.65809	4116.00000
16.67807	4063.00000
16.69805	4162.00000
16.71802	4128.00000
16.73800	4181.00000
16.75798	4173.00000
16.77795	4162.00000
16.79793	4191.00000
16.81791	4132.00000
16.83788	4179.00000
16.85786	4306.00000
16.87784	4200.00000
16.89782	4164.00000
16.91779	4080.00000
16.93777	4148.00000
16.95775	4259.00000
16.97772	4183.00000
16.99770	4175.00000
17.01768	4190.00000
17.03765	4276.00000
17.05763	4347.00000
17.07761	4340.00000
17.09759	4216.00000
17.11756	4276.00000
17.13754	4162.00000
17.15752	4403.00000
17.17749	4329.00000
17.19747	4516.00000
17.21745	4437.00000
17.23742	4804.00000
17.25740	4914.00000
17.27738	5126.00000
17.29736	5301.00000
17.31733	5573.00000
17.33731	5809.00000
17.35729	5945.00000
17.37726	6058.00000
17.39724	6163.00000
17.41722	6092.00000
17.43719	5787.00000
17.45717	5530.00000
17.47715	4976.00000
17.49713	4588.00000
17.51710	4533.00000
17.53708	4268.00000
17.55706	4075.00000
17.57703	4109.00000
17.59701	4101.00000
17.61699	4092.00000
17.63696	4064.00000
17.65694	4088.00000
17.67692	4044.00000
17.69690	4069.00000
17.71687	4040.00000
17.73685	4023.00000
17.75683	4003.00000
17.77680	3925.00000
17.79678	3946.00000
17.81676	4017.00000
17.83673	4021.00000
17.85671	3936.00000
17.87669	4003.00000
17.89667	4032.00000
17.91664	4057.00000
17.93662	3909.00000
17.95660	3925.00000
17.97657	3935.00000
17.99655	3965.00000
18.01653	4008.00000
18.03650	3955.00000
18.05648	4017.00000
18.07646	3895.00000
18.09644	3898.00000
18.11641	4001.00000
18.13639	3852.00000
18.15637	3847.00000
18.17634	3931.00000
18.19632	3877.00000
18.21630	3889.00000
18.23627	3787.00000
18.25625	3876.00000
18.27623	3827.00000
18.29621	3999.00000
18.31618	3827.00000
18.33616	3837.00000
18.35614	3866.00000
18.37611	3894.00000
18.39609	3861.00000
18.41607	3776.00000
18.43604	3771.00000
18.45602	3842.00000
18.47600	3806.00000
18.49598	3798.00000
18.51595	3993.00000
18.53593	3850.00000
18.55591	3807.00000
18.57588	3772.00000
18.59586	3803.00000
18.61584	3759.00000
18.63581	3887.00000
18.65579	3812.00000
18.67577	3771.00000
18.69575	3827.00000
18.71572	3714.00000
18.73570	3775.00000
18.75568	3817.00000
18.77565	3773.00000
18.79563	3783.00000
18.81561	3766.00000
18.83558	3681.00000
18.85556	3690.00000
18.87554	3792.00000
18.89552	3785.00000
18.91549	3725.00000
18.93547	3658.00000
18.95545	3721.00000
18.97542	3627.00000
18.99540	3734.00000
19.01538	3770.00000
19.03535	3751.00000
19.05533	3627.00000
19.07531	3699.00000
19.09529	3757.00000
19.11526	3764.00000
19.13524	3722.00000
19.15522	3740.00000
19.17519	3692.00000
19.19517	3765.00000
19.21515	3653.00000
19.23512	3648.00000
19.25510	3791.00000
19.27508	3702.00000
19.29506	3689.00000
19.31503	3790.00000
19.33501	3790.00000
19.35499	3553.00000
19.37496	3640.00000
19.39494	3719.00000
19.41492	3637.00000
19.43489	3619.00000
19.45487	3657.00000
19.47485	3594.00000
19.49483	3638.00000
19.51480	3622.00000
19.53478	3599.00000
19.55476	3625.00000
19.57473	3700.00000
19.59471	3608.00000
19.61469	3672.00000
19.63466	3706.00000
19.65464	3573.00000
19.67462	3543.00000
19.69460	3695.00000
19.71457	3704.00000
19.73455	3701.00000
19.75453	3579.00000
19.77450	3583.00000
19.79448	3641.00000
19.81446	3566.00000
19.83443	3570.00000
19.85441	3708.00000
19.87439	3641.00000
19.89437	3635.00000
19.91434	3654.00000
19.93432	3775.00000
19.95430	3647.00000
19.97427	3732.00000
19.99425	3725.00000
20.01423	3649.00000
20.03420	3703.00000
20.05418	3725.00000
20.07416	3796.00000
20.09414	3682.00000
20.11411	3905.00000
20.13409	3808.00000
20.15407	3832.00000
20.17404	3721.00000
20.19402	3679.00000
20.21400	3641.00000
20.23397	3757.00000
20.25395	3754.00000
20.27393	3708.00000
20.29391	3753.00000
20.31388	3701.00000
20.33386	3730.00000
20.35384	3782.00000
20.37381	3742.00000
20.39379	3689.00000
20.41377	3720.00000
20.43374	3747.00000
20.45372	3715.00000
20.47370	3610.00000
20.49368	3732.00000
20.51365	3785.00000
20.53363	3722.00000
20.55361	3746.00000
20.57358	3803.00000
20.59356	3723.00000
20.61354	3826.00000
20.63351	3835.00000
20.65349	3923.00000
20.67347	3873.00000
20.69345	3875.00000
20.71342	3906.00000
20.73340	3867.00000
20.75338	3963.00000
20.77335	4013.00000
20.79333	3939.00000
20.81331	3913.00000
20.83328	4030.00000
20.85326	4039.00000
20.87324	3845.00000
20.89322	3993.00000
20.91319	3953.00000
20.93317	3848.00000
20.95315	3790.00000
20.97312	3857.00000
20.99310	3698.00000
21.01308	3750.00000
21.03305	3806.00000
21.05303	3574.00000
21.07301	3694.00000
21.09299	3662.00000
21.11296	3662.00000
21.13294	3634.00000
21.15292	3602.00000
21.17289	3512.00000
21.19287	3509.00000
21.21285	3511.00000
21.23282	3571.00000
21.25280	3594.00000
21.27278	3588.00000
21.29276	3551.00000
21.31273	3499.00000
21.33271	3440.00000
21.35269	3523.00000
21.37266	3545.00000
21.39264	3544.00000
21.41262	3514.00000
21.43259	3448.00000
21.45257	3377.00000
21.47255	3445.00000
21.49253	3410.00000
21.51250	3520.00000
21.53248	3318.00000
21.55246	3369.00000
21.57243	3545.00000
21.59241	3370.00000
21.61239	3364.00000
21.63236	3455.00000
21.65234	3315.00000
21.67232	3335.00000
21.69230	3409.00000
21.71227	3426.00000
21.73225	3451.00000
21.75223	3440.00000
21.77220	3473.00000
21.79218	3378.00000
21.81216	3580.00000
21.83213	3617.00000
21.85211	3611.00000
21.87209	3655.00000
21.89207	3691.00000
21.91204	3825.00000
21.93202	3904.00000
21.95200	4049.00000
21.97197	4094.00000
21.99195	4228.00000
22.01193	4257.00000
22.03190	4240.00000
22.05188	4347.00000
22.07186	4276.00000
22.09184	4051.00000
22.11181	3893.00000
22.13179	3733.00000
22.15177	3617.00000
22.17174	3493.00000
22.19172	3288.00000
22.21170	3388.00000
22.23167	3331.00000
22.25165	3316.00000
22.27163	3421.00000
22.29161	3320.00000
22.31158	3342.00000
22.33156	3217.00000
22.35154	3317.00000
22.37151	3249.00000
22.39149	3328.00000
22.41147	3345.00000
22.43144	3183.00000
22.45142	3324.00000
22.47140	3342.00000
22.49138	3222.00000
22.51135	3268.00000
22.53133	3358.00000
22.55131	3277.00000
22.57128	3336.00000
22.59126	3297.00000
22.61124	3378.00000
22.63121	3195.00000
22.65119	3276.00000
22.67117	3289.00000
22.69115	3256.00000
22.71112	3298.00000
22.73110	3232.00000
22.75108	3318.00000
22.77105	3246.00000
22.79103	3221.00000
22.81101	3250.00000
22.83098	3222.00000
22.85096	3233.00000
22.87094	3358.00000
22.89092	3250.00000
22.91089	3279.00000
22.93087	3266.00000
22.95085	3226.00000
22.97082	3301.00000
22.99080	3250.00000
23.01078	3234.00000
23.03075	3148.00000
23.05073	3161.00000
23.07071	3150.00000
23.09069	3267.00000
23.11066	3181.00000
23.13064	3316.00000
23.15062	3191.00000
23.17059	3339.00000
23.19057	3140.00000
23.21055	3196.00000
23.23052	3272.00000
23.25050	3256.00000
23.27048	3342.00000
23.29046	3166.00000
23.31043	3279.00000
23.33041	3123.00000
23.35039	3176.00000
23.37036	3222.00000
23.39034	3259.00000
23.41032	3193.00000
23.43029	3201.00000
23.45027	3260.00000
23.47025	3242.00000
23.49023	3217.00000
23.51020	3149.00000
23.53018	3173.00000
23.55016	3138.00000
23.57013	3161.00000
23.59011	3173.00000
23.61009	3089.00000
23.63006	3191.00000
23.65004	3274.00000
23.67002	3345.00000
23.69000	3266.00000
23.70997	3149.00000
23.72995	3231.00000
23.74993	3220.00000
23.76990	3113.00000
23.78988	3112.00000
23.80986	3022.00000
23.82983	3247.00000
23.84981	3284.00000
23.86979	3184.00000
23.88977	3132.00000
23.90974	3119.00000
23.92972	3139.00000
23.94970	3188.00000
23.96967	3059.00000
23.98965	3174.00000
24.00963	3316.00000
24.02960	3280.00000
24.04958	3200.00000
24.06956	3108.00000
24.08954	3164.00000
24.10951	3210.00000
24.12949	3164.00000
24.14947	3166.00000
24.16944	3176.00000
24.18942	3152.00000
24.20940	3213.00000
24.22937	3207.00000
24.24935	3265.00000
24.26933	3323.00000
24.28931	3274.00000
24.30928	3142.00000
24.32926	3183.00000
24.34924	3302.00000
24.36921	3192.00000
24.38919	3265.00000
24.40917	3425.00000
24.42914	3478.00000
24.44912	3358.00000
24.46910	3330.00000
24.48908	3378.00000
24.50905	3345.00000
24.52903	3338.00000
24.54901	3187.00000
24.56898	3257.00000
24.58896	3136.00000
24.60894	3122.00000
24.62891	3144.00000
24.64889	3062.00000
24.66887	3044.00000
24.68885	3145.00000
24.70882	3170.00000
24.72880	3138.00000
24.74878	3138.00000
24.76875	3119.00000
24.78873	3100.00000
24.80871	3080.00000
24.82868	3183.00000
24.84866	3165.00000
24.86864	3138.00000
24.88862	3079.00000
24.90859	3125.00000
24.92857	3144.00000
24.94855	3097.00000
24.96852	3152.00000
24.98850	3153.00000
25.00848	3201.00000
25.02845	3160.00000
25.04843	3102.00000
25.06841	3276.00000
25.08839	3072.00000
25.10836	3164.00000
25.12834	3089.00000
25.14832	3051.00000
25.16829	3181.00000
25.18827	3204.00000
25.20825	3247.00000
25.22822	3309.00000
25.24820	3241.00000
25.26818	3165.00000
25.28816	3225.00000
25.30813	3223.00000
25.32811	3203.00000
25.34809	3169.00000
25.36806	3172.00000
25.38804	3115.00000
25.40802	3281.00000
25.42799	3129.00000
25.44797	3110.00000
25.46795	3184.00000
25.48793	3207.00000
25.50790	3137.00000
25.52788	3152.00000
25.54786	3221.00000
25.56783	3051.00000
25.58781	3112.00000
25.60779	3103.00000
25.62776	3081.00000
25.64774	3137.00000
25.66772	3051.00000
25.68770	3078.00000
25.70767	3107.00000
25.72765	3190.00000
25.74763	3172.00000
25.76760	3149.00000
25.78758	3085.00000
25.80756	3083.00000
25.82753	3077.00000
25.84751	3050.00000
25.86749	3215.00000
25.88747	3211.00000
25.90744	3197.00000
25.92742	3180.00000
25.94740	3166.00000
25.96737	3288.00000
25.98735	3226.00000
26.00733	3272.00000
26.02730	3253.00000
26.04728	3356.00000
26.06726	3485.00000
26.08724	3330.00000
26.10721	3629.00000
26.12719	3640.00000
26.14717	3792.00000
26.16714	3723.00000
26.18712	3798.00000
26.20710	3861.00000
26.22707	3930.00000
26.24705	3984.00000
26.26703	3930.00000
26.28701	3967.00000
26.30698	3955.00000
26.32696	3891.00000
26.34694	3882.00000
26.36691	3907.00000
26.38689	3916.00000
26.40687	3928.00000
26.42684	3942.00000
26.44682	4160.00000
26.46680	4258.00000
26.48678	4111.00000
26.50675	4257.00000
26.52673	4329.00000
26.54671	4539.00000
26.56668	4625.00000
26.58666	4644.00000
26.60664	4912.00000
26.62661	5051.00000
26.64659	5126.00000
26.66657	5204.00000
26.68655	5300.00000
26.70652	5484.00000
26.72650	5763.00000
26.74648	5947.00000
26.76645	6423.00000
26.78643	6685.00000
26.80641	7298.00000
26.82638	7932.00000
26.84636	8698.00000
26.86634	9732.00000
26.88632	11217.00000
26.90629	13494.00000
26.92627	17425.00000
26.94625	23108.00000
26.96622	30276.00000
26.98620	39352.00000
27.00618	50792.00000
27.02615	64732.00000
27.04613	79895.00000
27.06611	95148.00000
27.08609	106681.00000
27.10606	111139.00000
27.12604	110154.00000
27.14602	102195.00000
27.16599	83901.00000
27.18597	65094.00000
27.20595	51298.00000
27.22592	38142.00000
27.24590	25974.00000
27.26588	18421.00000
27.28586	14573.00000
27.30583	11624.00000
27.32581	10021.00000
27.34579	8917.00000
27.36576	8005.00000
27.38574	7159.00000
27.40572	6746.00000
27.42569	6032.00000
27.44567	5822.00000
27.46565	5437.00000
27.48563	5052.00000
27.50560	4864.00000
27.52558	4727.00000
27.54556	4527.00000
27.56553	4424.00000
27.58551	4401.00000
27.60549	4252.00000
27.62546	4095.00000
27.64544	4123.00000
27.66542	4134.00000
27.68540	3876.00000
27.70537	4081.00000
27.72535	3834.00000
27.74533	3862.00000
27.76530	3793.00000
27.78528	3816.00000
27.80526	3845.00000
27.82523	3740.00000
27.84521	3687.00000
27.86519	3664.00000
27.88517	3693.00000
27.90514	3695.00000
27.92512	3666.00000
27.94510	3565.00000
27.96507	3540.00000
27.98505	3541.00000
28.00503	3726.00000
28.02500	3474.00000
28.04498	3625.00000
28.06496	3664.00000
28.08494	3690.00000
28.10491	3736.00000
28.12489	3942.00000
28.14487	4073.00000
28.16484	4314.00000
28.18482	4526.00000
28.20480	4766.00000
28.22477	5184.00000
28.24475	5321.00000
28.26473	5311.00000
28.28471	5517.00000
28.30468	5249.00000
28.32466	5008.00000
28.34464	4625.00000
28.36461	4453.00000
28.38459	4070.00000
28.40457	3858.00000
28.42454	3744.00000
28.44452	3638.00000
28.46450	3543.00000
28.48448	3489.00000
28.50445	3395.00000
28.52443	3303.00000
28.54441	3527.00000
28.56438	3449.00000
28.58436	3351.00000
28.60434	3420.00000
28.62431	3397.00000
28.64429	3306.00000
28.66427	3414.00000
28.68425	3309.00000
28.70422	3308.00000
28.72420	3282.00000
28.74418	3306.00000
28.76415	3241.00000
28.78413	3268.00000
28.80411	3249.00000
28.82408	3297.00000
28.84406	3216.00000
28.86404	3268.00000
28.88402	3211.00000
28.90399	3245.00000
28.92397	3279.00000
28.94395	3250.00000
28.96392	3172.00000
28.98390	3238.00000
29.00388	3256.00000
29.02385	3228.00000
29.04383	3373.00000
29.06381	3218.00000
29.08379	3201.00000
29.10376	3294.00000
29.12374	3240.00000
29.14372	3216.00000
29.16369	3192.00000
29.18367	3263.00000
29.20365	3160.00000
29.22362	3169.00000
29.24360	3170.00000
29.26358	3163.00000
29.28356	3246.00000
29.30353	3270.00000
29.32351	3207.00000
29.34349	3214.00000
29.36346	3210.00000
29.38344	3144.00000
29.40342	3179.00000
29.42339	3193.00000
29.44337	3241.00000
29.46335	3123.00000
29.48333	3323.00000
29.50330	3279.00000
29.52328	3215.00000
29.54326	3155.00000
29.56323	3305.00000
29.58321	3296.00000
29.60319	3357.00000
29.62316	3347.00000
29.64314	3211.00000
29.66312	3312.00000
29.68310	3273.00000
29.70307	3196.00000
29.72305	3125.00000
29.74303	3117.00000
29.76300	3145.00000
29.78298	3087.00000
29.80296	3214.00000
29.82293	3101.00000
29.84291	3112.00000
29.86289	3144.00000
29.88287	3151.00000
29.90284	3110.00000
29.92282	3128.00000
29.94280	3076.00000
29.96277	2992.00000
29.98275	3111.00000
30.00273	3090.00000
30.02270	3164.00000
30.04268	2992.00000
30.06266	3011.00000
30.08264	3110.00000
30.10261	3095.00000
30.12259	3084.00000
30.14257	3119.00000
30.16254	3033.00000
30.18252	3131.00000
30.20250	3046.00000
30.22247	3080.00000
30.24245	3025.00000
30.26243	3138.00000
30.28241	3021.00000
30.30238	3042.00000
30.32236	3106.00000
30.34234	3061.00000
30.36231	3084.00000
30.38229	2980.00000
30.40227	3001.00000
30.42224	3097.00000
30.44222	3056.00000
30.46220	3030.00000
30.48218	3031.00000
30.50215	3065.00000
30.52213	3088.00000
30.54211	2998.00000
30.56208	2959.00000
30.58206	2933.00000
30.60204	3126.00000
30.62201	2952.00000
30.64199	3140.00000
30.66197	3056.00000
30.68195	3019.00000
30.70192	3079.00000
30.72190	2999.00000
30.74188	3041.00000
30.76185	2881.00000
30.78183	3016.00000
30.80181	3025.00000
30.82178	3047.00000
30.84176	3038.00000
30.86174	2992.00000
30.88172	2972.00000
30.90169	3015.00000
30.92167	3048.00000
30.94165	2980.00000
30.96162	2999.00000
30.98160	3062.00000
31.00158	3065.00000
31.02155	3062.00000
31.04153	3019.00000
31.06151	3102.00000
31.08149	2997.00000
31.10146	3047.00000
31.12144	3042.00000
31.14142	3047.00000
31.16139	2939.00000
31.18137	3130.00000
31.20135	3058.00000
31.22132	3111.00000
31.24130	3073.00000
31.26128	3048.00000
31.28126	3098.00000
31.30123	3099.00000
31.32121	2993.00000
31.34119	3018.00000
31.36116	3020.00000
31.38114	3069.00000
31.40112	2997.00000
31.42109	3075.00000
31.44107	3004.00000
31.46105	3059.00000
31.48103	3001.00000
31.50100	2951.00000
31.52098	3055.00000
31.54096	3021.00000
31.56093	2853.00000
31.58091	3013.00000
31.60089	3028.00000
31.62086	3024.00000
31.64084	2939.00000
31.66082	3122.00000
31.68080	3025.00000
31.70077	3037.00000
31.72075	3005.00000
31.74073	3010.00000
31.76070	2947.00000
31.78068	3013.00000
31.80066	3000.00000
31.82063	2909.00000
31.84061	3004.00000
31.86059	2870.00000
31.88057	2864.00000
31.90054	2917.00000
31.92052	2941.00000
31.94050	2948.00000
31.96047	2997.00000
31.98045	2877.00000
32.00043	3006.00000
32.02041	2978.00000
32.04038	3017.00000
32.06036	2952.00000
32.08034	2958.00000
32.10031	2975.00000
32.12029	2925.00000
32.14027	2932.00000
32.16024	2964.00000
32.18022	2935.00000
32.20020	2960.00000
32.22018	2851.00000
32.24015	2872.00000
32.26013	2964.00000
32.28011	2926.00000
32.30008	2898.00000
32.32006	2865.00000
32.34004	3059.00000
32.36001	2978.00000
32.37999	2831.00000
32.39997	2862.00000
32.41995	2915.00000
32.43992	2913.00000
32.45990	2838.00000
32.47988	2872.00000
32.49985	2861.00000
32.51983	2832.00000
32.53981	2928.00000
32.55978	2799.00000
32.57976	2813.00000
32.59974	2858.00000
32.61972	2939.00000
32.63969	2910.00000
32.65967	2881.00000
32.67965	2950.00000
32.69962	2856.00000
32.71960	2900.00000
32.73958	2947.00000
32.75955	2974.00000
32.77953	2936.00000
32.79951	2922.00000
32.81949	2967.00000
32.83946	2931.00000
32.85944	2909.00000
32.87942	2963.00000
32.89939	2895.00000
32.91937	2905.00000
32.93935	2898.00000
32.95932	2890.00000
32.97930	2957.00000
32.99928	2903.00000
33.01926	2890.00000
33.03923	2727.00000
33.05921	2941.00000
33.07919	2898.00000
33.09916	2866.00000
33.11914	2875.00000
33.13912	2888.00000
33.15909	2872.00000
33.17907	2886.00000
33.19905	2861.00000
33.21903	2837.00000
33.23900	2833.00000
33.25898	2799.00000
33.27896	2818.00000
33.29893	2904.00000
33.31891	2943.00000
33.33889	2944.00000
33.35886	2848.00000
33.37884	2885.00000
33.39882	2862.00000
33.41880	2922.00000
33.43877	2978.00000
33.45875	2942.00000
33.47873	2902.00000
33.49870	2834.00000
33.51868	2886.00000
33.53866	2862.00000
33.55863	2850.00000
33.57861	2834.00000
33.59859	2913.00000
33.61857	3007.00000
33.63854	2937.00000
33.65852	2976.00000
33.67850	2947.00000
33.69847	2912.00000
33.71845	2959.00000
33.73843	2923.00000
33.75840	3038.00000
33.77838	3124.00000
33.79836	2963.00000
33.81834	3136.00000
33.83831	3180.00000
33.85829	3195.00000
33.87827	3321.00000
33.89824	3322.00000
33.91822	3281.00000
33.93820	3300.00000
33.95817	3242.00000
33.97815	3244.00000
33.99813	3101.00000
34.01811	3123.00000
34.03808	2994.00000
34.05806	2972.00000
34.07804	2873.00000
34.09801	2942.00000
34.11799	3034.00000
34.13797	2894.00000
34.15794	2891.00000
34.17792	2833.00000
34.19790	2917.00000
34.21788	2864.00000
34.23785	2866.00000
34.25783	2828.00000
34.27781	2900.00000
34.29778	2752.00000
34.31776	2840.00000
34.33774	2921.00000
34.35771	2837.00000
34.37769	2910.00000
34.39767	2937.00000
34.41765	2835.00000
34.43762	2816.00000
34.45760	2821.00000
34.47758	2918.00000
34.49755	2871.00000
34.51753	2843.00000
34.53751	2914.00000
34.55748	2863.00000
34.57746	2910.00000
34.59744	2886.00000
34.61742	2827.00000
34.63739	2827.00000
34.65737	2856.00000
34.67735	2929.00000
34.69732	2935.00000
34.71730	2815.00000
34.73728	2778.00000
34.75725	2885.00000
34.77723	2935.00000
34.79721	2840.00000
34.81719	2930.00000
34.83716	2857.00000
34.85714	2951.00000
34.87712	2930.00000
34.89709	2902.00000
34.91707	2918.00000
34.93705	2837.00000
34.95702	2964.00000
34.97700	2904.00000
34.99698	2927.00000
35.01696	2985.00000
35.03693	3043.00000
35.05691	3214.00000
35.07689	3150.00000
35.09686	3309.00000
35.11684	3323.00000
35.13682	3541.00000
35.15679	3802.00000
35.17677	3940.00000
35.19675	4075.00000
35.21673	4047.00000
35.23670	3975.00000
35.25668	3902.00000
35.27666	3817.00000
35.29663	3686.00000
35.31661	3490.00000
35.33659	3454.00000
35.35656	3185.00000
35.37654	3189.00000
35.39652	3056.00000
35.41650	3129.00000
35.43647	3020.00000
35.45645	2927.00000
35.47643	2924.00000
35.49640	2958.00000
35.51638	2972.00000
35.53636	2960.00000
35.55633	2830.00000
35.57631	2830.00000
35.59629	3021.00000
35.61627	2896.00000
35.63624	2830.00000
35.65622	2888.00000
35.67620	2965.00000
35.69617	2981.00000
35.71615	2910.00000
35.73613	2987.00000
35.75610	2919.00000
35.77608	2991.00000
35.79606	2948.00000
35.81604	3009.00000
35.83601	3022.00000
35.85599	3036.00000
35.87597	3059.00000
35.89594	3012.00000
35.91592	3163.00000
35.93590	3350.00000
35.95587	3324.00000
35.97585	3756.00000
35.99583	4049.00000
36.01581	4366.00000
36.03578	4823.00000
36.05576	5211.00000
36.07574	5386.00000
36.09571	5556.00000
36.11569	5317.00000
36.13567	4984.00000
36.15564	4708.00000
36.17562	4399.00000
36.19560	4123.00000
36.21558	3928.00000
36.23555	3558.00000
36.25553	3387.00000
36.27551	3201.00000
36.29548	3054.00000
36.31546	2935.00000
36.33544	3080.00000
36.35541	2977.00000
36.37539	2969.00000
36.39537	2953.00000
36.41535	2989.00000
36.43532	2891.00000
36.45530	2917.00000
36.47528	2925.00000
36.49525	2919.00000
36.51523	2923.00000
36.53521	2929.00000
36.55518	2835.00000
36.57516	2783.00000
36.59514	2847.00000
36.61512	2810.00000
36.63509	2816.00000
36.65507	2869.00000
36.67505	2841.00000
36.69502	2828.00000
36.71500	2885.00000
36.73498	2863.00000
36.75495	2869.00000
36.77493	2811.00000
36.79491	2810.00000
36.81489	2805.00000
36.83486	2734.00000
36.85484	2807.00000
36.87482	2731.00000
36.89479	2795.00000
36.91477	2901.00000
36.93475	2771.00000
36.95472	2832.00000
36.97470	2719.00000
36.99468	2879.00000
37.01466	2838.00000
37.03463	2869.00000
37.05461	2845.00000
37.07459	2869.00000
37.09456	2849.00000
37.11454	2944.00000
37.13452	2802.00000
37.15449	2842.00000
37.17447	2882.00000
37.19445	2822.00000
37.21443	2805.00000
37.23440	2880.00000
37.25438	2824.00000
37.27436	2876.00000
37.29433	2863.00000
37.31431	2851.00000
37.33429	2871.00000
37.35426	2901.00000
37.37424	2906.00000
37.39422	2802.00000
37.41420	2806.00000
37.43417	2770.00000
37.45415	2800.00000
37.47413	2789.00000
37.49410	2764.00000
37.51408	2768.00000
37.53406	2790.00000
37.55403	2784.00000
37.57401	2822.00000
37.59399	2821.00000
37.61397	2828.00000
37.63394	2845.00000
37.65392	2831.00000
37.67390	2838.00000
37.69387	2838.00000
37.71385	2865.00000
37.73383	2778.00000
37.75380	2961.00000
37.77378	2754.00000
37.79376	2774.00000
37.81374	2857.00000
37.83371	2799.00000
37.85369	2916.00000
37.87367	2902.00000
37.89364	3073.00000
37.91362	2884.00000
37.93360	2954.00000
37.95357	2951.00000
37.97355	2993.00000
37.99353	2888.00000
38.01351	2966.00000
38.03348	2906.00000
38.05346	2884.00000
38.07344	2908.00000
38.09341	2849.00000
38.11339	2900.00000
38.13337	2829.00000
38.15334	2782.00000
38.17332	2920.00000
38.19330	2901.00000
38.21328	2887.00000
38.23325	2870.00000
38.25323	2893.00000
38.27321	2821.00000
38.29318	2904.00000
38.31316	2941.00000
38.33314	2889.00000
38.35311	2852.00000
38.37309	2871.00000
38.39307	2888.00000
38.41305	2925.00000
38.43302	2918.00000
38.45300	2816.00000
38.47298	2801.00000
38.49295	2899.00000
38.51293	2945.00000
38.53291	2909.00000
38.55288	2896.00000
38.57286	2815.00000
38.59284	2985.00000
38.61282	2997.00000
38.63279	2986.00000
38.65277	3132.00000
38.67275	3177.00000
38.69272	3310.00000
38.71270	3453.00000
38.73268	3422.00000
38.75265	3455.00000
38.77263	3468.00000
38.79261	3517.00000
38.81259	3348.00000
38.83256	3346.00000
38.85254	3217.00000
38.87252	3141.00000
38.89249	3093.00000
38.91247	2994.00000
38.93245	2952.00000
38.95242	2970.00000
38.97240	2924.00000
38.99238	2884.00000
39.01236	2998.00000
39.03233	2921.00000
39.05231	2900.00000
39.07229	2866.00000
39.09226	2875.00000
39.11224	2945.00000
39.13222	2836.00000
39.15219	2844.00000
39.17217	2782.00000
39.19215	2892.00000
39.21213	2858.00000
39.23210	2768.00000
39.25208	2729.00000
39.27206	2712.00000
39.29203	2677.00000
39.31201	2824.00000
39.33199	2794.00000
39.35196	2908.00000
39.37194	2792.00000
39.39192	2744.00000
39.41190	2823.00000
39.43187	2824.00000
39.45185	2837.00000
39.47183	2863.00000
39.49180	2870.00000
39.51178	2763.00000
39.53176	2770.00000
39.55173	2913.00000
39.57171	2688.00000
39.59169	2765.00000
39.61167	2822.00000
39.63164	2827.00000
39.65162	2840.00000
39.67160	2809.00000
39.69157	2856.00000
39.71155	2734.00000
39.73153	2726.00000
39.75150	2806.00000
39.77148	2832.00000
39.79146	2771.00000
39.81144	2865.00000
39.83141	2783.00000
39.85139	2795.00000
39.87137	2798.00000
39.89134	2799.00000
39.91132	2869.00000
39.93130	2725.00000
39.95127	2755.00000
39.97125	2762.00000
39.99123	2778.00000
40.01121	2739.00000
40.03118	2782.00000
40.05116	2753.00000
40.07114	2856.00000
40.09111	2822.00000
40.11109	2809.00000
40.13107	2783.00000
40.15104	2792.00000
40.17102	2798.00000
40.19100	2675.00000
40.21098	2771.00000
40.23095	2788.00000
40.25093	2760.00000
40.27091	2844.00000
40.29088	2869.00000
40.31086	2849.00000
40.33084	2776.00000
40.35081	2851.00000
40.37079	2848.00000
40.39077	3011.00000
40.41075	2908.00000
40.43072	3055.00000
40.45070	2956.00000
40.47068	2992.00000
40.49065	2926.00000
40.51063	2952.00000
40.53061	2909.00000
40.55058	2833.00000
40.57056	2797.00000
40.59054	2785.00000
40.61052	2812.00000
40.63049	2831.00000
40.65047	2920.00000
40.67045	2778.00000
40.69042	2769.00000
40.71040	2876.00000
40.73038	2832.00000
40.75035	2800.00000
40.77033	2737.00000
40.79031	2725.00000
40.81029	2771.00000
40.83026	2793.00000
40.85024	2816.00000
40.87022	2850.00000
40.89019	2801.00000
40.91017	2763.00000
40.93015	2741.00000
40.95012	2765.00000
40.97010	2716.00000
40.99008	2860.00000
41.01006	2769.00000
41.03003	2798.00000
41.05001	2768.00000
41.06999	2804.00000
41.08996	2765.00000
41.10994	2833.00000
41.12992	2783.00000
41.14989	2719.00000
41.16987	2829.00000
41.18985	2897.00000
41.20983	2868.00000
41.22980	2920.00000
41.24978	2947.00000
41.26976	2878.00000
41.28973	2828.00000
41.30971	2851.00000
41.32969	2871.00000
41.34966	2811.00000
41.36964	2778.00000
41.38962	2667.00000
41.40960	2774.00000
41.42957	2820.00000
41.44955	2774.00000
41.46953	2706.00000
41.48950	2821.00000
41.50948	2742.00000
41.52946	2877.00000
41.54943	2804.00000
41.56941	2969.00000
41.58939	2875.00000
41.60937	2845.00000
41.62934	2875.00000
41.64932	2805.00000
41.66930	2827.00000
41.68927	2776.00000
41.70925	2871.00000
41.72923	2789.00000
41.74920	2755.00000
41.76918	2793.00000
41.78916	2833.00000
41.80914	2866.00000
41.82911	2760.00000
41.84909	2810.00000
41.86907	2791.00000
41.88904	2766.00000
41.90902	2861.00000
41.92900	2809.00000
41.94897	2848.00000
41.96895	2864.00000
41.98893	2897.00000
42.00891	2897.00000
42.02888	2809.00000
42.04886	2845.00000
42.06884	2897.00000
42.08881	2782.00000
42.10879	2881.00000
42.12877	2855.00000
42.14874	3004.00000
42.16872	2736.00000
42.18870	2786.00000
42.20868	2827.00000
42.22865	2855.00000
42.24863	2831.00000
42.26861	2896.00000
42.28858	2837.00000
42.30856	2802.00000
42.32854	2867.00000
42.34851	2904.00000
42.36849	2810.00000
42.38847	2855.00000
42.40845	2825.00000
42.42842	2941.00000
42.44840	2889.00000
42.46838	2908.00000
42.48835	2892.00000
42.50833	2809.00000
42.52831	2920.00000
42.54828	3026.00000
42.56826	3094.00000
42.58824	3134.00000
42.60822	3283.00000
42.62819	3202.00000
42.64817	3451.00000
42.66815	3476.00000
42.68812	3684.00000
42.70810	3845.00000
42.72808	4003.00000
42.74805	4037.00000
42.76803	3988.00000
42.78801	4035.00000
42.80799	3925.00000
42.82796	3816.00000
42.84794	3729.00000
42.86792	3674.00000
42.88789	3536.00000
42.90787	3430.00000
42.92785	3375.00000
42.94782	3188.00000
42.96780	3084.00000
42.98778	3133.00000
43.00776	3058.00000
43.02773	2954.00000
43.04771	3026.00000
43.06769	2959.00000
43.08766	2955.00000
43.10764	3020.00000
43.12762	3105.00000
43.14759	2977.00000
43.16757	3049.00000
43.18755	3105.00000
43.20753	3121.00000
43.22750	3055.00000
43.24748	3028.00000
43.26746	3092.00000
43.28743	3208.00000
43.30741	3099.00000
43.32739	3136.00000
43.34736	3226.00000
43.36734	3214.00000
43.38732	3152.00000
43.40730	3227.00000
43.42727	3319.00000
43.44725	3209.00000
43.46723	3229.00000
43.48720	3235.00000
43.50718	3223.00000
43.52716	3180.00000
43.54713	3240.00000
43.56711	3103.00000
43.58709	3243.00000
43.60707	3195.00000
43.62704	3193.00000
43.64702	3135.00000
43.66700	3190.00000
43.68697	3280.00000
43.70695	3194.00000
43.72693	3243.00000
43.74690	3328.00000
43.76688	3149.00000
43.78686	3251.00000
43.80684	3247.00000
43.82681	3228.00000
43.84679	3309.00000
43.86677	3335.00000
43.88674	3382.00000
43.90672	3454.00000
43.92670	3388.00000
43.94667	3375.00000
43.96665	3351.00000
43.98663	3364.00000
44.00661	3316.00000
44.02658	3375.00000
44.04656	3379.00000
44.06654	3366.00000
44.08651	3406.00000
44.10649	3543.00000
44.12647	3271.00000
44.14644	3454.00000
44.16642	3383.00000
44.18640	3387.00000
44.20638	3309.00000
44.22635	3568.00000
44.24633	3547.00000
44.26631	3576.00000
44.28628	3546.00000
44.30626	3517.00000
44.32624	3659.00000
44.34621	3543.00000
44.36619	3807.00000
44.38617	3822.00000
44.40615	3734.00000
44.42612	3792.00000
44.44610	3835.00000
44.46608	3995.00000
44.48605	3931.00000
44.50603	4070.00000
44.52601	4142.00000
44.54598	4384.00000
44.56596	4469.00000
44.58594	4623.00000
44.60592	4893.00000
44.62589	5230.00000
44.64587	5494.00000
44.66585	5946.00000
44.68582	6231.00000
44.70580	6567.00000
44.72578	7313.00000
44.74575	7797.00000
44.76573	8764.00000
44.78571	9849.00000
44.80569	11568.00000
44.82566	14064.00000
44.84564	17860.00000
44.86562	22802.00000
44.88559	28893.00000
44.90557	36228.00000
44.92555	43802.00000
44.94552	51340.00000
44.96550	57808.00000
44.98548	60269.00000
45.00546	61094.00000
45.02543	59962.00000
45.04541	56219.00000
45.06539	50459.00000
45.08536	45061.00000
45.10534	40099.00000
45.12532	35845.00000
45.14529	31562.00000
45.16527	26680.00000
45.18525	21201.00000
45.20523	17009.00000
45.22520	13942.00000
45.24518	12011.00000
45.26516	10242.00000
45.28513	9152.00000
45.30511	7953.00000
45.32509	7185.00000
45.34506	6587.00000
45.36504	6028.00000
45.38502	5746.00000
45.40500	5280.00000
45.42497	5119.00000
45.44495	4761.00000
45.46493	4537.00000
45.48490	4359.00000
45.50488	4164.00000
45.52486	4167.00000
45.54483	4115.00000
45.56481	3872.00000
45.58479	3914.00000
45.60477	3836.00000
45.62474	3746.00000
45.64472	3679.00000
45.66470	3696.00000
45.68467	3638.00000
45.70465	3551.00000
45.72463	3540.00000
45.74460	3559.00000
45.76458	3388.00000
45.78456	3491.00000
45.80454	3462.00000
45.82451	3366.00000
45.84449	3416.00000
45.86447	3486.00000
45.88444	3243.00000
45.90442	3439.00000
45.92440	3428.00000
45.94437	3321.00000
45.96435	3358.00000
45.98433	3305.00000
46.00431	3291.00000
46.02428	3288.00000
46.04426	3230.00000
46.06424	3292.00000
46.08421	3341.00000
46.10419	3272.00000
46.12417	3385.00000
46.14414	3385.00000
46.16412	3304.00000
46.18410	3272.00000
46.20408	3195.00000
46.22405	3345.00000
46.24403	3348.00000
46.26401	3182.00000
46.28398	3232.00000
46.30396	3223.00000
46.32394	3214.00000
46.34391	3087.00000
46.36389	3198.00000
46.38387	3154.00000
46.40385	3064.00000
46.42382	3185.00000
46.44380	3146.00000
46.46378	2994.00000
46.48375	3118.00000
46.50373	3138.00000
46.52371	2980.00000
46.54368	3001.00000
46.56366	3210.00000
46.58364	3092.00000
46.60362	3006.00000
46.62359	3086.00000
46.64357	3044.00000
46.66355	3034.00000
46.68352	3045.00000
46.70350	3139.00000
46.72348	3108.00000
46.74345	3024.00000
46.76343	2983.00000
46.78341	3088.00000
46.80339	2993.00000
46.82336	3060.00000
46.84334	2946.00000
46.86332	2983.00000
46.88329	3032.00000
46.90327	3036.00000
46.92325	2939.00000
46.94322	3007.00000
46.96320	3039.00000
46.98318	2926.00000
47.00316	3063.00000
47.02313	3077.00000
47.04311	3016.00000
47.06309	2916.00000
47.08306	2898.00000
47.10304	3073.00000
47.12302	3011.00000
47.14299	2960.00000
47.16297	3044.00000
47.18295	3081.00000
47.20293	2979.00000
47.22290	3018.00000
47.24288	2913.00000
47.26286	2936.00000
47.28283	2996.00000
47.30281	2933.00000
47.32279	2954.00000
47.34276	2995.00000
47.36274	2907.00000
47.38272	2997.00000
47.40270	3090.00000
47.42267	3063.00000
47.44265	2979.00000
47.46263	2997.00000
47.48260	3041.00000
47.50258	3026.00000
47.52256	3024.00000
47.54253	3022.00000
47.56251	3000.00000
47.58249	3026.00000
47.60247	2964.00000
47.62244	3039.00000
47.64242	3055.00000
47.66240	2976.00000
47.68237	3052.00000
47.70235	2972.00000
47.72233	3087.00000
47.74230	3031.00000
47.76228	3149.00000
47.78226	3308.00000
47.80224	3190.00000
47.82221	3139.00000
47.84219	3237.00000
47.86217	3248.00000
47.88214	3214.00000
47.90212	3173.00000
47.92210	3310.00000
47.94207	3277.00000
47.96205	3339.00000
47.98203	3313.00000
48.00201	3235.00000
48.02198	3167.00000
48.04196	3229.00000
48.06194	3087.00000
48.08191	3084.00000
48.10189	3188.00000
48.12187	3109.00000
48.14184	3051.00000
48.16182	3045.00000
48.18180	3037.00000
48.20178	2950.00000
48.22175	3136.00000
48.24173	2990.00000
48.26171	3075.00000
48.28168	3022.00000
48.30166	3079.00000
48.32164	3047.00000
48.34161	3108.00000
48.36159	3121.00000
48.38157	2970.00000
48.40155	3009.00000
48.42152	3026.00000
48.44150	3411.00000
48.46148	3490.00000
48.48145	3337.00000
48.50143	3659.00000
48.52141	3674.00000
48.54138	3679.00000
48.56136	3693.00000
48.58134	3644.00000
48.60132	3524.00000
48.62129	3475.00000
48.64127	3388.00000
48.66125	3337.00000
48.68122	3380.00000
48.70120	3342.00000
48.72118	3120.00000
48.74115	3146.00000
48.76113	3127.00000
48.78111	3055.00000
48.80109	3156.00000
48.82106	2995.00000
48.84104	2948.00000
48.86102	2975.00000
48.88099	3048.00000
48.90097	3051.00000
48.92095	2995.00000
48.94092	2919.00000
48.96090	2943.00000
48.98088	3002.00000
49.00086	2958.00000
49.02083	2881.00000
49.04081	2989.00000
49.06079	2892.00000
49.08076	2888.00000
49.10074	2853.00000
49.12072	2815.00000
49.14070	2979.00000
49.16067	3032.00000
49.18065	2949.00000
49.20063	2891.00000
49.22060	2823.00000
49.24058	2964.00000
49.26056	3031.00000
49.28053	2966.00000
49.30051	2967.00000
49.32049	2975.00000
49.34047	3006.00000
49.36044	3004.00000
49.38042	2808.00000
49.40040	3007.00000
49.42037	2939.00000
49.44035	2820.00000
49.46033	2941.00000
49.48030	2852.00000
49.50028	2904.00000
49.52026	2928.00000
49.54024	2908.00000
49.56021	3029.00000
49.58019	2903.00000
49.60017	2964.00000
49.62014	2973.00000
49.64012	2903.00000
49.66010	2968.00000
49.68007	2879.00000
49.70005	2845.00000
49.72003	2954.00000
49.74001	2935.00000
49.75998	2894.00000
49.77996	2948.00000
49.79994	2927.00000
49.81991	2840.00000
49.83989	2909.00000
49.85987	2897.00000
49.87984	2999.00000
49.89982	2836.00000
49.91980	2867.00000
49.93978	2937.00000
49.95975	2885.00000
49.97973	2933.00000
49.99971	2976.00000
50.01968	2899.00000
50.03966	2899.00000
50.05964	2821.00000
50.07961	2879.00000
50.09959	2813.00000
50.11957	2846.00000
50.13955	2842.00000
50.15952	2859.00000
50.17950	2888.00000
50.19948	2933.00000
50.21945	2858.00000
50.23943	2846.00000
50.25941	2809.00000
50.27938	2830.00000
50.29936	2759.00000
50.31934	2937.00000
50.33932	2858.00000
50.35929	2815.00000
50.37927	2818.00000
50.39925	2934.00000
50.41922	2820.00000
50.43920	2866.00000
50.45918	2841.00000
50.47915	2953.00000
50.49913	3048.00000
50.51911	2947.00000
50.53909	2966.00000
50.55906	3059.00000
50.57904	2986.00000
50.59902	3069.00000
50.61899	3027.00000
50.63897	3097.00000
50.65895	3043.00000
50.67892	2890.00000
50.69890	2955.00000
50.71888	2952.00000
50.73886	2920.00000
50.75883	2879.00000
50.77881	2844.00000
50.79879	2905.00000
50.81876	2896.00000
50.83874	2872.00000
50.85872	2959.00000
50.87869	2884.00000
50.89867	2947.00000
50.91865	2889.00000
50.93863	2863.00000
50.95860	2851.00000
50.97858	2886.00000
50.99856	2983.00000
51.01853	2874.00000
51.03851	2910.00000
51.05849	2849.00000
51.07846	2913.00000
51.09844	2966.00000
51.11842	2827.00000
51.13840	2893.00000
51.15837	2995.00000
51.17835	2890.00000
51.19833	2931.00000
51.21830	2814.00000
51.23828	2940.00000
51.25826	2971.00000
51.27823	2903.00000
51.29821	3046.00000
51.31819	2956.00000
51.33817	2966.00000
51.35814	2969.00000
51.37812	2934.00000
51.39810	3029.00000
51.41807	3018.00000
51.43805	3044.00000
51.45803	2961.00000
51.47800	3009.00000
51.49798	2968.00000
51.51796	3005.00000
51.53794	3093.00000
51.55791	3014.00000
51.57789	3047.00000
51.59787	3009.00000
51.61784	3023.00000
51.63782	3013.00000
51.65780	3048.00000
51.67777	3010.00000
51.69775	3284.00000
51.71773	3111.00000
51.73771	3174.00000
51.75768	3115.00000
51.77766	3262.00000
51.79764	3294.00000
51.81761	3256.00000
51.83759	3427.00000
51.85757	3295.00000
51.87754	3192.00000
51.89752	3297.00000
51.91750	3174.00000
51.93748	3225.00000
51.95745	3216.00000
51.97743	3198.00000
51.99741	3051.00000
52.01738	3159.00000
52.03736	3124.00000
52.05734	3025.00000
52.07731	3097.00000
52.09729	3064.00000
52.11727	3050.00000
52.13725	3078.00000
52.15722	3114.00000
52.17720	3002.00000
52.19718	2985.00000
52.21715	3001.00000
52.23713	3038.00000
52.25711	3127.00000
52.27708	3133.00000
52.29706	3028.00000
52.31704	3045.00000
52.33702	3055.00000
52.35699	3055.00000
52.37697	3215.00000
52.39695	3067.00000
52.41692	3134.00000
52.43690	3228.00000
52.45688	3170.00000
52.47685	3078.00000
52.49683	3167.00000
52.51681	3148.00000
52.53679	3110.00000
52.55676	3118.00000
52.57674	3225.00000
52.59672	3296.00000
52.61669	3273.00000
52.63667	3179.00000
52.65665	3273.00000
52.67662	3214.00000
52.69660	3374.00000
52.71658	3387.00000
52.73656	3425.00000
52.75653	3397.00000
52.77651	3446.00000
52.79649	3664.00000
52.81646	3478.00000
52.83644	3664.00000
52.85642	3847.00000
52.87639	3971.00000
52.89637	4076.00000
52.91635	4219.00000
52.93633	4356.00000
52.95630	4618.00000
52.97628	4661.00000
52.99626	4963.00000
53.01623	5220.00000
53.03621	5459.00000
53.05619	5726.00000
53.07616	6551.00000
53.09614	7174.00000
53.11612	8175.00000
53.13610	9471.00000
53.15607	11622.00000
53.17605	14826.00000
53.19603	18657.00000
53.21600	22363.00000
53.23598	26224.00000
53.25596	28393.00000
53.27593	29173.00000
53.29591	27828.00000
53.31589	26378.00000
53.33587	26136.00000
53.35584	26688.00000
53.37582	27310.00000
53.39580	27519.00000
53.41577	25995.00000
53.43575	22832.00000
53.45573	19288.00000
53.47570	16921.00000
53.49568	15073.00000
53.51566	14079.00000
53.53564	13116.00000
53.55561	11750.00000
53.57559	10279.00000
53.59557	9037.00000
53.61554	8040.00000
53.63552	7124.00000
53.65550	6396.00000
53.67547	5838.00000
53.69545	5490.00000
53.71543	5104.00000
53.73541	4881.00000
53.75538	4716.00000
53.77536	4472.00000
53.79534	4244.00000
53.81531	4158.00000
53.83529	3933.00000
53.85527	3749.00000
53.87524	3841.00000
53.89522	3698.00000
53.91520	3808.00000
53.93518	3644.00000
53.95515	3799.00000
53.97513	3732.00000
53.99511	3780.00000
54.01508	3649.00000
54.03506	3568.00000
54.05504	3540.00000
54.07501	3483.00000
54.09499	3462.00000
54.11497	3461.00000
54.13495	3322.00000
54.15492	3270.00000
54.17490	3324.00000
54.19488	3183.00000
54.21485	3136.00000
54.23483	3065.00000
54.25481	3006.00000
54.27478	3093.00000
54.29476	3046.00000
54.31474	3079.00000
54.33472	3060.00000
54.35469	3012.00000
54.37467	3078.00000
54.39465	2958.00000
54.41462	2952.00000
54.43460	3064.00000
54.45458	2997.00000
54.47455	2994.00000
54.49453	3027.00000
54.51451	2894.00000
54.53449	2985.00000
54.55446	2991.00000
54.57444	2896.00000
54.59442	3004.00000
54.61439	2894.00000
54.63437	2917.00000
54.65435	2904.00000
54.67432	2957.00000
54.69430	2912.00000
54.71428	3007.00000
54.73426	2943.00000
54.75423	2963.00000
54.77421	2967.00000
54.79419	3005.00000
54.81416	2952.00000
54.83414	2918.00000
54.85412	2909.00000
54.87409	2870.00000
54.89407	2862.00000
54.91405	2874.00000
54.93403	2889.00000
54.95400	2915.00000
54.97398	2911.00000
54.99396	2988.00000
55.01393	2764.00000
55.03391	2856.00000
55.05389	2902.00000
55.07386	2978.00000
55.09384	2844.00000
55.11382	2834.00000
55.13380	2873.00000
55.15377	2894.00000
55.17375	2894.00000
55.19373	2957.00000
55.21370	2824.00000
55.23368	2870.00000
55.25366	2848.00000
55.27363	2930.00000
55.29361	2847.00000
55.31359	2908.00000
55.33357	2879.00000
55.35354	2928.00000
55.37352	2761.00000
55.39350	2820.00000
55.41347	2880.00000
55.43345	2903.00000
55.45343	2819.00000
55.47340	2774.00000
55.49338	2863.00000
55.51336	2871.00000
55.53334	2791.00000
55.55331	2848.00000
55.57329	2890.00000
55.59327	2836.00000
55.61324	2882.00000
55.63322	2818.00000
55.65320	2914.00000
55.67317	2760.00000
55.69315	2825.00000
55.71313	2784.00000
55.73311	2724.00000
55.75308	2814.00000
55.77306	2906.00000
55.79304	2818.00000
55.81301	2882.00000
55.83299	2770.00000
55.85297	2819.00000
55.87294	2822.00000
55.89292	2931.00000
55.91290	2745.00000
55.93288	2832.00000
55.95285	2808.00000
55.97283	2795.00000
55.99281	2799.00000
56.01278	2772.00000
56.03276	2872.00000
56.05274	2808.00000
56.07271	2748.00000
56.09269	2833.00000
56.11267	2810.00000
56.13265	2846.00000
56.15262	2829.00000
56.17260	2785.00000
56.19258	2683.00000
56.21255	2770.00000
56.23253	2779.00000
56.25251	2830.00000
56.27248	2695.00000
56.29246	2740.00000
56.31244	2814.00000
56.33242	2776.00000
56.35239	2817.00000
56.37237	2907.00000
56.39235	2756.00000
56.41232	2768.00000
56.43230	2770.00000
56.45228	2749.00000
56.47225	2853.00000
56.49223	2748.00000
56.51221	2722.00000
56.53219	2851.00000
56.55216	2733.00000
56.57214	2761.00000
56.59212	2788.00000
56.61209	2856.00000
56.63207	2728.00000
56.65205	2839.00000
56.67202	2766.00000
56.69200	2796.00000
56.71198	2759.00000
56.73196	2870.00000
56.75193	2879.00000
56.77191	2817.00000
56.79189	2798.00000
56.81186	2808.00000
56.83184	2749.00000
56.85182	2725.00000
56.87179	2782.00000
56.89177	2792.00000
56.91175	2695.00000
56.93173	2704.00000
56.95170	2801.00000
56.97168	2775.00000
56.99166	2822.00000
57.01163	2875.00000
57.03161	2734.00000
57.05159	2728.00000
57.07156	2777.00000
57.09154	2848.00000
57.11152	2815.00000
57.13150	2746.00000
57.15147	2753.00000
57.17145	2818.00000
57.19143	2811.00000
57.21140	2873.00000
57.23138	2689.00000
57.25136	2629.00000
57.27133	2731.00000
57.29131	2694.00000
57.31129	2877.00000
57.33127	2844.00000
57.35124	2790.00000
57.37122	2775.00000
57.39120	2672.00000
57.41117	2725.00000
57.43115	2781.00000
57.45113	2850.00000
57.47110	2779.00000
57.49108	2770.00000
57.51106	2721.00000
57.53104	2744.00000
57.55101	2767.00000
57.57099	2696.00000
57.59097	2788.00000
57.61094	2811.00000
57.63092	2746.00000
57.65090	2719.00000
57.67087	2708.00000
57.69085	2665.00000
57.71083	2767.00000
57.73081	2838.00000
57.75078	2679.00000
57.77076	2714.00000
57.79074	2714.00000
57.81071	2872.00000
57.83069	2795.00000
57.85067	2751.00000
57.87064	2766.00000
57.89062	2806.00000
57.91060	2731.00000
57.93058	2694.00000
57.95055	2789.00000
57.97053	2747.00000
57.99051	2740.00000
58.01048	2729.00000
58.03046	2787.00000
58.05044	2826.00000
58.07041	2728.00000
58.09039	2847.00000
58.11037	2768.00000
58.13035	2743.00000
58.15032	2748.00000
58.17030	2722.00000
58.19028	2736.00000
58.21025	2792.00000
58.23023	2739.00000
58.25021	2744.00000
58.27018	2672.00000
58.29016	2841.00000
58.31014	2670.00000
58.33012	2715.00000
58.35009	2653.00000
58.37007	2780.00000
58.39005	2708.00000
58.41002	2776.00000
58.43000	2809.00000
58.44998	2890.00000
58.46995	2817.00000
58.48993	2759.00000
58.50991	2663.00000
58.52989	2848.00000
58.54986	2647.00000
58.56984	2739.00000
58.58982	2939.00000
58.60979	2794.00000
58.62977	2792.00000
58.64975	2719.00000
58.66972	2729.00000
58.68970	2794.00000
58.70968	2778.00000
58.72966	2828.00000
58.74963	2742.00000
58.76961	2809.00000
58.78959	2827.00000
58.80956	2785.00000
58.82954	2836.00000
58.84952	2864.00000
58.86949	2948.00000
58.88947	2870.00000
58.90945	2908.00000
58.92943	2884.00000
58.94940	2921.00000
58.96938	2882.00000
58.98936	2852.00000
59.00933	2831.00000
59.02931	2780.00000
59.04929	2961.00000
59.06926	2934.00000
59.08924	2896.00000
59.10922	2923.00000
59.12920	2884.00000
59.14917	2846.00000
59.16915	2773.00000
59.18913	2846.00000
59.20910	2717.00000
59.22908	2819.00000
59.24906	2680.00000
59.26903	2801.00000
59.28901	2795.00000
59.30899	2778.00000
59.32897	2854.00000
59.34894	2787.00000
59.36892	2723.00000
59.38890	2680.00000
59.40887	2700.00000
59.42885	2747.00000
59.44883	2766.00000
59.46880	2575.00000
59.48878	2641.00000
59.50876	2719.00000
59.52874	2789.00000
59.54871	2741.00000
59.56869	2676.00000
59.58867	2692.00000
59.60864	2629.00000
59.62862	2645.00000
59.64860	2716.00000
59.66857	2713.00000
59.68855	2687.00000
59.70853	2731.00000
59.72851	2692.00000
59.74848	2746.00000
59.76846	2743.00000
59.78844	2667.00000
59.80841	2619.00000
59.82839	2682.00000
59.84837	2582.00000
59.86834	2626.00000
59.88832	2656.00000
59.90830	2755.00000
59.92828	2635.00000
59.94825	2677.00000
59.96823	2748.00000
59.98821	2657.00000
60.00818	2658.00000
60.02816	2639.00000
60.04814	2684.00000
60.06811	2620.00000
60.08809	2768.00000
60.10807	2719.00000
60.12805	2697.00000
60.14802	2650.00000
60.16800	2725.00000
60.18798	2686.00000
60.20795	2641.00000
60.22793	2663.00000
60.24791	2687.00000
60.26788	2603.00000
60.28786	2581.00000
60.30784	2779.00000
60.32782	2692.00000
60.34779	2800.00000
60.36777	2727.00000
60.38775	2594.00000
60.40772	2704.00000
60.42770	2622.00000
60.44768	2713.00000
60.46765	2638.00000
60.48763	2782.00000
60.50761	2593.00000
60.52759	2706.00000
60.54756	2719.00000
60.56754	2720.00000
60.58752	2676.00000
60.60749	2701.00000
60.62747	2718.00000
60.64745	2704.00000
60.66742	2772.00000
60.68740	2792.00000
60.70738	3015.00000
60.72736	2906.00000
60.74733	2908.00000
60.76731	2948.00000
60.78729	3014.00000
60.80726	2971.00000
60.82724	2987.00000
60.84722	2949.00000
60.86719	2914.00000
60.88717	2915.00000
60.90715	2820.00000
60.92713	2931.00000
60.94710	2891.00000
60.96708	2909.00000
60.98706	2834.00000
61.00703	2880.00000
61.02701	2802.00000
61.04699	2803.00000
61.06696	2681.00000
61.08694	2747.00000
61.10692	2732.00000
61.12690	2672.00000
61.14687	2732.00000
61.16685	2734.00000
61.18683	2686.00000
61.20680	2718.00000
61.22678	2744.00000
61.24676	2730.00000
61.26673	2744.00000
61.28671	2646.00000
61.30669	2717.00000
61.32667	2644.00000
61.34664	2747.00000
61.36662	2646.00000
61.38660	2660.00000
61.40657	2738.00000
61.42655	2640.00000
61.44653	2577.00000
61.46650	2715.00000
61.48648	2738.00000
61.50646	2707.00000
61.52644	2741.00000
61.54641	2668.00000
61.56639	2642.00000
61.58637	2635.00000
61.60634	2725.00000
61.62632	2695.00000
61.64630	2749.00000
61.66627	2632.00000
61.68625	2734.00000
61.70623	2685.00000
61.72621	2726.00000
61.74618	2727.00000
61.76616	2826.00000
61.78614	2741.00000
61.80611	2689.00000
61.82609	2663.00000
61.84607	2681.00000
61.86604	2767.00000
61.88602	2703.00000
61.90600	2784.00000
61.92598	2775.00000
61.94595	2640.00000
61.96593	2669.00000
61.98591	2740.00000
62.00588	2683.00000
62.02586	2689.00000
62.04584	2548.00000
62.06581	2794.00000
62.08579	2736.00000
62.10577	2649.00000
62.12575	2777.00000
62.14572	2695.00000
62.16570	2629.00000
62.18568	2727.00000
62.20565	2707.00000
62.22563	2784.00000
62.24561	2726.00000
62.26558	2694.00000
62.28556	2663.00000
62.30554	2680.00000
62.32552	2770.00000
62.34549	2662.00000
62.36547	2708.00000
62.38545	2713.00000
62.40542	2799.00000
62.42540	2738.00000
62.44538	2746.00000
62.46535	2743.00000
62.48533	2684.00000
62.50531	2704.00000
62.52529	2711.00000
62.54526	2722.00000
62.56524	2704.00000
62.58522	2696.00000
62.60519	2734.00000
62.62517	2686.00000
62.64515	2657.00000
62.66512	2657.00000
62.68510	2602.00000
62.70508	2762.00000
62.72506	2731.00000
62.74503	2809.00000
62.76501	2774.00000
62.78499	2723.00000
62.80496	2699.00000
62.82494	2642.00000
62.84492	2741.00000
62.86489	2710.00000
62.88487	2699.00000
62.90485	2747.00000
62.92483	2750.00000
62.94480	2839.00000
62.96478	2706.00000
62.98476	2675.00000
63.00473	2827.00000
63.02471	2787.00000
63.04469	2687.00000
63.06466	2749.00000
63.08464	2771.00000
63.10462	2748.00000
63.12460	2697.00000
63.14457	2717.00000
63.16455	2745.00000
63.18453	2723.00000
63.20450	2798.00000
63.22448	2746.00000
63.24446	2886.00000
63.26443	2802.00000
63.28441	2737.00000
63.30439	2781.00000
63.32437	2724.00000
63.34434	2784.00000
63.36432	2746.00000
63.38430	2734.00000
63.40427	2787.00000
63.42425	2904.00000
63.44423	2706.00000
63.46420	2840.00000
63.48418	2728.00000
63.50416	2803.00000
63.52414	2920.00000
63.54411	2834.00000
63.56409	2755.00000
63.58407	2882.00000
63.60404	2945.00000
63.62402	3141.00000
63.64400	3071.00000
63.66397	3253.00000
63.68395	3307.00000
63.70393	3503.00000
63.72391	3507.00000
63.74388	3399.00000
63.76386	3417.00000
63.78384	3189.00000
63.80381	3185.00000
63.82379	3244.00000
63.84377	3138.00000
63.86374	3252.00000
63.88372	3194.00000
63.90370	3292.00000
63.92368	3251.00000
63.94365	3239.00000
63.96363	3024.00000
63.98361	2956.00000
64.00358	2839.00000
64.02356	2797.00000
64.04354	2825.00000
64.06351	2758.00000
64.08349	2829.00000
64.10347	2744.00000
64.12345	2769.00000
64.14342	2819.00000
64.16340	2717.00000
64.18338	2759.00000
64.20335	2862.00000
64.22333	2800.00000
64.24331	2725.00000
64.26328	2726.00000
64.28326	2753.00000
64.30324	2822.00000
64.32322	2807.00000
64.34319	2778.00000
64.36317	2770.00000
64.38315	2761.00000
64.40312	2851.00000
64.42310	2770.00000
64.44308	2764.00000
64.46305	2733.00000
64.48303	2758.00000
64.50301	2830.00000
64.52299	2754.00000
64.54296	2787.00000
64.56294	2787.00000
64.58292	2836.00000
64.60289	2824.00000
64.62287	2864.00000
64.64285	2796.00000
64.66282	2751.00000
64.68280	2846.00000
64.70278	2955.00000
64.72276	2783.00000
64.74273	2854.00000
64.76271	2925.00000
64.78269	2828.00000
64.80266	2938.00000
64.82264	2816.00000
64.84262	2899.00000
64.86259	2833.00000
64.88257	2909.00000
64.90255	2848.00000
64.92253	2942.00000
64.94250	2918.00000
64.96248	2768.00000
64.98246	2876.00000
65.00243	2952.00000
65.02241	2882.00000
65.04239	3058.00000
65.06236	3208.00000
65.08234	3151.00000
65.10232	3227.00000
65.12230	3241.00000
65.14227	3078.00000
65.16225	3231.00000
65.18223	3313.00000
65.20220	3302.00000
65.22218	3554.00000
65.24216	3682.00000
65.26213	3851.00000
65.28211	4126.00000
65.30209	4521.00000
65.32207	4921.00000
65.34204	5576.00000
65.36202	6277.00000
65.38200	7045.00000
65.40197	7417.00000
65.42195	7620.00000
65.44193	7463.00000
65.46190	7094.00000
65.48188	6671.00000
65.50186	6630.00000
65.52184	6377.00000
65.54181	6496.00000
65.56179	6834.00000
65.58177	7147.00000
65.60174	7086.00000
65.62172	7196.00000
65.64170	6729.00000
65.66167	6440.00000
65.68165	6035.00000
65.70163	5430.00000
65.72161	5094.00000
65.74158	4880.00000
65.76156	4674.00000
65.78154	4622.00000
65.80151	4486.00000
65.82149	4421.00000
65.84147	4366.00000
65.86144	4205.00000
65.88142	3991.00000
65.90140	3897.00000
65.92138	3722.00000
65.94135	3443.00000
65.96133	3467.00000
65.98131	3371.00000
66.00128	3318.00000
66.02126	3232.00000
66.04124	3125.00000
66.06122	3132.00000
66.08119	3005.00000
66.10117	3083.00000
66.12115	3093.00000
66.14112	3013.00000
66.16110	2932.00000
66.18108	2977.00000
66.20105	2987.00000
66.22103	2883.00000
66.24101	2869.00000
66.26099	2830.00000
66.28096	2748.00000
66.30094	2912.00000
66.32092	2873.00000
66.34089	2766.00000
66.36087	2797.00000
66.38085	2845.00000
66.40082	2702.00000
66.42080	2868.00000
66.44078	2781.00000
66.46076	2749.00000
66.48073	2809.00000
66.50071	2797.00000
66.52069	2718.00000
66.54066	2754.00000
66.56064	2774.00000
66.58062	2820.00000
66.60059	2769.00000
66.62057	2833.00000
66.64055	2751.00000
66.66053	2797.00000
66.68050	2738.00000
66.70048	2694.00000
66.72046	2794.00000
66.74043	2695.00000
66.76041	2817.00000
66.78039	2747.00000
66.80036	2682.00000
66.82034	2720.00000
66.84032	2692.00000
66.86030	2694.00000
66.88027	2706.00000
66.90025	2815.00000
66.92023	2703.00000
66.94020	2863.00000
66.96018	2779.00000
66.98016	2757.00000
67.00013	2734.00000
67.02011	2687.00000
67.04009	2809.00000
67.06007	2756.00000
67.08004	2755.00000
67.10002	2715.00000
67.12000	2759.00000
67.13997	2759.00000
67.15995	2780.00000
67.17993	2706.00000
67.19990	2711.00000
67.21988	2750.00000
67.23986	2620.00000
67.25984	2770.00000
67.27981	2681.00000
67.29979	2795.00000
67.31977	2818.00000
67.33974	2773.00000
67.35972	2829.00000
67.37970	2738.00000
67.39967	2740.00000
67.41965	2848.00000
67.43963	2599.00000
67.45961	2673.00000
67.47958	2655.00000
67.49956	2790.00000
67.51954	2763.00000
67.53951	2731.00000
67.55949	2745.00000
67.57947	2757.00000
67.59944	2764.00000
67.61942	2729.00000
67.63940	2752.00000
67.65938	2797.00000
67.67935	2864.00000
67.69933	2893.00000
67.71931	2874.00000
67.73928	2962.00000
67.75926	2842.00000
67.77924	2960.00000
67.79921	3022.00000
67.81919	3052.00000
67.83917	3083.00000
67.85915	3002.00000
67.87912	3014.00000
67.89910	2933.00000
67.91908	2965.00000
67.93905	2854.00000
67.95903	2906.00000
67.97901	2857.00000
67.99898	2932.00000
68.01896	2990.00000
68.03894	2769.00000
68.05892	2846.00000
68.07889	2899.00000
68.09887	2840.00000
68.11885	2783.00000
68.13882	2920.00000
68.15880	2862.00000
68.17878	2874.00000
68.19875	2914.00000
68.21873	3012.00000
68.23871	3061.00000
68.25869	2954.00000
68.27866	2926.00000
68.29864	2960.00000
68.31862	3128.00000
68.33859	3025.00000
68.35857	3029.00000
68.37855	3229.00000
68.39852	3214.00000
68.41850	3312.00000
68.43848	3116.00000
68.45846	3178.00000
68.47843	3037.00000
68.49841	3067.00000
68.51839	2987.00000
68.53836	2896.00000
68.55834	2984.00000
68.57832	2960.00000
68.59829	2960.00000
68.61827	2879.00000
68.63825	2913.00000
68.65823	3023.00000
68.67820	2874.00000
68.69818	2908.00000
68.71816	2844.00000
68.73813	2835.00000
68.75811	2797.00000
68.77809	2886.00000
68.79806	2722.00000
68.81804	2753.00000
68.83802	2799.00000
68.85800	2760.00000
68.87797	2714.00000
68.89795	2756.00000
68.91793	2704.00000
68.93790	2764.00000
68.95788	2730.00000
68.97786	2727.00000
68.99783	2681.00000
69.01781	2713.00000
69.03779	2765.00000
69.05777	2812.00000
69.07774	2694.00000
69.09772	2742.00000
69.11770	2742.00000
69.13767	2735.00000
69.15765	2764.00000
69.17763	2660.00000
69.19760	2791.00000
69.21758	2726.00000
69.23756	2718.00000
69.25754	2796.00000
69.27751	2762.00000
69.29749	2763.00000
69.31747	2736.00000
69.33744	2860.00000
69.35742	2700.00000
69.37740	2770.00000
69.39737	2750.00000
69.41735	2778.00000
69.43733	2796.00000
69.45731	2742.00000
69.47728	2775.00000
69.49726	2873.00000
69.51724	2788.00000
69.53721	2786.00000
69.55719	2768.00000
69.57717	2785.00000
69.59714	2698.00000
69.61712	2706.00000
69.63710	2828.00000
69.65708	2850.00000
69.67705	2700.00000
69.69703	2858.00000
69.71701	2725.00000
69.73698	2819.00000
69.75696	2805.00000
69.77694	2679.00000
69.79691	2766.00000
69.81689	2680.00000
69.83687	2806.00000
69.85685	2749.00000
69.87682	2763.00000
69.89680	2854.00000
69.91678	2760.00000
69.93675	2738.00000
69.95673	2802.00000
69.97671	2945.00000
69.99668	2890.00000
70.01666	2865.00000
70.03664	2933.00000
70.05662	2741.00000
70.07659	2921.00000
70.09657	2892.00000
70.11655	2820.00000
70.13652	2902.00000
70.15650	2967.00000
70.17648	2890.00000
70.19645	3007.00000
70.21643	2892.00000
70.23641	2844.00000
70.25639	2828.00000
70.27636	2843.00000
70.29634	2901.00000
70.31632	2918.00000
70.33629	2858.00000
70.35627	2824.00000
70.37625	2978.00000
70.39622	2872.00000
70.41620	2774.00000
70.43618	2741.00000
70.45616	2788.00000
70.47613	2839.00000
70.49611	2821.00000
70.51609	2776.00000
70.53606	2834.00000
70.55604	2741.00000
70.57602	2813.00000
70.59599	2954.00000
70.61597	2787.00000
70.63595	2846.00000
70.65593	2884.00000
70.67590	2860.00000
70.69588	2800.00000
70.71586	2798.00000
70.73583	2842.00000
70.75581	2814.00000
70.77579	2763.00000
70.79576	2847.00000
70.81574	2804.00000
70.83572	2781.00000
70.85570	2809.00000
70.87567	2787.00000
70.89565	2852.00000
70.91563	2744.00000
70.93560	2848.00000
70.95558	2800.00000
70.97556	2775.00000
70.99553	2752.00000
71.01551	2759.00000
71.03549	2810.00000
71.05547	2804.00000
71.07544	2746.00000
71.09542	2664.00000
71.11540	2945.00000
71.13537	2820.00000
71.15535	2744.00000
71.17533	2824.00000
71.19530	2858.00000
71.21528	2915.00000
71.23526	2764.00000
71.25524	2847.00000
71.27521	2804.00000
71.29519	2815.00000
71.31517	2926.00000
71.33514	2951.00000
71.35512	2835.00000
71.37510	2902.00000
71.39507	2907.00000
71.41505	2950.00000
71.43503	2863.00000
71.45501	2849.00000
71.47498	2927.00000
71.49496	2946.00000
71.51494	2829.00000
71.53491	2958.00000
71.55489	3019.00000
71.57487	2971.00000
71.59484	2908.00000
71.61482	2977.00000
71.63480	3001.00000
71.65478	2938.00000
71.67475	3037.00000
71.69473	3051.00000
71.71471	2961.00000
71.73468	3028.00000
71.75466	3086.00000
71.77464	3144.00000
71.79461	3073.00000
71.81459	3223.00000
71.83457	3238.00000
71.85455	3282.00000
71.87452	3245.00000
71.89450	3402.00000
71.91448	3570.00000
71.93445	3629.00000
71.95443	3642.00000
71.97441	3817.00000
71.99438	4014.00000
72.01436	4129.00000
72.03434	4650.00000
72.05432	4916.00000
72.07429	5543.00000
72.09427	6128.00000
72.11425	6983.00000
72.13422	7646.00000
72.15420	8164.00000
72.17418	9005.00000
72.19415	9157.00000
72.21413	9772.00000
72.23411	10414.00000
72.25409	10625.00000
72.27406	10476.00000
72.29404	10258.00000
72.31402	9569.00000
72.33399	8808.00000
72.35397	8327.00000
72.37395	7892.00000
72.39392	7935.00000
72.41390	7718.00000
72.43388	7680.00000
72.45386	7564.00000
72.47383	7459.00000
72.49381	6906.00000
72.51379	6427.00000
72.53376	5738.00000
72.55374	5344.00000
72.57372	4782.00000
72.59369	4638.00000
72.61367	4415.00000
72.63365	4383.00000
72.65363	4293.00000
72.67360	4277.00000
72.69358	4070.00000
72.71356	4111.00000
72.73353	4207.00000
72.75351	3986.00000
72.77349	3991.00000
72.79346	3959.00000
72.81344	3616.00000
72.83342	3740.00000
72.85340	3598.00000
72.87337	3553.00000
72.89335	3589.00000
72.91333	3435.00000
72.93330	3406.00000
72.95328	3381.00000
72.97326	3391.00000
72.99323	3291.00000
73.01321	3342.00000
73.03319	3206.00000
73.05317	3186.00000
73.07314	3102.00000
73.09312	3006.00000
73.11310	3031.00000
73.13307	3091.00000
73.15305	2993.00000
73.17303	2925.00000
73.19300	3017.00000
73.21298	2870.00000
73.23296	2933.00000
73.25294	3018.00000
73.27291	2919.00000
73.29289	2861.00000
73.31287	2864.00000
73.33284	2895.00000
73.35282	2864.00000
73.37280	2860.00000
73.39277	2861.00000
73.41275	2955.00000
73.43273	2860.00000
73.45271	2836.00000
73.47268	2795.00000
73.49266	2925.00000
73.51264	2839.00000
73.53261	2934.00000
73.55259	2804.00000
73.57257	2912.00000
73.59254	2794.00000
73.61252	2875.00000
73.63250	2815.00000
73.65248	2884.00000
73.67245	2764.00000
73.69243	2808.00000
73.71241	2840.00000
73.73238	2825.00000
73.75236	2907.00000
73.77234	2888.00000
73.79231	2849.00000
73.81229	2848.00000
73.83227	2833.00000
73.85225	2804.00000
73.87222	2708.00000
73.89220	2770.00000
73.91218	2814.00000
73.93215	2816.00000
73.95213	2785.00000
73.97211	2894.00000
73.99208	2793.00000
74.01206	2669.00000
74.03204	2745.00000
74.05202	2710.00000
74.07199	2848.00000
74.09197	2806.00000
74.11195	2779.00000
74.13192	2885.00000
74.15190	2791.00000
74.17188	2746.00000
74.19185	2760.00000
74.21183	2885.00000
74.23181	2765.00000
74.25179	2700.00000
74.27176	2708.00000
74.29174	2812.00000
74.31172	2748.00000
74.33169	2764.00000
74.35167	2882.00000
74.37165	2948.00000
74.39162	2788.00000
74.41160	2811.00000
74.43158	2839.00000
74.45156	2815.00000
74.47153	2908.00000
74.49151	2823.00000
74.51149	2806.00000
74.53146	2794.00000
74.55144	2725.00000
74.57142	2818.00000
74.59139	2799.00000
74.61137	2736.00000
74.63135	2747.00000
74.65133	2825.00000
74.67130	2778.00000
74.69128	2753.00000
74.71126	2779.00000
74.73123	2825.00000
74.75121	2700.00000
74.77119	2878.00000
74.79116	2627.00000
74.81114	2769.00000
74.83112	2765.00000
74.85110	2769.00000
74.87107	2802.00000
74.89105	2769.00000
74.91103	2737.00000
74.93100	2756.00000
74.95098	2698.00000
74.97096	2720.00000
74.99093	2754.00000
75.01091	2742.00000
75.03089	2722.00000
75.05087	2743.00000
75.07084	2740.00000
75.09082	2719.00000
75.11080	2791.00000
75.13077	2766.00000
75.15075	2787.00000
75.17073	2777.00000
75.19070	2720.00000
75.21068	2782.00000
75.23066	2804.00000
75.25064	2740.00000
75.27061	2800.00000
75.29059	2720.00000
75.31057	2789.00000
75.33054	2819.00000
75.35052	2816.00000
75.37050	2759.00000
75.39047	2787.00000
75.41045	2857.00000
75.43043	2742.00000
75.45041	2803.00000
75.47038	2780.00000
75.49036	2662.00000
75.51034	2780.00000
75.53031	2847.00000
75.55029	2747.00000
75.57027	2754.00000
75.59024	2801.00000
75.61022	2632.00000
75.63020	2668.00000
75.65018	2767.00000
75.67015	2857.00000
75.69013	2690.00000
75.71011	2834.00000
75.73008	2773.00000
75.75006	2746.00000
75.77004	2792.00000
75.79001	2811.00000
75.80999	2839.00000
75.82997	2740.00000
75.84995	2719.00000
75.86992	2808.00000
75.88990	2723.00000
75.90988	2758.00000
75.92985	2768.00000
75.94983	2729.00000
75.96981	2893.00000
75.98978	2792.00000
76.00976	2821.00000
76.02974	2905.00000
76.04972	2771.00000
76.06969	2819.00000
76.08967	2759.00000
76.10965	2762.00000
76.12962	2829.00000
76.14960	2734.00000
76.16958	2825.00000
76.18955	2813.00000
76.20953	2712.00000
76.22951	2748.00000
76.24949	2772.00000
76.26946	2770.00000
76.28944	2799.00000
76.30942	2745.00000
76.32939	2746.00000
76.34937	2818.00000
76.36935	2793.00000
76.38932	2749.00000
76.40930	2755.00000
76.42928	2759.00000
76.44926	2865.00000
76.46923	2886.00000
76.48921	2878.00000
76.50919	2933.00000
76.52916	2844.00000
76.54914	2969.00000
76.56912	2897.00000
76.58909	2891.00000
76.60907	2849.00000
76.62905	2874.00000
76.64903	2852.00000
76.66900	2861.00000
76.68898	2905.00000
76.70896	2856.00000
76.72893	2882.00000
76.74891	2970.00000
76.76889	2850.00000
76.78886	2834.00000
76.80884	2886.00000
76.82882	2895.00000
76.84880	2664.00000
76.86877	2824.00000
76.88875	2758.00000
76.90873	2889.00000
76.92870	2871.00000
76.94868	2769.00000
76.96866	2804.00000
76.98863	2834.00000
77.00861	2814.00000
77.02859	2908.00000
77.04857	2842.00000
77.06854	2786.00000
77.08852	2847.00000
77.10850	2839.00000
77.12847	2885.00000
77.14845	2909.00000
77.16843	2994.00000
77.18840	2955.00000
77.20838	2997.00000
77.22836	3012.00000
77.24834	2901.00000
77.26831	2798.00000
77.28829	2941.00000
77.30827	2840.00000
77.32824	2774.00000
77.34822	2977.00000
77.36820	2800.00000
77.38817	2829.00000
77.40815	2836.00000
77.42813	2872.00000
77.44811	2825.00000
77.46808	2967.00000
77.48806	2778.00000
77.50804	2767.00000
77.52801	2894.00000
77.54799	2794.00000
77.56797	2831.00000
77.58794	2796.00000
77.60792	2853.00000
77.62790	2800.00000
77.64788	2829.00000
77.66785	2809.00000
77.68783	2792.00000
77.70781	2730.00000
77.72778	2817.00000
77.74776	2837.00000
77.76774	2804.00000
77.78771	2692.00000
77.80769	2750.00000
77.82767	2787.00000
77.84765	2849.00000
77.86762	2758.00000
77.88760	2734.00000
77.90758	2812.00000
77.92755	2865.00000
77.94753	2862.00000
77.96751	2793.00000
77.98748	2777.00000
78.00746	2842.00000
78.02744	2857.00000
78.04742	2840.00000
78.06739	2757.00000
78.08737	2794.00000
78.10735	2848.00000
78.12732	2776.00000
78.14730	2762.00000
78.16728	2765.00000
78.18725	2773.00000
78.20723	2773.00000
78.22721	2760.00000
78.24719	2682.00000
78.26716	2729.00000
78.28714	2733.00000
78.30712	2735.00000
78.32709	2798.00000
78.34707	2874.00000
78.36705	2724.00000
78.38702	2908.00000
78.40700	2793.00000
78.42698	2747.00000
78.44696	2778.00000
78.46693	2832.00000
78.48691	2737.00000
78.50689	2698.00000
78.52686	2846.00000
78.54684	2777.00000
78.56682	2854.00000
78.58679	2836.00000
78.60677	2743.00000
78.62675	2824.00000
78.64673	2938.00000
78.66670	2795.00000
78.68668	2899.00000
78.70666	2877.00000
78.72663	2815.00000
78.74661	2863.00000
78.76659	2894.00000
78.78656	2810.00000
78.80654	2850.00000
78.82652	2819.00000
78.84650	2695.00000
78.86647	2939.00000
78.88645	2924.00000
78.90643	2795.00000
78.92640	2891.00000
78.94638	2866.00000
78.96636	2882.00000
78.98633	2815.00000
79.00631	2764.00000
79.02629	2875.00000
79.04627	2850.00000
79.06624	2805.00000
79.08622	2814.00000
79.10620	2834.00000
79.12617	2889.00000
79.14615	2953.00000
79.16613	2806.00000
79.18610	2812.00000
79.20608	2813.00000
79.22606	2812.00000
79.24604	2841.00000
79.26601	2772.00000
79.28599	2788.00000
79.30597	2866.00000
79.32594	2735.00000
79.34592	2801.00000
79.36590	2750.00000
79.38587	2785.00000
79.40585	2791.00000
79.42583	2857.00000
79.44581	2794.00000
79.46578	2739.00000
79.48576	2869.00000
79.50574	2792.00000
79.52571	2802.00000
79.54569	2856.00000
79.56567	2855.00000
79.58564	2770.00000
79.60562	2819.00000
79.62560	2755.00000
79.64558	2876.00000
79.66555	2806.00000
79.68553	2874.00000
79.70551	2911.00000
79.72548	2914.00000
79.74546	2777.00000
79.76544	2818.00000
79.78541	2808.00000
79.80539	2741.00000
79.82537	2836.00000
79.84535	2835.00000
79.86532	2847.00000
79.88530	2746.00000
79.90528	2859.00000
79.92525	2823.00000
79.94523	2781.00000
79.96521	2787.00000
79.98518	2806.00000
80.00516	2772.00000
80.02514	2828.00000
80.04512	2771.00000
80.06509	2885.00000
80.08507	2811.00000
80.10505	2832.00000
80.12502	2855.00000
80.14500	2766.00000
80.16498	2816.00000
80.18495	2709.00000
80.20493	2802.00000
80.22491	2797.00000
80.24489	2768.00000
80.26486	2824.00000
80.28484	2827.00000
80.30482	2822.00000
80.32479	2791.00000
80.34477	2736.00000
80.36475	2808.00000
80.38472	2812.00000
80.40470	2869.00000
80.42468	2816.00000
80.44466	2864.00000
80.46463	2813.00000
80.48461	2924.00000
80.50459	2862.00000
80.52456	2924.00000
80.54454	2897.00000
80.56452	2803.00000
80.58449	2808.00000
80.60447	2860.00000
80.62445	2790.00000
80.64443	2875.00000
80.66440	2801.00000
80.68438	2804.00000
80.70436	2915.00000
80.72433	2861.00000
80.74431	2879.00000
80.76429	2871.00000
80.78426	2749.00000
80.80424	2872.00000
80.82422	2746.00000
80.84420	2813.00000
80.86417	2781.00000
80.88415	2896.00000
80.90413	2922.00000
80.92410	2872.00000
80.94408	2894.00000
80.96406	2843.00000
80.98403	2923.00000
81.00401	2820.00000
81.02399	2845.00000
81.04397	2836.00000
81.06394	2764.00000
81.08392	2821.00000
81.10390	2910.00000
81.12387	2827.00000
81.14385	2934.00000
81.16383	2812.00000
81.18380	2846.00000
81.20378	2899.00000
81.22376	2876.00000
81.24374	2865.00000
81.26371	2958.00000
81.28369	3063.00000
81.30367	2973.00000
81.32364	3082.00000
81.34362	3004.00000
81.36360	2996.00000
81.38357	3110.00000
81.40355	3083.00000
81.42353	2899.00000
81.44351	3001.00000
81.46348	3016.00000
81.48346	2939.00000
81.50344	3084.00000
81.52341	3076.00000
81.54339	2996.00000
81.56337	3090.00000
81.58334	2895.00000
81.60332	2947.00000
81.62330	3073.00000
81.64328	2930.00000
81.66325	2961.00000
81.68323	2993.00000
81.70321	2873.00000
81.72318	2930.00000
81.74316	2949.00000
81.76314	2955.00000
81.78311	2948.00000
81.80309	2860.00000
81.82307	2937.00000
81.84305	2991.00000
81.86302	2997.00000
81.88300	2968.00000
81.90298	2939.00000
81.92295	2879.00000
81.94293	3031.00000
81.96291	2971.00000
81.98288	2963.00000
82.00286	3018.00000
82.02284	2858.00000
82.04282	2981.00000
82.06279	2917.00000
82.08277	2921.00000
82.10275	3004.00000
82.12272	3084.00000
82.14270	2987.00000
82.16268	2963.00000
82.18265	2932.00000
82.20263	3019.00000
82.22261	3071.00000
82.24259	3019.00000
82.26256	3047.00000
82.28254	2959.00000
82.30252	2986.00000
82.32249	3130.00000
82.34247	3130.00000
82.36245	3096.00000
82.38242	3093.00000
82.40240	3172.00000
82.42238	3236.00000
82.44236	3307.00000
82.46233	3222.00000
82.48231	3312.00000
82.50229	3398.00000
82.52226	3390.00000
82.54224	3439.00000
82.56222	3541.00000
82.58219	3598.00000
82.60217	3637.00000
82.62215	3635.00000
82.64213	3904.00000
82.66210	3918.00000
82.68208	4125.00000
82.70206	4361.00000
82.72203	4351.00000
82.74201	4740.00000
82.76199	5099.00000
82.78196	5493.00000
82.80194	6343.00000
82.82192	6810.00000
82.84190	7814.00000
82.86187	8900.00000
82.88185	10038.00000
82.90183	10508.00000
82.92180	10670.00000
82.94178	10672.00000
82.96176	10067.00000
82.98173	9544.00000
83.00171	9419.00000
83.02169	9416.00000
83.04167	9362.00000
83.06164	9619.00000
83.08162	9575.00000
83.10160	9649.00000
83.12157	9519.00000
83.14155	9198.00000
83.16153	9036.00000
83.18151	8614.00000
83.20148	7972.00000
83.22146	7651.00000
83.24144	7157.00000
83.26141	7042.00000
83.28139	6700.00000
83.30137	6486.00000
83.32134	6306.00000
83.34132	6063.00000
83.36130	5626.00000
83.38128	5111.00000
83.40125	4838.00000
83.42123	4636.00000
83.44121	4330.00000
83.46118	4158.00000
83.48116	4003.00000
83.50114	4023.00000
83.52111	3842.00000
83.54109	3851.00000
83.56107	3728.00000
83.58105	3540.00000
83.60102	3609.00000
83.62100	3500.00000
83.64098	3491.00000
83.66095	3288.00000
83.68093	3455.00000
83.70091	3396.00000
83.72088	3311.00000
83.74086	3254.00000
83.76084	3207.00000
83.78082	3189.00000
83.80079	3122.00000
83.82077	3031.00000
83.84075	3192.00000
83.86072	3083.00000
83.88070	2999.00000
83.90068	3071.00000
83.92065	3041.00000
83.94063	2862.00000
83.96061	2915.00000
83.98059	3093.00000
84.00056	2991.00000
84.02054	2997.00000
84.04052	3027.00000
84.06049	2881.00000
84.08047	3006.00000
84.10045	2927.00000
84.12042	2962.00000
84.14040	2935.00000
84.16038	2955.00000
84.18036	3023.00000
84.20033	2948.00000
84.22031	2994.00000
84.24029	2962.00000
84.26026	3029.00000
84.28024	2835.00000
84.30022	2877.00000
84.32019	2966.00000
84.34017	2814.00000
84.36015	2864.00000
84.38013	2873.00000
84.40010	2878.00000
84.42008	2851.00000
84.44006	2944.00000
84.46003	2903.00000
84.48001	2911.00000
84.49999	2902.00000
84.51996	2911.00000
84.53994	2815.00000
84.55992	2790.00000
84.57990	2815.00000
84.59987	2874.00000
84.61985	2885.00000
84.63983	2939.00000
84.65980	2942.00000
84.67978	2818.00000
84.69976	2764.00000
84.71973	2871.00000
84.73971	2830.00000
84.75969	2866.00000
84.77967	2833.00000
84.79964	2868.00000
84.81962	2824.00000
84.83960	2952.00000
84.85957	2904.00000
84.87955	2983.00000
84.89953	2835.00000
84.91950	2845.00000
84.93948	2857.00000
84.95946	2937.00000
84.97944	2885.00000
84.99941	2909.00000
85.01939	2938.00000
85.03937	2883.00000
85.05934	2960.00000
85.07932	3023.00000
85.09930	2934.00000
85.11927	2969.00000
85.13925	2931.00000
85.15923	2903.00000
85.17921	2883.00000
85.19918	2943.00000
85.21916	2921.00000
85.23914	2940.00000
85.25911	3031.00000
85.27909	2945.00000
85.29907	2873.00000
85.31904	2961.00000
85.33902	3057.00000
85.35900	2995.00000
85.37898	3017.00000
85.39895	3100.00000
85.41893	3030.00000
85.43891	3108.00000
85.45888	3081.00000
85.47886	3120.00000
85.49884	3071.00000
85.51881	3091.00000
85.53879	3165.00000
85.55877	3201.00000
85.57875	3012.00000
85.59872	3057.00000
85.61870	3073.00000
85.63868	3062.00000
85.65865	3134.00000
85.67863	3085.00000
85.69861	3034.00000
85.71858	3113.00000
85.73856	3203.00000
85.75854	3082.00000
85.77852	3103.00000
85.79849	3098.00000
85.81847	3130.00000
85.83845	3017.00000
85.85842	3014.00000
85.87840	2926.00000
85.89838	3034.00000
85.91835	2898.00000
85.93833	2971.00000
85.95831	3022.00000
85.97829	2994.00000
85.99826	2988.00000
86.01824	2957.00000
86.03822	2956.00000
86.05819	2916.00000
86.07817	2923.00000
86.09815	2875.00000
86.11812	2915.00000
86.13810	2880.00000
86.15808	2879.00000
86.17806	2917.00000
86.19803	2940.00000
86.21801	2813.00000
86.23799	2808.00000
86.25796	2805.00000
86.27794	2880.00000
86.29792	2842.00000
86.31789	2837.00000
86.33787	2860.00000
86.35785	2910.00000
86.37783	2765.00000
86.39780	2884.00000
86.41778	2904.00000
86.43776	2858.00000
86.45773	2846.00000
86.47771	2883.00000
86.49769	2722.00000
86.51766	2765.00000
86.53764	2925.00000
86.55762	2873.00000
86.57760	2842.00000
86.59757	2937.00000
86.61755	2849.00000
86.63753	2790.00000
86.65750	2811.00000
86.67748	2843.00000
86.69746	2854.00000
86.71743	2747.00000
86.73741	2825.00000
86.75739	2801.00000
86.77737	2872.00000
86.79734	2841.00000
86.81732	2706.00000
86.83730	2796.00000
86.85727	2768.00000
86.87725	2874.00000
86.89723	2850.00000
86.91720	2883.00000
86.93718	2869.00000
86.95716	2884.00000
86.97714	2920.00000
86.99711	2975.00000
87.01709	2781.00000
87.03707	2830.00000
87.05704	2892.00000
87.07702	2985.00000
87.09700	2844.00000
87.11697	2834.00000
87.13695	2919.00000
87.15693	2881.00000
87.17691	2961.00000
87.19688	2949.00000
87.21686	3017.00000
87.23684	2926.00000
87.25681	2998.00000
87.27679	3093.00000
87.29677	2950.00000
87.31674	2956.00000
87.33672	3006.00000
87.35670	2900.00000
87.37668	2892.00000
87.39665	2873.00000
87.41663	2957.00000
87.43661	2856.00000
87.45658	2929.00000
87.47656	2940.00000
87.49654	2873.00000
87.51651	3021.00000
87.53649	2951.00000
87.55647	3000.00000
87.57645	3019.00000
87.59642	2886.00000
87.61640	2884.00000
87.63638	2863.00000
87.65635	2908.00000
87.67633	2830.00000
87.69631	2909.00000
87.71628	2919.00000
87.73626	2828.00000
87.75624	2760.00000
87.77622	2818.00000
87.79619	2828.00000
87.81617	2842.00000
87.83615	2888.00000
87.85612	2913.00000
87.87610	2863.00000
87.89608	2844.00000
87.91605	2844.00000
87.93603	2816.00000
87.95601	2884.00000
87.97599	2912.00000
87.99596	2803.00000
88.01594	2876.00000
88.03592	2818.00000
88.05589	2907.00000
88.07587	2864.00000
88.09585	2812.00000
88.11582	2936.00000
88.13580	2808.00000
88.15578	2825.00000
88.17576	2833.00000
88.19573	2877.00000
88.21571	2837.00000
88.23569	2899.00000
88.25566	2925.00000
88.27564	2814.00000
88.29562	2901.00000
88.31559	2862.00000
88.33557	2839.00000
88.35555	2990.00000
88.37553	2820.00000
88.39550	2877.00000
88.41548	2803.00000
88.43546	3055.00000
88.45543	3004.00000
88.47541	2893.00000
88.49539	2893.00000
88.51536	2803.00000
88.53534	3028.00000
88.55532	2982.00000
88.57530	2934.00000
88.59527	3108.00000
88.61525	3041.00000
88.63523	2964.00000
88.65520	2905.00000
88.67518	3078.00000
88.69516	3044.00000
88.71513	3038.00000
88.73511	3070.00000
88.75509	3165.00000
88.77507	3010.00000
88.79504	3083.00000
88.81502	3166.00000
88.83500	3158.00000
88.85497	3244.00000
88.87495	3253.00000
88.89493	3258.00000
88.91490	3379.00000
88.93488	3469.00000
88.95486	3465.00000
88.97484	3561.00000
88.99481	3756.00000
89.01479	3935.00000
89.03477	4163.00000
89.05474	4524.00000
89.07472	4599.00000
89.09470	5084.00000
89.11467	5479.00000
89.13465	5698.00000
89.15463	5967.00000
89.17461	6067.00000
89.19458	6161.00000
89.21456	6256.00000
89.23454	6066.00000
89.25451	5835.00000
89.27449	5923.00000
89.29447	5763.00000
89.31444	5481.00000
89.33442	5579.00000
89.35440	5508.00000
89.37438	5651.00000
89.39435	5683.00000
89.41433	5762.00000
89.43431	5955.00000
89.45428	5977.00000
89.47426	5954.00000
89.49424	5815.00000
89.51421	5598.00000
89.53419	5451.00000
89.55417	5167.00000
89.57415	4977.00000
89.59412	4769.00000
89.61410	4640.00000
89.63408	4378.00000
89.65405	4365.00000
89.67403	4434.00000
89.69401	4419.00000
89.71398	4340.00000
89.73396	4304.00000
89.75394	4159.00000
89.77392	4097.00000
89.79389	4003.00000
89.81387	3753.00000
89.83385	3841.00000
89.85382	3663.00000
89.87380	3631.00000
89.89378	3452.00000
89.91375	3328.00000
89.93373	3296.00000
89.95371	3275.00000
89.97369	3224.00000
89.99366	3318.00000
90.01364	3141.00000
90.03362	3142.00000
90.05359	3189.00000
90.07357	3069.00000
90.09355	3156.00000
90.11352	3120.00000
90.13350	3014.00000
90.15348	3062.00000
90.17346	3073.00000
90.19343	3021.00000
90.21341	2943.00000
90.23339	3016.00000
90.25336	2924.00000
90.27334	2840.00000
90.29332	2902.00000
90.31329	2969.00000
90.33327	2911.00000
90.35325	2924.00000
90.37323	2908.00000
90.39320	2825.00000
90.41318	2828.00000
90.43316	2846.00000
90.45313	2889.00000
90.47311	2936.00000
90.49309	2884.00000
90.51306	2871.00000
90.53304	2886.00000
90.55302	2777.00000
90.57300	2824.00000
90.59297	2780.00000
90.61295	2864.00000
90.63293	2761.00000
90.65290	2829.00000
90.67288	2886.00000
90.69286	2928.00000
90.71283	2936.00000
90.73281	2861.00000
90.75279	2738.00000
90.77277	2785.00000
90.79274	2865.00000
90.81272	2875.00000
90.83270	2899.00000
90.85267	2869.00000
90.87265	2852.00000
90.89263	2868.00000
90.91260	2954.00000
90.93258	2916.00000
90.95256	2918.00000
90.97254	2871.00000
90.99251	2816.00000
91.01249	2923.00000
91.03247	2800.00000
91.05244	2842.00000
91.07242	2878.00000
91.09240	2853.00000
91.11237	2823.00000
91.13235	2831.00000
91.15233	2818.00000
91.17231	2793.00000
91.19228	2762.00000
91.21226	2883.00000
91.23224	2791.00000
91.25221	2843.00000
91.27219	2832.00000
91.29217	2832.00000
91.31214	2980.00000
91.33212	2815.00000
91.35210	2920.00000
91.37208	2780.00000
91.39205	2797.00000
91.41203	2855.00000
91.43201	2787.00000
91.45198	2900.00000
91.47196	2840.00000
91.49194	2841.00000
91.51191	2865.00000
91.53189	2766.00000
91.55187	2801.00000
91.57185	2784.00000
91.59182	2851.00000
91.61180	2783.00000
91.63178	2791.00000
91.65175	2774.00000
91.67173	2812.00000
91.69171	2839.00000
91.71168	2819.00000
91.73166	2788.00000
91.75164	2711.00000
91.77162	2747.00000
91.79159	2832.00000
91.81157	2886.00000
91.83155	2830.00000
91.85152	2821.00000
91.87150	2770.00000
91.89148	2729.00000
91.91145	2733.00000
91.93143	2736.00000
91.95141	2848.00000
91.97139	2818.00000
91.99136	2749.00000
92.01134	2811.00000
92.03132	2751.00000
92.05129	2792.00000
92.07127	2773.00000
92.09125	2845.00000
92.11122	2717.00000
92.13120	2856.00000
92.15118	2831.00000
92.17116	2794.00000
92.19113	2760.00000
92.21111	2731.00000
92.23109	2778.00000
92.25106	2845.00000
92.27104	2812.00000
92.29102	2845.00000
92.31099	2735.00000
92.33097	2909.00000
92.35095	2806.00000
92.37093	2751.00000
92.39090	2800.00000
92.41088	2795.00000
92.43086	2741.00000
92.45083	2769.00000
92.47081	2762.00000
92.49079	2794.00000
92.51076	2718.00000
92.53074	2727.00000
92.55072	2784.00000
92.57070	2693.00000
92.59067	2722.00000
92.61065	2799.00000
92.63063	2843.00000
92.65060	2787.00000
92.67058	2841.00000
92.69056	2802.00000
92.71053	2782.00000
92.73051	2758.00000
92.75049	2799.00000
92.77047	2754.00000
92.79044	2855.00000
92.81042	2735.00000
92.83040	2749.00000
92.85037	2808.00000
92.87035	2828.00000
92.89033	2873.00000
92.91030	2809.00000
92.93028	2772.00000
92.95026	2791.00000
92.97024	2813.00000
92.99021	2783.00000
93.01019	2780.00000
93.03017	2714.00000
93.05014	2835.00000
93.07012	2801.00000
93.09010	2775.00000
93.11007	2798.00000
93.13005	2743.00000
93.15003	2802.00000
93.17001	2792.00000
93.18998	2867.00000
93.20996	2753.00000
93.22994	2844.00000
93.24991	2822.00000
93.26989	2827.00000
93.28987	2824.00000
93.30984	2947.00000
93.32982	2907.00000
93.34980	2852.00000
93.36978	2758.00000
93.38975	2892.00000
93.40973	2835.00000
93.42971	2855.00000
93.44968	2885.00000
93.46966	2813.00000
93.48964	2903.00000
93.50961	2815.00000
93.52959	2854.00000
93.54957	2886.00000
93.56955	2858.00000
93.58952	2933.00000
93.60950	2950.00000
93.62948	2919.00000
93.64945	2928.00000
93.66943	2860.00000
93.68941	3008.00000
93.70938	3068.00000
93.72936	2865.00000
93.74934	2980.00000
93.76932	3051.00000
93.78929	3013.00000
93.80927	3141.00000
93.82925	3039.00000
93.84922	3174.00000
93.86920	3032.00000
93.88918	3132.00000
93.90915	3117.00000
93.92913	3011.00000
93.94911	3042.00000
93.96909	3040.00000
93.98906	3068.00000
94.00904	3066.00000
94.02902	3116.00000
94.04899	3044.00000
94.06897	3064.00000
94.08895	3001.00000
94.10892	3041.00000
94.12890	2976.00000
94.14888	2959.00000
94.16886	3047.00000
94.18883	3043.00000
94.20881	2944.00000
94.22879	2986.00000
94.24876	3043.00000
94.26874	2927.00000
94.28872	2981.00000
94.30869	2891.00000
94.32867	2959.00000
94.34865	2806.00000
94.36863	2777.00000
94.38860	2881.00000
94.40858	2883.00000
94.42856	2933.00000
94.44853	2802.00000
94.46851	2879.00000
94.48849	2845.00000
94.50846	2889.00000
94.52844	2754.00000
94.54842	2823.00000
94.56840	2900.00000
94.58837	2797.00000
94.60835	2745.00000
94.62833	2797.00000
94.64830	2857.00000
94.66828	2716.00000
94.68826	2753.00000
94.70823	2708.00000
94.72821	2832.00000
94.74819	2701.00000
94.76817	2783.00000
94.78814	2773.00000
94.80812	2807.00000
94.82810	2836.00000
94.84807	2855.00000
94.86805	2762.00000
94.88803	2772.00000
94.90800	2851.00000
94.92798	2720.00000
94.94796	2784.00000
94.96794	2802.00000
94.98791	2840.00000
95.00789	2808.00000
95.02787	2817.00000
95.04784	2774.00000
95.06782	2755.00000
95.08780	2776.00000
95.10777	2664.00000
95.12775	2791.00000
95.14773	2748.00000
95.16771	2628.00000
95.18768	2806.00000
95.20766	2753.00000
95.22764	2730.00000
95.24761	2795.00000
95.26759	2804.00000
95.28757	2794.00000
95.30754	2867.00000
95.32752	2957.00000
95.34750	2741.00000
95.36748	2895.00000
95.38745	2852.00000
95.40743	2834.00000
95.42741	2848.00000
95.44738	2858.00000
95.46736	2897.00000
95.48734	2842.00000
95.50731	2771.00000
95.52729	2856.00000
95.54727	2844.00000
95.56725	2895.00000
95.58722	2865.00000
95.60720	2789.00000
95.62718	2799.00000
95.64715	2779.00000
95.66713	2738.00000
95.68711	2802.00000
95.70708	2688.00000
95.72706	2895.00000
95.74704	2843.00000
95.76702	2862.00000
95.78699	2821.00000
95.80697	2844.00000
95.82695	2791.00000
95.84692	2884.00000
95.86690	2782.00000
95.88688	2910.00000
95.90685	2820.00000
95.92683	2770.00000
95.94681	2743.00000
95.96679	2856.00000
95.98676	2784.00000
96.00674	2819.00000
96.02672	2825.00000
96.04669	2798.00000
96.06667	2846.00000
96.08665	2748.00000
96.10662	2866.00000
96.12660	2720.00000
96.14658	2769.00000
96.16656	2931.00000
96.18653	2784.00000
96.20651	2696.00000
96.22649	2731.00000
96.24646	2764.00000
96.26644	2796.00000
96.28642	2894.00000
96.30639	2774.00000
96.32637	2868.00000
96.34635	2735.00000
96.36633	2731.00000
96.38630	2826.00000
96.40628	2832.00000
96.42626	2804.00000
96.44623	2756.00000
96.46621	2792.00000
96.48619	2724.00000
96.50616	2742.00000
96.52614	2815.00000
96.54612	2873.00000
96.56610	2812.00000
96.58607	2771.00000
96.60605	2855.00000
96.62603	2753.00000
96.64600	2784.00000
96.66598	2679.00000
96.68596	2750.00000
96.70593	2825.00000
96.72591	2813.00000
96.74589	2872.00000
96.76587	2774.00000
96.78584	2806.00000
96.80582	2787.00000
96.82580	2832.00000
96.84577	2907.00000
96.86575	2735.00000
96.88573	2791.00000
96.90570	2811.00000
96.92568	2734.00000
96.94566	2830.00000
96.96564	2719.00000
96.98561	2908.00000
97.00559	2837.00000
97.02557	2742.00000
97.04554	2858.00000
97.06552	2827.00000
97.08550	2788.00000
97.10547	2675.00000
97.12545	2750.00000
97.14543	2750.00000
97.16541	2812.00000
97.18538	2757.00000
97.20536	2810.00000
97.22534	2787.00000
97.24531	2784.00000
97.26529	2769.00000
97.28527	2806.00000
97.30524	2680.00000
97.32522	2767.00000
97.34520	2777.00000
97.36518	2754.00000
97.38515	2688.00000
97.40513	2736.00000
97.42511	2899.00000
97.44508	2808.00000
97.46506	2774.00000
97.48504	2827.00000
97.50501	2833.00000
97.52499	2801.00000
97.54497	2739.00000
97.56495	2711.00000
97.58492	2867.00000
97.60490	2827.00000
97.62488	2788.00000
97.64485	2934.00000
97.66483	2717.00000
97.68481	2727.00000
97.70478	2758.00000
97.72476	2800.00000
97.74474	2885.00000
97.76472	2853.00000
97.78469	2815.00000
97.80467	2825.00000
97.82465	2786.00000
97.84462	2715.00000
97.86460	2846.00000
97.88458	2801.00000
97.90455	2716.00000
97.92453	2729.00000
97.94451	2737.00000
97.96449	2775.00000
97.98446	2792.00000
98.00444	2815.00000
98.02442	2925.00000
98.04439	2869.00000
98.06437	2898.00000
98.08435	2836.00000
98.10432	2832.00000
98.12430	2839.00000
98.14428	2861.00000
98.16426	2882.00000
98.18423	3010.00000
98.20421	2956.00000
98.22419	2793.00000
98.24416	2922.00000
98.26414	2938.00000
98.28412	2824.00000
98.30409	2851.00000
98.32407	2964.00000
98.34405	2917.00000
98.36403	2917.00000
98.38400	2903.00000
98.40398	2939.00000
98.42396	2852.00000
98.44393	2906.00000
98.46391	2907.00000
98.48389	2973.00000
98.50386	2976.00000
98.52384	2826.00000
98.54382	2926.00000
98.56380	2849.00000
98.58377	2973.00000
98.60375	2831.00000
98.62373	2847.00000
98.64370	2830.00000
98.66368	2807.00000
98.68366	2910.00000
98.70363	2836.00000
98.72361	2735.00000
98.74359	2951.00000
98.76357	2921.00000
98.78354	2890.00000
98.80352	2803.00000
98.82350	2865.00000
98.84347	2826.00000
98.86345	2961.00000
98.88343	2822.00000
98.90340	2875.00000
98.92338	2858.00000
98.94336	2810.00000
98.96334	2776.00000
98.98331	2846.00000
99.00329	2870.00000
99.02327	2852.00000
99.04324	2876.00000
99.06322	2855.00000
99.08320	2962.00000
99.10317	2839.00000
99.12315	2847.00000
99.14313	2855.00000
99.16311	2938.00000
99.18308	2858.00000
99.20306	2895.00000
99.22304	2997.00000
99.24301	3013.00000
99.26299	3022.00000
99.28297	2916.00000
99.30294	3040.00000
99.32292	2965.00000
99.34290	3042.00000
99.36288	3095.00000
99.38285	3089.00000
99.40283	3153.00000
99.42281	3133.00000
99.44278	3199.00000
99.46276	3210.00000
99.48274	3258.00000
99.50271	3339.00000
99.52269	3384.00000
99.54267	3598.00000
99.56265	3625.00000
99.58262	3896.00000
99.60260	3985.00000
99.62258	4079.00000
99.64255	4249.00000
99.66253	4131.00000
99.68251	4202.00000
99.70248	4286.00000
99.72246	4257.00000
99.74244	4178.00000
99.76242	4475.00000
99.78239	4561.00000
99.80237	4510.00000
99.82235	4696.00000
99.84232	4773.00000
99.86230	4664.00000
99.88228	4713.00000
99.90225	4691.00000
99.92223	4524.00000
99.94221	4414.00000
99.96219	4321.00000
99.98216	4197.00000
100.00214	4049.00000
