6.97900	122163.00000
6.99900	122665.00000
7.01900	121815.00000
7.03900	123346.00000
7.05900	123405.00000
7.07900	122008.00000
7.09900	122042.00000
7.11900	123907.00000
7.13900	123327.00000
7.15900	122528.00000
7.17900	121549.00000
7.19900	122360.00000
7.21900	122562.00000
7.23900	122729.00000
7.25900	122539.00000
7.27900	122609.00000
7.29900	122323.00000
7.31900	122456.00000
7.33900	122030.00000
7.35900	124196.00000
7.37900	124182.00000
7.39900	124584.00000
7.41900	124759.00000
7.43900	124180.00000
7.45900	123886.00000
7.47900	122878.00000
7.49900	122191.00000
7.51900	122845.00000
7.53900	123109.00000
7.55900	123491.00000
7.57900	122631.00000
7.59900	122270.00000
7.61900	122055.00000
7.63900	123315.00000
7.65900	123871.00000
7.67900	122274.00000
7.69900	121922.00000
7.71900	122200.00000
7.73900	122311.00000
7.75900	122130.00000
7.77900	122136.00000
7.79900	122912.00000
7.81900	123523.00000
7.83900	123550.00000
7.85900	122712.00000
7.87900	123108.00000
7.89900	122246.00000
7.91900	122501.00000
7.93900	122312.00000
7.95900	122212.00000
7.97900	122329.00000
7.99900	121705.00000
8.01900	121534.00000
8.03900	122857.00000
8.05900	123438.00000
8.07900	122947.00000
8.09900	122760.00000
8.11900	124285.00000
8.13900	123107.00000
8.15900	122717.00000
8.17900	123267.00000
8.19900	122518.00000
8.21900	122904.00000
8.23900	122664.00000
8.25900	124022.00000
8.27900	122547.00000
8.29900	122583.00000
8.31900	123055.00000
8.33900	123106.00000
8.35900	122892.00000
8.37900	122718.00000
8.39900	122465.00000
8.41900	122359.00000
8.43900	122143.00000
8.45900	122217.00000
8.47900	122340.00000
8.49900	122368.00000
8.51900	121338.00000
8.53900	122887.00000
8.55900	123349.00000
8.57900	122809.00000
8.59900	122998.00000
8.61900	122957.00000
8.63900	123200.00000
8.65900	123249.00000
8.67900	124560.00000
8.69900	123835.00000
8.71900	124323.00000
8.73900	123932.00000
8.75900	123115.00000
8.77900	123648.00000
8.79900	122411.00000
8.81900	123900.00000
8.83900	123228.00000
8.85900	123637.00000
8.87900	123232.00000
8.89900	122962.00000
8.91900	124418.00000
8.93900	123340.00000
8.95900	123870.00000
8.97900	124582.00000
8.99900	123264.00000
9.01900	123378.00000
9.03900	122525.00000
9.05900	122773.00000
9.07900	121953.00000
9.09900	122848.00000
9.11900	122785.00000
9.13900	122694.00000
9.15900	121920.00000
9.17900	122177.00000
9.19900	122348.00000
9.21900	122923.00000
9.23900	122434.00000
9.25900	123154.00000
9.27900	122320.00000
9.29900	123568.00000
9.31900	122300.00000
9.33900	122437.00000
9.35900	122852.00000
9.37900	122059.00000
9.39900	122179.00000
9.41900	122727.00000
9.43900	122114.00000
9.45900	122109.00000
9.47900	123121.00000
9.49900	122153.00000
9.51900	122861.00000
9.53900	122115.00000
9.55900	123551.00000
9.57900	123891.00000
9.59900	122493.00000
9.61900	123096.00000
9.63900	123109.00000
9.65900	123655.00000
9.67900	123616.00000
9.69900	122726.00000
9.71900	123305.00000
9.73900	124299.00000
9.75900	124771.00000
9.77900	124197.00000
9.79900	124196.00000
9.81900	124360.00000
9.83900	124517.00000
9.85900	123176.00000
9.87900	123221.00000
9.89900	123722.00000
9.91900	123514.00000
9.93900	123818.00000
9.95900	124093.00000
9.97900	122847.00000
9.99900	123282.00000
10.01900	122787.00000
10.03900	122977.00000
10.05900	122310.00000
10.07900	121221.00000
10.09900	121413.00000
10.11900	121705.00000
10.13900	122278.00000
10.15900	123241.00000
10.17900	122070.00000
10.19900	121057.00000
10.21900	121117.00000
10.23900	121340.00000
10.25900	121109.00000
10.27900	121594.00000
10.29900	119758.00000
10.31900	120343.00000
10.33900	121787.00000
10.35900	120757.00000
10.37900	121124.00000
10.39900	122019.00000
10.41900	122370.00000
10.43900	122013.00000
10.45900	122905.00000
10.47900	122044.00000
10.49900	122146.00000
10.51900	121701.00000
10.53900	122390.00000
10.55900	122568.00000
10.57900	121495.00000
10.59900	121233.00000
10.61900	122042.00000
10.63900	123315.00000
10.65900	122613.00000
10.67900	121440.00000
10.69900	122251.00000
10.71900	122243.00000
10.73900	121311.00000
10.75900	121385.00000
10.77900	121463.00000
10.79900	121291.00000
10.81900	122062.00000
10.83900	122630.00000
10.85900	121488.00000
10.87900	121064.00000
10.89900	121398.00000
10.91900	122223.00000
10.93900	121027.00000
10.95900	120878.00000
10.97900	120513.00000
10.99900	121195.00000
11.01900	121264.00000
11.03900	122749.00000
11.05900	121907.00000
11.07900	121149.00000
11.09900	122069.00000
11.11900	123392.00000
11.13900	121938.00000
11.15900	121989.00000
11.17900	121457.00000
11.19900	122879.00000
11.21900	122666.00000
11.23900	121609.00000
11.25900	121402.00000
11.27900	121392.00000
11.29900	122300.00000
11.31900	123078.00000
11.33900	123898.00000
11.35900	123232.00000
11.37900	123859.00000
11.39900	123657.00000
11.41900	123746.00000
11.43900	124248.00000
11.45900	124566.00000
11.47900	123215.00000
11.49900	124081.00000
11.51900	123327.00000
11.53900	124138.00000
11.55900	124034.00000
11.57900	124715.00000
11.59900	124162.00000
11.61900	125609.00000
11.63900	125316.00000
11.65900	125487.00000
11.67900	126322.00000
11.69900	125937.00000
11.71900	126881.00000
11.73900	127931.00000
11.75900	127490.00000
11.77900	127729.00000
11.79900	126764.00000
11.81900	127003.00000
11.83900	125906.00000
11.85900	124796.00000
11.87900	123824.00000
11.89900	124146.00000
11.91900	122833.00000
11.93900	123011.00000
11.95900	123726.00000
11.97900	121258.00000
11.99900	121977.00000
12.01900	122290.00000
12.03900	122603.00000
12.05900	121971.00000
12.07900	122007.00000
12.09900	122805.00000
12.11900	122909.00000
12.13900	122567.00000
12.15900	121797.00000
12.17900	122824.00000
12.19900	123525.00000
12.21900	123711.00000
12.23900	123091.00000
12.25900	121596.00000
12.27900	120457.00000
12.29900	121507.00000
12.31900	121628.00000
12.33900	122182.00000
12.35900	122055.00000
12.37900	121051.00000
12.39900	121397.00000
12.41900	121660.00000
12.43900	122087.00000
12.45900	122176.00000
12.47900	122491.00000
12.49900	121445.00000
12.51900	120512.00000
12.53900	120768.00000
12.55900	120083.00000
12.57900	119401.00000
12.59900	119862.00000
12.61900	121220.00000
12.63900	121821.00000
12.65900	120920.00000
12.67900	120627.00000
12.69900	120919.00000
12.71900	121177.00000
12.73900	120982.00000
12.75900	120780.00000
12.77900	119969.00000
12.79900	120610.00000
12.81900	122075.00000
12.83900	121847.00000
12.85900	122946.00000
12.87900	123043.00000
12.89900	123397.00000
12.91900	122424.00000
12.93900	122307.00000
12.95900	123154.00000
12.97900	122680.00000
12.99900	123349.00000
13.01900	123662.00000
13.03900	122700.00000
13.05900	122792.00000
13.07900	121482.00000
13.09900	121688.00000
13.11900	121327.00000
13.13900	121169.00000
13.15900	119874.00000
13.17900	120130.00000
13.19900	121319.00000
13.21900	121689.00000
13.23900	122520.00000
13.25900	123527.00000
13.27900	123131.00000
13.29900	123543.00000
13.31900	124526.00000
13.33900	122266.00000
13.35900	120818.00000
13.37900	120479.00000
13.39900	121486.00000
13.41900	121245.00000
13.43900	121619.00000
13.45900	122005.00000
13.47900	122458.00000
13.49900	122615.00000
13.51900	122047.00000
13.53900	122007.00000
13.55900	121962.00000
13.57900	121524.00000
13.59900	122050.00000
13.61900	122736.00000
13.63900	124189.00000
13.65900	123544.00000
13.67900	123367.00000
13.69900	122717.00000
13.71900	122785.00000
13.73900	123799.00000
13.75900	124044.00000
13.77900	122139.00000
13.79900	122740.00000
13.81900	123588.00000
13.83900	124612.00000
13.85900	123695.00000
13.87900	122685.00000
13.89900	123624.00000
13.91900	122816.00000
13.93900	123136.00000
13.95900	123445.00000
13.97900	123008.00000
13.99900	122695.00000
14.01900	123664.00000
14.03900	125058.00000
14.05900	124178.00000
14.07900	124669.00000
14.09900	125470.00000
14.11900	126672.00000
14.13900	126312.00000
14.15900	126753.00000
14.17900	127548.00000
14.19900	127341.00000
14.21900	128007.00000
14.23900	129139.00000
14.25900	130024.00000
14.27900	130342.00000
14.29900	131046.00000
14.31900	131911.00000
14.33900	133008.00000
14.35900	134255.00000
14.37900	135337.00000
14.39900	136891.00000
14.41900	138993.00000
14.43900	138991.00000
14.45900	140876.00000
14.47900	142115.00000
14.49900	144027.00000
14.51900	146341.00000
14.53900	150003.00000
14.55900	152826.00000
14.57900	154312.00000
14.59900	159637.00000
14.61900	163572.00000
14.63900	167949.00000
14.65900	173070.00000
14.67800	178416.00000
14.69800	184334.00000
14.71800	191106.00000
14.73800	199261.00000
14.75800	206617.00000
14.77800	214668.00000
14.79800	226468.00000
14.81800	240370.00000
14.83800	255701.00000
14.85800	272460.00000
14.87800	290478.00000
14.89800	310925.00000
14.91800	333522.00000
14.93800	359994.00000
14.95800	387451.00000
14.97800	419111.00000
14.99800	455563.00000
15.01800	494839.00000
15.03800	541828.00000
15.05800	589133.00000
15.07800	632440.00000
15.09800	674477.00000
15.11800	707973.00000
15.13800	730841.00000
15.15800	732912.00000
15.17800	713167.00000
15.19800	675583.00000
15.21800	624164.00000
15.23800	570369.00000
15.25800	527564.00000
15.27800	499239.00000
15.29800	484012.00000
15.31800	480688.00000
15.33800	488614.00000
15.35800	503866.00000
15.37800	527483.00000
15.39800	561255.00000
15.41800	601300.00000
15.43800	642122.00000
15.45800	680980.00000
15.47800	709791.00000
15.49800	720941.00000
15.51800	714082.00000
15.53800	676963.00000
15.55800	614114.00000
15.57800	536891.00000
15.59800	459125.00000
15.61800	387193.00000
15.63800	328087.00000
15.65800	283229.00000
15.67800	250188.00000
15.69800	224704.00000
15.71800	206769.00000
15.73800	191289.00000
15.75800	179553.00000
15.77800	170618.00000
15.79800	165050.00000
15.81800	160112.00000
15.83800	155109.00000
15.85800	151363.00000
15.87800	147890.00000
15.89800	144561.00000
15.91800	142383.00000
15.93800	142013.00000
15.95800	140375.00000
15.97800	138652.00000
15.99800	137795.00000
16.01800	137323.00000
16.03800	137266.00000
16.05800	136655.00000
16.07800	136054.00000
16.09800	134970.00000
16.11800	135735.00000
16.13800	136869.00000
16.15800	135507.00000
16.17800	135621.00000
16.19800	136722.00000
16.21800	135769.00000
16.23800	135467.00000
16.25800	135400.00000
16.27800	135325.00000
16.29800	136569.00000
16.31800	138059.00000
16.33800	139792.00000
16.35800	140188.00000
16.37800	140900.00000
16.39800	141970.00000
16.41800	142479.00000
16.43800	144814.00000
16.45800	146226.00000
16.47800	147600.00000
16.49800	150468.00000
16.51800	154148.00000
16.53800	156455.00000
16.55800	159740.00000
16.57800	164204.00000
16.59800	168148.00000
16.61800	175936.00000
16.63800	182058.00000
16.65800	186999.00000
16.67800	194169.00000
16.69800	202144.00000
16.71800	211386.00000
16.73800	220881.00000
16.75800	228649.00000
16.77800	232531.00000
16.79800	232633.00000
16.81800	229081.00000
16.83800	222997.00000
16.85800	210358.00000
16.87800	201220.00000
16.89800	191404.00000
16.91800	183826.00000
16.93800	177566.00000
16.95800	174231.00000
16.97800	173196.00000
16.99800	173404.00000
17.01800	173354.00000
17.03800	173532.00000
17.05800	175986.00000
17.07800	176964.00000
17.09800	180262.00000
17.11800	183885.00000
17.13800	187536.00000
17.15800	190617.00000
17.17800	194847.00000
17.19800	198687.00000
17.21800	203786.00000
17.23800	209323.00000
17.25800	212802.00000
17.27800	217999.00000
17.29800	224872.00000
17.31800	228588.00000
17.33800	235655.00000
17.35800	241894.00000
17.37800	247252.00000
17.39800	252117.00000
17.41800	259144.00000
17.43800	262963.00000
17.45800	260378.00000
17.47800	256112.00000
17.49800	246238.00000
17.51800	235441.00000
17.53800	222160.00000
17.55800	211450.00000
17.57800	198903.00000
17.59800	190116.00000
17.61800	183878.00000
17.63800	179408.00000
17.65800	176177.00000
17.67800	174322.00000
17.69800	172352.00000
17.71800	171950.00000
17.73800	172528.00000
17.75800	171743.00000
17.77800	171088.00000
17.79800	173624.00000
17.81800	174290.00000
17.83800	175496.00000
17.85800	176125.00000
17.87800	176646.00000
17.89800	177623.00000
17.91800	178744.00000
17.93800	179593.00000
17.95800	181382.00000
17.97800	185237.00000
17.99800	188846.00000
18.01800	192805.00000
18.03800	196473.00000
18.05800	201088.00000
18.07800	205454.00000
18.09800	209702.00000
18.11800	214727.00000
18.13800	219409.00000
18.15800	222723.00000
18.17800	225524.00000
18.19800	227451.00000
18.21800	224344.00000
18.23800	216608.00000
18.25800	208632.00000
18.27800	198160.00000
18.29800	188986.00000
18.31800	178799.00000
18.33800	171704.00000
18.35800	166350.00000
18.37800	160492.00000
18.39800	157843.00000
18.41800	155001.00000
18.43800	152814.00000
18.45800	150330.00000
18.47800	149413.00000
18.49800	147073.00000
18.51800	146791.00000
18.53800	146333.00000
18.55800	145475.00000
18.57800	144100.00000
18.59800	144095.00000
18.61800	144819.00000
18.63800	145040.00000
18.65800	143710.00000
18.67800	142505.00000
18.69800	143269.00000
18.71800	143215.00000
18.73800	142474.00000
18.75800	141277.00000
18.77800	141877.00000
18.79800	142043.00000
18.81800	141269.00000
18.83800	141744.00000
18.85800	142792.00000
18.87800	141276.00000
18.89800	142018.00000
18.91800	140819.00000
18.93800	141718.00000
18.95800	141405.00000
18.97800	138958.00000
18.99800	140304.00000
19.01800	141031.00000
19.03800	140814.00000
19.05800	139654.00000
19.07800	138871.00000
19.09800	138549.00000
19.11800	140226.00000
19.13800	140485.00000
19.15800	141394.00000
19.17800	141171.00000
19.19800	141617.00000
19.21800	142661.00000
19.23800	141441.00000
19.25800	142152.00000
19.27800	141518.00000
19.29800	141680.00000
19.31800	142096.00000
19.33800	141460.00000
19.35800	143110.00000
19.37800	143832.00000
19.39800	142311.00000
19.41800	142346.00000
19.43800	142150.00000
19.45800	142667.00000
19.47800	141463.00000
19.49800	141274.00000
19.51800	142393.00000
19.53800	142419.00000
19.55800	142276.00000
19.57800	143383.00000
19.59800	143571.00000
19.61800	144731.00000
19.63800	144820.00000
19.65800	143512.00000
19.67800	145264.00000
19.69800	146127.00000
19.71800	145449.00000
19.73800	144885.00000
19.75800	145448.00000
19.77800	146068.00000
19.79800	147542.00000
19.81800	149251.00000
19.83800	148339.00000
19.85800	149792.00000
19.87800	148622.00000
19.89800	149132.00000
19.91800	149838.00000
19.93800	150205.00000
19.95800	150210.00000
19.97800	148994.00000
19.99800	150297.00000
20.01800	151952.00000
20.03800	153270.00000
20.05800	151494.00000
20.07800	151738.00000
20.09800	152155.00000
20.11800	153221.00000
20.13800	152720.00000
20.15800	152071.00000
20.17800	151843.00000
20.19800	151097.00000
20.21800	152374.00000
20.23800	152810.00000
20.25800	150431.00000
20.27800	151310.00000
20.29800	151520.00000
20.31800	150836.00000
20.33800	152300.00000
20.35800	152410.00000
20.37800	151760.00000
20.39800	152178.00000
20.41800	155026.00000
20.43800	155350.00000
20.45800	154440.00000
20.47800	153256.00000
20.49800	155587.00000
20.51800	155631.00000
20.53800	156096.00000
20.55800	156512.00000
20.57800	157158.00000
20.59800	158773.00000
20.61800	161530.00000
20.63800	161491.00000
20.65800	162065.00000
20.67800	162281.00000
20.69800	165621.00000
20.71800	166557.00000
20.73800	167590.00000
20.75800	167785.00000
20.77800	169503.00000
20.79800	171374.00000
20.81800	174190.00000
20.83800	176312.00000
20.85800	176952.00000
20.87800	178537.00000
20.89800	179900.00000
20.91800	182027.00000
20.93800	182008.00000
20.95800	180871.00000
20.97800	178502.00000
20.99800	175309.00000
21.01800	170068.00000
21.03800	165212.00000
21.05800	161853.00000
21.07800	158018.00000
21.09800	155121.00000
21.11800	152473.00000
21.13800	150123.00000
21.15800	148613.00000
21.17800	147715.00000
21.19800	145543.00000
21.21800	144213.00000
21.23800	144327.00000
21.25800	142545.00000
21.27800	143433.00000
21.29800	141824.00000
21.31800	141098.00000
21.33800	140258.00000
21.35800	139261.00000
21.37800	137765.00000
21.39800	138768.00000
21.41800	139159.00000
21.43800	137207.00000
21.45800	137669.00000
21.47800	137641.00000
21.49800	137384.00000
21.51800	137005.00000
21.53800	136427.00000
21.55800	137905.00000
21.57800	137782.00000
21.59800	137258.00000
21.61800	137255.00000
21.63800	138116.00000
21.65800	139434.00000
21.67800	139838.00000
21.69800	139823.00000
21.71800	141060.00000
21.73800	142773.00000
21.75800	142823.00000
21.77800	143439.00000
21.79800	145044.00000
21.81800	147030.00000
21.83800	146777.00000
21.85800	146727.00000
21.87800	148183.00000
21.89800	147688.00000
21.91800	148403.00000
21.93800	147784.00000
21.95800	148156.00000
21.97800	147743.00000
21.99800	147214.00000
22.01800	146846.00000
22.03800	145676.00000
22.05800	144874.00000
22.07800	143093.00000
22.09800	141633.00000
22.11800	142141.00000
22.13800	141739.00000
22.15800	141602.00000
22.17800	139862.00000
22.19800	141875.00000
22.21800	140613.00000
22.23800	140610.00000
22.25800	140818.00000
22.27800	141804.00000
22.29800	142899.00000
22.31800	143285.00000
22.33800	143187.00000
22.35800	144590.00000
22.37800	146865.00000
22.39800	148998.00000
22.41800	151661.00000
22.43800	156177.00000
22.45800	156717.00000
22.47800	157401.00000
22.49800	158894.00000
22.51800	158910.00000
22.53800	158363.00000
22.55800	154507.00000
22.57800	152136.00000
22.59800	148999.00000
22.61800	145188.00000
22.63800	142511.00000
22.65800	140207.00000
22.67800	137548.00000
22.69800	133917.00000
22.71800	133395.00000
22.73800	131282.00000
22.75800	129579.00000
22.77800	127977.00000
22.79800	128766.00000
22.81800	128758.00000
22.83800	128929.00000
22.85800	128961.00000
22.87800	129785.00000
22.89800	129968.00000
22.91800	129335.00000
22.93800	130063.00000
22.95800	129953.00000
22.97800	129503.00000
22.99800	129529.00000
23.01800	131279.00000
23.03800	131317.00000
23.05800	132158.00000
23.07800	132761.00000
23.09800	134404.00000
23.11800	136725.00000
23.13800	137619.00000
23.15800	137947.00000
23.17800	139369.00000
23.19800	142426.00000
23.21800	146016.00000
23.23800	148669.00000
23.25800	153461.00000
23.27800	156737.00000
23.29800	162386.00000
23.31800	168231.00000
23.33800	175189.00000
23.35800	181861.00000
23.37800	190606.00000
23.39800	199456.00000
23.41800	210506.00000
23.43800	223711.00000
23.45800	239115.00000
23.47800	255849.00000
23.49800	276839.00000
23.51800	300536.00000
23.53800	325017.00000
23.55800	347643.00000
23.57800	374969.00000
23.59800	402872.00000
23.61800	431934.00000
23.63800	459833.00000
23.65800	485815.00000
23.67800	510525.00000
23.69800	529885.00000
23.71800	544455.00000
23.73800	537822.00000
23.75800	514222.00000
23.77800	480973.00000
23.79800	441536.00000
23.81800	396264.00000
23.83800	349646.00000
23.85800	310592.00000
23.87800	277358.00000
23.89800	245357.00000
23.91800	221247.00000
23.93800	201114.00000
23.95800	187961.00000
23.97800	174773.00000
23.99800	164045.00000
24.01800	155680.00000
24.03800	150263.00000
24.05800	145787.00000
24.07800	143244.00000
24.09800	139595.00000
24.11800	138123.00000
24.13800	135555.00000
24.15800	134757.00000
24.17800	134166.00000
24.19800	133105.00000
24.21800	133649.00000
24.23800	132120.00000
24.25800	133290.00000
24.27800	132153.00000
24.29800	131777.00000
24.31800	133668.00000
24.33800	133938.00000
24.35800	132749.00000
24.37800	132621.00000
24.39800	133095.00000
24.41800	133338.00000
24.43800	132824.00000
24.45800	131730.00000
24.47800	133778.00000
24.49800	134363.00000
24.51800	136099.00000
24.53800	136089.00000
24.55800	138196.00000
24.57800	139709.00000
24.59800	140472.00000
24.61800	143436.00000
24.63800	143401.00000
24.65800	142746.00000
24.67800	141527.00000
24.69800	137813.00000
24.71800	137003.00000
24.73800	133184.00000
24.75800	128194.00000
24.77800	127182.00000
24.79800	125547.00000
24.81800	123386.00000
24.83800	121884.00000
24.85800	120846.00000
24.87800	118772.00000
24.89800	117487.00000
24.91800	117120.00000
24.93800	116882.00000
24.95800	115821.00000
24.97800	114905.00000
24.99800	115371.00000
25.01800	113555.00000
25.03800	113496.00000
25.05800	112763.00000
25.07800	112938.00000
25.09800	111521.00000
25.11800	111202.00000
25.13800	110931.00000
25.15800	111593.00000
25.17800	111803.00000
25.19800	111934.00000
25.21800	110456.00000
25.23800	109853.00000
25.25800	109722.00000
25.27800	110273.00000
25.29800	108909.00000
25.31800	109771.00000
25.33800	110433.00000
25.35800	109976.00000
25.37800	110115.00000
25.39800	109710.00000
25.41800	110488.00000
25.43800	110525.00000
25.45800	110259.00000
25.47800	110274.00000
25.49800	109651.00000
25.51800	109043.00000
25.53800	108247.00000
25.55800	108260.00000
25.57800	108656.00000
25.59800	110161.00000
25.61800	109790.00000
25.63800	110538.00000
25.65800	108904.00000
25.67800	108769.00000
25.69800	109096.00000
25.71800	108886.00000
25.73800	109094.00000
25.75800	108651.00000
25.77800	109178.00000
25.79800	109307.00000
25.81800	109003.00000
25.83800	110379.00000
25.85800	108869.00000
25.87800	107888.00000
25.89800	107435.00000
25.91800	107110.00000
25.93800	105875.00000
25.95800	105206.00000
25.97800	104219.00000
25.99800	103826.00000
26.01800	104206.00000
26.03800	103669.00000
26.05800	103517.00000
26.07800	103027.00000
26.09800	103284.00000
26.11800	104328.00000
26.13800	103885.00000
26.15800	104320.00000
26.17800	103660.00000
26.19800	104327.00000
26.21800	103920.00000
26.23800	103558.00000
26.25800	103220.00000
26.27800	101794.00000
26.29800	102860.00000
26.31800	102447.00000
26.33800	101632.00000
26.35800	100650.00000
26.37800	100577.00000
26.39800	100494.00000
26.41800	102430.00000
26.43800	100762.00000
26.45800	100050.00000
26.47800	100129.00000
26.49800	100960.00000
26.51800	101992.00000
26.53800	101122.00000
26.55800	100449.00000
26.57800	100754.00000
26.59800	101297.00000
26.61800	100132.00000
26.63800	99774.00000
26.65800	98829.00000
26.67800	97526.00000
26.69800	97548.00000
26.71800	98155.00000
26.73800	98583.00000
26.75800	98233.00000
26.77800	98490.00000
26.79800	98440.00000
26.81800	97872.00000
26.83800	97848.00000
26.85800	97339.00000
26.87800	97513.00000
26.89800	98274.00000
26.91800	97667.00000
26.93800	96226.00000
26.95800	96373.00000
26.97800	96034.00000
26.99800	95604.00000
27.01800	96092.00000
27.03800	97125.00000
27.05800	96431.00000
27.07800	96229.00000
27.09800	95491.00000
27.11800	95508.00000
27.13800	93991.00000
27.15800	93984.00000
27.17800	94845.00000
27.19800	94610.00000
27.21800	93753.00000
27.23800	93433.00000
27.25800	93507.00000
27.27800	93825.00000
27.29800	94017.00000
27.31800	94909.00000
27.33800	93898.00000
27.35800	93477.00000
27.37800	93804.00000
27.39800	93936.00000
27.41800	94132.00000
27.43800	94069.00000
27.45800	93151.00000
27.47800	92580.00000
27.49800	91799.00000
27.51800	90713.00000
27.53800	91390.00000
27.55800	91585.00000
27.57800	91032.00000
27.59800	91020.00000
27.61800	91712.00000
27.63800	90938.00000
27.65800	90810.00000
27.67800	90900.00000
27.69800	90669.00000
27.71800	90223.00000
27.73800	89777.00000
27.75800	89731.00000
27.77800	89164.00000
27.79800	89420.00000
27.81800	90775.00000
27.83800	88989.00000
27.85800	89452.00000
27.87800	88899.00000
27.89800	90411.00000
27.91800	90767.00000
27.93800	89840.00000
27.95800	88990.00000
27.97800	88627.00000
27.99800	88878.00000
28.01800	89752.00000
28.03800	89904.00000
28.05800	88531.00000
28.07800	89466.00000
28.09800	89041.00000
28.11800	89137.00000
28.13800	88792.00000
28.15800	88428.00000
28.17800	88621.00000
28.19800	88689.00000
28.21800	88573.00000
28.23800	89123.00000
28.25800	88663.00000
28.27800	87255.00000
28.29800	87028.00000
28.31800	87225.00000
28.33800	87960.00000
28.35800	87692.00000
28.37800	87926.00000
28.39800	88357.00000
28.41800	87546.00000
28.43800	87833.00000
28.45800	88008.00000
28.47800	86953.00000
28.49800	88112.00000
28.51800	88858.00000
28.53800	88831.00000
28.55800	88575.00000
28.57800	88913.00000
28.59800	89725.00000
28.61800	88630.00000
28.63800	89722.00000
28.65800	91099.00000
28.67800	91920.00000
28.69800	93439.00000
28.71800	93605.00000
28.73800	93671.00000
28.75800	94607.00000
28.77800	94710.00000
28.79800	95714.00000
28.81800	96724.00000
28.83800	98957.00000
28.85800	98628.00000
28.87800	100185.00000
28.89800	102845.00000
28.91800	104086.00000
28.93800	104680.00000
28.95800	106386.00000
28.97800	109066.00000
28.99800	112371.00000
29.01800	115274.00000
29.03800	118326.00000
29.05800	120761.00000
29.07800	124979.00000
29.09800	127480.00000
29.11800	134453.00000
29.13800	137317.00000
29.15800	140151.00000
29.17800	143824.00000
29.19800	149385.00000
29.21800	152712.00000
29.23800	155790.00000
29.25800	156625.00000
29.27800	157769.00000
29.29800	157238.00000
29.31800	154660.00000
29.33800	150376.00000
29.35800	144470.00000
29.37800	140778.00000
29.39800	135573.00000
29.41800	130933.00000
29.43800	128703.00000
29.45800	125358.00000
29.47800	124213.00000
29.49800	123648.00000
29.51800	122105.00000
29.53800	120928.00000
29.55800	121213.00000
29.57800	120692.00000
29.59800	122672.00000
29.61800	123648.00000
29.63800	126269.00000
29.65800	128601.00000
29.67800	133274.00000
29.69800	136790.00000
29.71800	142417.00000
29.73800	148451.00000
29.75800	153967.00000
29.77800	160329.00000
29.79800	168344.00000
29.81800	176986.00000
29.83800	185332.00000
29.85800	194467.00000
29.87800	202455.00000
29.89800	210753.00000
29.91800	214296.00000
29.93800	215010.00000
29.95800	213613.00000
29.97800	210372.00000
29.99800	205961.00000
30.01800	199968.00000
30.03800	193960.00000
30.05800	192883.00000
30.07800	192929.00000
30.09800	195526.00000
30.11800	199699.00000
30.13800	207936.00000
30.15800	218468.00000
30.17800	233031.00000
30.19800	252066.00000
30.21800	273285.00000
30.23800	297229.00000
30.25800	322046.00000
30.27800	347953.00000
30.29800	378934.00000
30.31800	406711.00000
30.33800	426767.00000
30.35800	442060.00000
30.37800	450639.00000
30.39800	446574.00000
30.41800	436151.00000
30.43800	424696.00000
30.45800	409496.00000
30.47800	395635.00000
30.49800	390492.00000
30.51800	385307.00000
30.53800	380252.00000
30.55800	376480.00000
30.57800	373297.00000
30.59800	366574.00000
30.61800	358226.00000
30.63800	342485.00000
30.65800	324919.00000
30.67800	306976.00000
30.69800	289209.00000
30.71800	269525.00000
30.73800	251313.00000
30.75800	237267.00000
30.77800	222741.00000
30.79800	207968.00000
30.81800	194194.00000
30.83800	178769.00000
30.85800	167107.00000
30.87800	156415.00000
30.89800	146963.00000
30.91800	139835.00000
30.93800	131388.00000
30.95800	124622.00000
30.97800	119931.00000
30.99800	116423.00000
31.01800	114416.00000
31.03800	113452.00000
31.05800	110670.00000
31.07800	108887.00000
31.09800	109197.00000
31.11800	107769.00000
31.13800	106461.00000
31.15800	108420.00000
31.17800	107817.00000
31.19800	107313.00000
31.21800	106947.00000
31.23800	107873.00000
31.25800	104325.00000
31.27800	102424.00000
31.29800	101237.00000
31.31800	100259.00000
31.33800	97372.00000
31.35800	93711.00000
31.37800	92288.00000
31.39800	91227.00000
31.41800	91201.00000
31.43800	89325.00000
31.45800	89291.00000
31.47800	89219.00000
31.49800	89099.00000
31.51800	89400.00000
31.53800	89208.00000
31.55800	89722.00000
31.57800	89149.00000
31.59800	89511.00000
31.61800	91519.00000
31.63800	92139.00000
31.65800	92265.00000
31.67800	93884.00000
31.69800	95015.00000
31.71800	96735.00000
31.73800	98358.00000
31.75800	97727.00000
31.77800	98887.00000
31.79800	100641.00000
31.81800	101037.00000
31.83800	100612.00000
31.85800	102015.00000
31.87800	102389.00000
31.89800	103302.00000
31.91800	102579.00000
31.93800	100478.00000
31.95800	98620.00000
31.97800	96241.00000
31.99800	95404.00000
32.01800	92929.00000
32.03800	90926.00000
32.05800	88304.00000
32.07800	87480.00000
32.09800	86961.00000
32.11800	86091.00000
32.13800	85241.00000
32.15800	85069.00000
32.17800	84769.00000
32.19800	83983.00000
32.21800	83363.00000
32.23800	82737.00000
32.25800	83384.00000
32.27800	84014.00000
32.29800	84481.00000
32.31800	84528.00000
32.33800	84262.00000
32.35800	84754.00000
32.37800	86126.00000
32.39800	86358.00000
32.41800	87024.00000
32.43800	85855.00000
32.45800	86945.00000
32.47800	87200.00000
32.49800	87242.00000
32.51800	87324.00000
32.53800	87253.00000
32.55800	87347.00000
32.57800	87608.00000
32.59800	88546.00000
32.61800	89987.00000
32.63800	91885.00000
32.65800	93613.00000
32.67800	95349.00000
32.69800	97869.00000
32.71800	100670.00000
32.73800	101507.00000
32.75800	102615.00000
32.77800	104012.00000
32.79800	102953.00000
32.81800	102575.00000
32.83800	100757.00000
32.85800	97773.00000
32.87800	94501.00000
32.89800	91872.00000
32.91800	88734.00000
32.93800	86044.00000
32.95800	83958.00000
32.97800	82190.00000
32.99800	80118.00000
33.01800	79030.00000
33.03800	78071.00000
33.05800	77092.00000
33.07800	75807.00000
33.09800	76274.00000
33.11800	75246.00000
33.13800	74986.00000
33.15800	74419.00000
33.17800	75326.00000
33.19800	74851.00000
33.21800	75264.00000
33.23800	75259.00000
33.25800	74767.00000
33.27800	74486.00000
33.29800	74272.00000
33.31800	73720.00000
33.33800	74410.00000
33.35800	73574.00000
33.37800	73403.00000
33.39800	73319.00000
33.41800	73840.00000
33.43800	74019.00000
33.45800	73011.00000
33.47800	73441.00000
33.49800	73464.00000
33.51800	73868.00000
33.53800	73731.00000
33.55800	73346.00000
33.57800	73226.00000
33.59800	72668.00000
33.61800	72972.00000
33.63800	73152.00000
33.65800	74281.00000
33.67800	74029.00000
33.69800	74177.00000
33.71800	73982.00000
33.73800	74450.00000
33.75800	74160.00000
33.77800	73999.00000
33.79800	74050.00000
33.81800	75775.00000
33.83800	76307.00000
33.85800	75908.00000
33.87800	77663.00000
33.89800	77440.00000
33.91800	77595.00000
33.93800	77241.00000
33.95800	78732.00000
33.97800	78700.00000
33.99800	77404.00000
34.01800	78068.00000
34.03800	78130.00000
34.05800	77177.00000
34.07800	76534.00000
34.09800	76060.00000
34.11800	74975.00000
34.13800	74153.00000
34.15800	74221.00000
34.17800	73200.00000
34.19800	73983.00000
34.21800	74231.00000
34.23800	74325.00000
34.25800	73640.00000
34.27800	73357.00000
34.29800	73452.00000
34.31800	73422.00000
34.33800	72742.00000
34.35800	73327.00000
34.37800	73169.00000
34.39800	74087.00000
34.41800	73784.00000
34.43800	74261.00000
34.45800	74764.00000
34.47800	74537.00000
34.49800	75116.00000
34.51800	75725.00000
34.53800	76769.00000
34.55800	76402.00000
34.57800	76436.00000
34.59800	77155.00000
34.61800	77891.00000
34.63800	78074.00000
34.65800	78086.00000
34.67800	78706.00000
34.69800	79207.00000
34.71800	79731.00000
34.73800	80152.00000
34.75800	79933.00000
34.77800	81264.00000
34.79800	82290.00000
34.81800	82402.00000
34.83800	83922.00000
34.85800	84661.00000
34.87800	84891.00000
34.89800	84556.00000
34.91800	85625.00000
34.93800	85874.00000
34.95800	85932.00000
34.97800	86177.00000
34.99800	86897.00000
35.01800	87289.00000
35.03800	89450.00000
35.05800	89962.00000
35.07800	89354.00000
35.09800	90875.00000
35.11800	91439.00000
35.13800	91602.00000
35.15800	92226.00000
35.17800	91880.00000
35.19800	92307.00000
35.21800	92214.00000
35.23800	90553.00000
35.25800	90453.00000
35.27800	89787.00000
35.29800	89857.00000
35.31800	90367.00000
35.33800	89971.00000
35.35800	88990.00000
35.37800	88016.00000
35.39800	87364.00000
35.41800	87058.00000
35.43800	85108.00000
35.45800	83127.00000
35.47800	81504.00000
35.49800	81331.00000
35.51800	79810.00000
35.53800	79941.00000
35.55800	79457.00000
35.57800	79354.00000
35.59800	79693.00000
35.61800	80128.00000
35.63800	80019.00000
35.65800	78836.00000
35.67800	79620.00000
35.69800	80597.00000
35.71800	81821.00000
35.73800	81759.00000
35.75800	81048.00000
35.77800	82617.00000
35.79800	84144.00000
35.81800	83763.00000
35.83800	85486.00000
35.85800	85281.00000
35.87800	85777.00000
35.89800	86551.00000
35.91800	87141.00000
35.93800	87824.00000
35.95800	88104.00000
35.97800	87934.00000
35.99800	88667.00000
36.01800	89843.00000
36.03800	90020.00000
36.05800	90057.00000
36.07800	89202.00000
36.09800	88700.00000
36.11800	88773.00000
36.13800	88123.00000
36.15800	87487.00000
36.17800	87608.00000
36.19800	89560.00000
36.21800	88622.00000
36.23800	87616.00000
36.25800	88313.00000
36.27800	88671.00000
36.29800	89987.00000
36.31800	90738.00000
36.33800	91764.00000
36.35800	92347.00000
36.37800	92332.00000
36.39800	93922.00000
36.41800	94949.00000
36.43800	94595.00000
36.45800	94908.00000
36.47800	95788.00000
36.49800	95505.00000
36.51800	94978.00000
36.53800	94759.00000
36.55800	94080.00000
36.57800	91630.00000
36.59800	90972.00000
36.61800	90119.00000
36.63800	88693.00000
36.65800	89654.00000
36.67800	88878.00000
36.69800	88508.00000
36.71800	88044.00000
36.73800	88672.00000
36.75800	89086.00000
36.77800	89854.00000
36.79800	90699.00000
36.81800	92525.00000
36.83800	93389.00000
36.85800	92903.00000
36.87800	93404.00000
36.89800	94253.00000
36.91800	93771.00000
36.93800	93849.00000
36.95800	93585.00000
36.97800	92325.00000
36.99800	91268.00000
37.01800	91678.00000
37.03800	90896.00000
37.05800	91182.00000
37.07800	90333.00000
37.09800	91563.00000
37.11800	94062.00000
37.13800	95747.00000
37.15800	98507.00000
37.17800	101740.00000
37.19800	103868.00000
37.21800	107592.00000
37.23800	109692.00000
37.25800	110960.00000
37.27800	112977.00000
37.29800	113464.00000
37.31800	113789.00000
37.33800	113374.00000
37.35800	112360.00000
37.37800	109369.00000
37.39800	105541.00000
37.41800	102557.00000
37.43800	100219.00000
37.45800	95878.00000
37.47800	94222.00000
37.49800	92236.00000
37.51800	90045.00000
37.53800	88887.00000
37.55800	88939.00000
37.57800	87107.00000
37.59800	86467.00000
37.61800	86088.00000
37.63800	85935.00000
37.65800	85406.00000
37.67800	83585.00000
37.69800	83108.00000
37.71800	82526.00000
37.73800	81836.00000
37.75800	80514.00000
37.77800	79134.00000
37.79800	77508.00000
37.81800	77213.00000
37.83800	76423.00000
37.85800	75207.00000
37.87800	74196.00000
37.89800	74049.00000
37.91800	73767.00000
37.93800	72969.00000
37.95800	72758.00000
37.97800	72537.00000
37.99800	72350.00000
38.01800	73097.00000
38.03800	72183.00000
38.05800	71779.00000
38.07800	71830.00000
38.09800	71948.00000
38.11800	71548.00000
38.13800	72390.00000
38.15800	72066.00000
38.17800	72146.00000
38.19800	72669.00000
38.21800	72582.00000
38.23800	73226.00000
38.25800	72986.00000
38.27800	72003.00000
38.29800	72485.00000
38.31800	72544.00000
38.33800	73072.00000
38.35800	73036.00000
38.37800	73673.00000
38.39800	75103.00000
38.41800	76673.00000
38.43800	77807.00000
38.45800	78246.00000
38.47800	79104.00000
38.49800	80392.00000
38.51800	81779.00000
38.53800	82113.00000
38.55800	83062.00000
38.57800	84569.00000
38.59800	85550.00000
38.61800	86477.00000
38.63800	86171.00000
38.65800	86305.00000
38.67800	86259.00000
38.69800	86328.00000
38.71800	85458.00000
38.73800	84897.00000
38.75800	85470.00000
38.77800	85401.00000
38.79800	85547.00000
38.81800	86212.00000
38.83800	86385.00000
38.85800	86413.00000
38.87800	86872.00000
38.89800	87243.00000
38.91800	89047.00000
38.93800	89125.00000
38.95800	90021.00000
38.97800	91080.00000
38.99800	92158.00000
39.01800	93313.00000
39.03800	94389.00000
39.05800	94297.00000
39.07800	94859.00000
39.09800	94283.00000
39.11800	93408.00000
39.13800	93496.00000
39.15800	93387.00000
39.17800	93656.00000
39.19800	92697.00000
39.21800	92336.00000
39.23800	92946.00000
39.25800	92940.00000
39.27800	93377.00000
39.29800	92068.00000
39.31800	91875.00000
39.33800	91310.00000
39.35800	90429.00000
39.37800	90815.00000
39.39800	91145.00000
39.41800	89696.00000
39.43800	88197.00000
39.45800	87057.00000
39.47800	86596.00000
39.49800	86133.00000
39.51800	85850.00000
39.53800	85759.00000
39.55800	85375.00000
39.57800	85755.00000
39.59800	86038.00000
39.61800	85509.00000
39.63800	86354.00000
39.65800	86267.00000
39.67800	86441.00000
39.69800	87315.00000
39.71800	88644.00000
39.73800	88344.00000
39.75800	89405.00000
39.77800	90186.00000
39.79800	90304.00000
39.81800	91662.00000
39.83800	92421.00000
39.85800	91675.00000
39.87800	89828.00000
39.89800	88731.00000
39.91800	88747.00000
39.93800	87239.00000
39.95800	85853.00000
39.97800	84122.00000
39.99800	83956.00000
40.01800	82477.00000
40.03800	81400.00000
40.05800	79550.00000
40.07800	79068.00000
40.09800	77594.00000
40.11800	77239.00000
40.13800	76184.00000
40.15800	74866.00000
40.17800	74039.00000
40.19800	73570.00000
40.21800	74336.00000
40.23800	72897.00000
40.25800	72401.00000
40.27800	71535.00000
40.29800	71736.00000
40.31800	71442.00000
40.33800	71524.00000
40.35800	70941.00000
40.37800	71160.00000
40.39800	70839.00000
40.41800	71304.00000
40.43800	71884.00000
40.45800	71149.00000
40.47800	71799.00000
40.49800	72145.00000
40.51800	71404.00000
40.53800	72493.00000
40.55800	72063.00000
40.57800	73014.00000
40.59800	72889.00000
40.61800	73408.00000
40.63800	73718.00000
40.65800	72813.00000
40.67800	73185.00000
40.69800	72793.00000
40.71800	73367.00000
40.73800	72897.00000
40.75800	74169.00000
40.77800	75234.00000
40.79800	76331.00000
40.81800	77291.00000
40.83800	77832.00000
40.85800	79236.00000
40.87800	80622.00000
40.89800	82591.00000
40.91800	83358.00000
40.93800	84719.00000
40.95800	86574.00000
40.97800	88482.00000
40.99800	89933.00000
41.01800	92132.00000
41.03800	94776.00000
41.05800	97162.00000
41.07800	97877.00000
41.09800	99177.00000
41.11800	100630.00000
41.13800	99972.00000
41.15800	100577.00000
41.17800	98785.00000
41.19800	97891.00000
41.21800	95875.00000
41.23800	93137.00000
41.25800	89738.00000
41.27800	87273.00000
41.29800	84351.00000
41.31800	82670.00000
41.33800	80869.00000
41.35800	80163.00000
41.37800	77878.00000
41.39800	77676.00000
41.41800	77673.00000
41.43800	76253.00000
41.45800	75899.00000
41.47800	75978.00000
41.49800	75670.00000
41.51800	75656.00000
41.53800	76271.00000
41.55800	74822.00000
41.57800	74946.00000
41.59800	76066.00000
41.61800	77078.00000
41.63800	77627.00000
41.65800	78116.00000
41.67800	77647.00000
41.69800	78870.00000
41.71800	81173.00000
41.73800	81877.00000
41.75800	82610.00000
41.77800	84088.00000
41.79800	84976.00000
41.81800	85904.00000
41.83800	86549.00000
41.85800	87225.00000
41.87800	86284.00000
41.89800	86177.00000
41.91800	85809.00000
41.93800	85853.00000
41.95800	85204.00000
41.97800	83359.00000
41.99800	82950.00000
42.01800	82634.00000
42.03800	82118.00000
42.05800	81195.00000
42.07800	80168.00000
42.09800	79127.00000
42.11800	79280.00000
42.13800	79366.00000
42.15800	79491.00000
42.17800	79519.00000
42.19800	79578.00000
42.21800	79584.00000
42.23800	79545.00000
42.25800	79974.00000
42.27800	80191.00000
42.29800	79953.00000
42.31800	80743.00000
42.33800	81850.00000
42.35800	81830.00000
42.37800	82776.00000
42.39800	82806.00000
42.41800	84100.00000
42.43800	86367.00000
42.45800	87301.00000
42.47800	87573.00000
42.49800	87928.00000
42.51800	88962.00000
42.53800	89159.00000
42.55800	89609.00000
42.57800	88617.00000
42.59800	88228.00000
42.61800	86904.00000
42.63800	86351.00000
42.65800	85338.00000
42.67800	85408.00000
42.69800	84235.00000
42.71800	82445.00000
42.73800	81821.00000
42.75800	81331.00000
42.77800	81630.00000
42.79800	82225.00000
42.81800	82006.00000
42.83800	82319.00000
42.85800	82110.00000
42.87800	82683.00000
42.89800	83008.00000
42.91800	84373.00000
42.93800	85060.00000
42.95800	85698.00000
42.97800	86522.00000
42.99800	87266.00000
43.01800	88246.00000
43.03800	89290.00000
43.05800	90866.00000
43.07800	90780.00000
43.09800	90316.00000
43.11800	92051.00000
43.13800	92807.00000
43.15800	91648.00000
43.17800	91881.00000
43.19800	93076.00000
43.21800	92362.00000
43.23800	92620.00000
43.25800	91575.00000
43.27800	90708.00000
43.29800	90020.00000
43.31800	88949.00000
43.33800	87604.00000
43.35800	85499.00000
43.37800	83939.00000
43.39800	82731.00000
43.41800	81516.00000
43.43800	79993.00000
43.45800	78527.00000
43.47800	77550.00000
43.49800	76851.00000
43.51800	76895.00000
43.53800	75671.00000
43.55800	75593.00000
43.57800	75083.00000
43.59800	74065.00000
43.61800	74925.00000
43.63800	74158.00000
43.65800	74017.00000
43.67800	73301.00000
43.69800	73471.00000
43.71800	73323.00000
43.73800	73471.00000
43.75800	73163.00000
43.77800	72941.00000
43.79800	72442.00000
43.81800	73416.00000
43.83800	73150.00000
43.85800	73055.00000
43.87800	73436.00000
43.89800	74022.00000
43.91800	73869.00000
43.93800	74153.00000
43.95800	73978.00000
43.97800	73759.00000
43.99800	73593.00000
44.01800	73675.00000
44.03800	74226.00000
44.05800	73282.00000
44.07800	72585.00000
44.09800	73630.00000
44.11800	73891.00000
44.13800	73306.00000
44.15800	73362.00000
44.17800	72685.00000
44.19800	73425.00000
44.21800	74120.00000
44.23800	74947.00000
44.25800	75516.00000
44.27800	75184.00000
44.29800	76074.00000
44.31800	77006.00000
44.33800	76987.00000
44.35800	76908.00000
44.37800	77937.00000
44.39800	77973.00000
44.41800	78267.00000
44.43800	78478.00000
44.45800	78873.00000
44.47800	79063.00000
44.49800	79363.00000
44.51800	79140.00000
44.53800	78410.00000
44.55800	77174.00000
44.57800	77287.00000
44.59800	76778.00000
44.61800	75849.00000
44.63800	75452.00000
44.65800	76220.00000
44.67800	76402.00000
44.69800	75942.00000
44.71800	76579.00000
44.73800	76287.00000
44.75800	76994.00000
44.77800	77404.00000
44.79800	78136.00000
44.81800	79446.00000
44.83800	79954.00000
44.85800	81272.00000
44.87800	81204.00000
44.89800	81735.00000
44.91800	82868.00000
44.93800	84935.00000
44.95800	84657.00000
44.97800	84722.00000
44.99800	85453.00000
45.01800	85326.00000
45.03800	84885.00000
45.05800	84855.00000
45.07800	83340.00000
45.09800	82170.00000
45.11800	81195.00000
45.13800	79019.00000
45.15800	78550.00000
45.17800	77161.00000
45.19800	76037.00000
45.21800	74612.00000
45.23800	74602.00000
45.25800	73513.00000
45.27800	72026.00000
45.29800	72825.00000
45.31800	71347.00000
45.33800	71007.00000
45.35800	70870.00000
45.37800	70935.00000
45.39800	70787.00000
45.41800	70101.00000
45.43800	71045.00000
45.45800	71497.00000
45.47800	71684.00000
45.49800	71951.00000
45.51800	72604.00000
45.53800	73259.00000
45.55800	73202.00000
45.57800	73753.00000
45.59800	73603.00000
45.61800	75164.00000
45.63800	76412.00000
45.65800	76679.00000
45.67800	78099.00000
45.69800	79751.00000
45.71800	81927.00000
45.73800	84506.00000
45.75800	88824.00000
45.77800	91236.00000
45.79800	93963.00000
45.81800	97632.00000
45.83800	101594.00000
45.85800	106239.00000
45.87800	109886.00000
45.89800	113537.00000
45.91800	117940.00000
45.93800	120020.00000
45.95800	120826.00000
45.97800	121022.00000
45.99800	120315.00000
46.01800	118619.00000
46.03800	115204.00000
46.05800	111876.00000
46.07800	107451.00000
46.09800	102602.00000
46.11800	99990.00000
46.13800	96407.00000
46.15800	94210.00000
46.17800	92045.00000
46.19800	90106.00000
46.21800	89445.00000
46.23800	89079.00000
46.25800	87504.00000
46.27800	88062.00000
46.29800	87529.00000
46.31800	87414.00000
46.33800	86762.00000
46.35800	88101.00000
46.37800	87392.00000
46.39800	86714.00000
46.41800	87656.00000
46.43800	87566.00000
46.45800	88786.00000
46.47800	89850.00000
46.49800	91627.00000
46.51800	91795.00000
46.53800	93985.00000
46.55800	95601.00000
46.57800	97424.00000
46.59800	99833.00000
46.61800	102753.00000
46.63800	103781.00000
46.65800	104671.00000
46.67800	104444.00000
46.69800	105128.00000
46.71800	104824.00000
46.73800	103349.00000
46.75800	101963.00000
46.77800	98537.00000
46.79800	96835.00000
46.81800	93929.00000
46.83800	90939.00000
46.85800	86778.00000
46.87800	85457.00000
46.89800	82390.00000
46.91800	80895.00000
46.93800	79123.00000
46.95800	76473.00000
46.97800	74685.00000
46.99800	74342.00000
47.01800	74233.00000
47.03800	73167.00000
47.05800	73056.00000
47.07800	72687.00000
47.09800	72587.00000
47.11800	72621.00000
47.13800	72176.00000
47.15800	71471.00000
47.17800	71547.00000
47.19800	72721.00000
47.21800	73029.00000
47.23800	74335.00000
47.25800	75633.00000
47.27800	76379.00000
47.29800	76721.00000
47.31800	78190.00000
47.33800	80339.00000
47.35800	80429.00000
47.37800	81279.00000
47.39800	81429.00000
47.41800	82616.00000
47.43800	82066.00000
47.45800	81511.00000
47.47800	80781.00000
47.49800	79700.00000
47.51800	79623.00000
47.53800	79250.00000
47.55800	79260.00000
47.57800	78377.00000
47.59800	78138.00000
47.61800	77433.00000
47.63800	78174.00000
47.65800	77288.00000
47.67800	76595.00000
47.69800	76488.00000
47.71800	77267.00000
47.73800	77132.00000
47.75800	77247.00000
47.77800	76447.00000
47.79800	77859.00000
47.81800	77038.00000
47.83800	76669.00000
47.85800	77731.00000
47.87800	77743.00000
47.89800	77976.00000
47.91800	79062.00000
47.93800	79775.00000
47.95800	79361.00000
47.97800	80122.00000
47.99800	80114.00000
48.01800	81828.00000
48.03800	83185.00000
48.05800	84708.00000
48.07800	85109.00000
48.09800	85666.00000
48.11800	86469.00000
48.13800	87277.00000
48.15800	88413.00000
48.17800	89512.00000
48.19800	89766.00000
48.21800	91066.00000
48.23800	91990.00000
48.25800	94319.00000
48.27800	95223.00000
48.29800	95084.00000
48.31800	97215.00000
48.33800	96823.00000
48.35800	96812.00000
48.37800	99064.00000
48.39800	100892.00000
48.41800	102801.00000
48.43800	105193.00000
48.45800	106921.00000
48.47800	107910.00000
48.49800	109660.00000
48.51800	111841.00000
48.53800	111962.00000
48.55800	112904.00000
48.57800	114092.00000
48.59800	114521.00000
48.61800	115181.00000
48.63800	114067.00000
48.65800	112626.00000
48.67800	110059.00000
48.69800	107525.00000
48.71800	104546.00000
48.73800	101137.00000
48.75800	97315.00000
48.77800	95040.00000
48.79800	92531.00000
48.81800	91608.00000
48.83800	90491.00000
48.85800	87359.00000
48.87800	85709.00000
48.89800	83919.00000
48.91800	82805.00000
48.93800	80351.00000
48.95800	79513.00000
48.97800	77623.00000
48.99800	75492.00000
49.01800	74434.00000
49.03800	72995.00000
49.05800	72284.00000
49.07800	71430.00000
49.09800	70271.00000
49.11800	69325.00000
49.13800	68785.00000
49.15800	67781.00000
49.17800	66645.00000
49.19800	66387.00000
49.21800	66124.00000
49.23800	65969.00000
49.25800	66522.00000
49.27800	66216.00000
49.29800	66356.00000
49.31800	66203.00000
49.33800	65141.00000
49.35800	64512.00000
49.37800	64357.00000
49.39800	64369.00000
49.41800	64051.00000
49.43800	64118.00000
49.45800	64290.00000
49.47800	63959.00000
49.49800	64881.00000
49.51800	64877.00000
49.53800	64963.00000
49.55800	65204.00000
49.57800	65307.00000
49.59800	65392.00000
49.61800	66027.00000
49.63800	66028.00000
49.65800	65863.00000
49.67800	66489.00000
49.69800	67224.00000
49.71800	67416.00000
49.73800	67872.00000
49.75800	69058.00000
49.77800	69266.00000
49.79800	69662.00000
49.81800	70357.00000
49.83800	71903.00000
49.85800	72993.00000
49.87800	73577.00000
49.89800	74107.00000
49.91800	74041.00000
49.93800	74040.00000
49.95800	74267.00000
49.97800	73977.00000
49.99800	72855.00000
50.01800	72777.00000
50.03800	71892.00000
50.05800	71074.00000
50.07800	70833.00000
50.09800	70477.00000
50.11800	70161.00000
50.13800	69060.00000
50.15800	69068.00000
50.17800	69342.00000
50.19800	68802.00000
50.21800	68144.00000
50.23800	67512.00000
50.25800	66962.00000
50.27800	66556.00000
50.29800	67316.00000
50.31800	67561.00000
50.33800	68590.00000
50.35800	69045.00000
50.37800	68580.00000
50.39800	68264.00000
50.41800	67674.00000
50.43800	68753.00000
50.45800	68690.00000
50.47800	68479.00000
50.49800	69623.00000
50.51800	69519.00000
50.53800	69173.00000
50.55800	70808.00000
50.57800	71057.00000
50.59800	71488.00000
50.61800	71254.00000
50.63800	70843.00000
50.65800	69631.00000
50.67800	69169.00000
50.69800	68377.00000
50.71800	67890.00000
50.73800	67669.00000
50.75800	67504.00000
50.77800	67329.00000
50.79800	67382.00000
50.81800	66774.00000
50.83800	67485.00000
50.85800	68035.00000
50.87800	67198.00000
50.89800	66874.00000
50.91800	67453.00000
50.93800	66866.00000
50.95800	65486.00000
50.97800	66375.00000
50.99800	66575.00000
51.01800	65993.00000
51.03800	65827.00000
51.05800	66487.00000
51.07800	65962.00000
51.09800	66251.00000
51.11800	66023.00000
51.13800	65793.00000
51.15800	65970.00000
51.17800	65834.00000
51.19800	65386.00000
51.21800	65848.00000
51.23800	66479.00000
51.25800	65917.00000
51.27800	65486.00000
51.29800	65354.00000
51.31800	64007.00000
51.33800	64854.00000
51.35800	64626.00000
51.37800	64592.00000
51.39800	64235.00000
51.41800	64505.00000
51.43800	65424.00000
51.45800	64680.00000
51.47800	64542.00000
51.49800	63655.00000
51.51800	64890.00000
51.53800	64264.00000
51.55800	64885.00000
51.57800	64462.00000
51.59800	65194.00000
51.61800	65473.00000
51.63800	65680.00000
51.65800	66051.00000
51.67800	66709.00000
51.69800	67180.00000
51.71800	68094.00000
51.73800	68432.00000
51.75800	68772.00000
51.77800	70262.00000
51.79800	71174.00000
51.81800	72993.00000
51.83800	73525.00000
51.85800	73976.00000
51.87800	74774.00000
51.89800	76737.00000
51.91800	78090.00000
51.93800	79137.00000
51.95800	79593.00000
51.97800	80957.00000
51.99800	81801.00000
52.01800	83171.00000
52.03800	82939.00000
52.05800	82366.00000
52.07800	82190.00000
52.09800	81178.00000
52.11800	81430.00000
52.13800	80397.00000
52.15800	78210.00000
52.17800	76795.00000
52.19800	76054.00000
52.21800	74913.00000
52.23800	74562.00000
52.25800	74568.00000
52.27800	74091.00000
52.29800	74213.00000
52.31800	72860.00000
52.33800	72704.00000
52.35800	72472.00000
52.37800	72306.00000
52.39800	73707.00000
52.41800	73868.00000
52.43800	73546.00000
52.45800	73612.00000
52.47800	74070.00000
52.49800	74659.00000
52.51800	75956.00000
52.53800	76120.00000
52.55800	75909.00000
52.57800	75637.00000
52.59800	76894.00000
52.61800	78531.00000
52.63800	79755.00000
52.65800	81691.00000
52.67800	81886.00000
52.69800	82452.00000
52.71800	83102.00000
52.73800	84257.00000
52.75800	83873.00000
52.77800	83867.00000
52.79800	84829.00000
52.81800	83193.00000
52.83800	82128.00000
52.85800	82863.00000
52.87800	82167.00000
52.89800	81960.00000
52.91800	81744.00000
52.93800	82014.00000
52.95800	81485.00000
52.97800	81034.00000
52.99800	81192.00000
53.01800	81997.00000
53.03800	81078.00000
53.05800	81734.00000
53.07800	83082.00000
53.09800	83861.00000
53.11800	83445.00000
53.13800	83067.00000
53.15800	84152.00000
53.17800	82935.00000
53.19800	84568.00000
53.21800	84433.00000
53.23800	84204.00000
53.25800	83352.00000
53.27800	82239.00000
53.29800	80648.00000
53.31800	80736.00000
53.33800	79436.00000
53.35800	78056.00000
53.37800	77795.00000
53.39800	77501.00000
53.41800	78173.00000
53.43800	77892.00000
53.45800	77837.00000
53.47800	77389.00000
53.49800	77790.00000
53.51800	78583.00000
53.53800	78215.00000
53.55800	78507.00000
53.57800	78917.00000
53.59800	80362.00000
53.61800	81188.00000
53.63800	81311.00000
53.65800	82902.00000
53.67800	85035.00000
53.69800	87235.00000
53.71800	88821.00000
53.73800	89856.00000
53.75800	90817.00000
53.77800	91595.00000
53.79800	94440.00000
53.81800	95388.00000
53.83800	95743.00000
53.85800	96321.00000
53.87800	98508.00000
53.89800	97516.00000
53.91800	98056.00000
53.93800	98767.00000
53.95800	99748.00000
53.97800	100109.00000
53.99800	100576.00000
54.01800	102416.00000
54.03800	103279.00000
54.05800	103336.00000
54.07800	102336.00000
54.09800	101898.00000
54.11800	101477.00000
54.13800	99363.00000
54.15800	96719.00000
54.17800	95938.00000
54.19800	95282.00000
54.21800	92926.00000
54.23800	90281.00000
54.25800	89355.00000
54.27800	86574.00000
54.29800	85896.00000
54.31800	84911.00000
54.33800	82968.00000
54.35800	80874.00000
54.37800	78904.00000
54.39800	79352.00000
54.41800	77582.00000
54.43800	75734.00000
54.45800	74856.00000
54.47800	74229.00000
54.49800	72231.00000
54.51800	71071.00000
54.53800	70533.00000
54.55800	69413.00000
54.57800	69254.00000
54.59800	69041.00000
54.61800	67947.00000
54.63800	66817.00000
54.65800	67268.00000
54.67800	65540.00000
54.69800	65464.00000
54.71800	66031.00000
54.73800	64850.00000
54.75800	64527.00000
54.77800	66099.00000
54.79800	66174.00000
54.81800	65626.00000
54.83800	65653.00000
54.85800	65956.00000
54.87800	65805.00000
54.89800	66439.00000
54.91800	66813.00000
54.93800	66734.00000
54.95800	65556.00000
54.97800	67246.00000
54.99800	67061.00000
55.01800	66595.00000
55.03800	66511.00000
55.05800	68031.00000
55.07800	67854.00000
55.09800	67729.00000
55.11800	67540.00000
55.13800	67509.00000
55.15800	67090.00000
55.17800	67808.00000
55.19800	68486.00000
55.21800	68446.00000
55.23800	69025.00000
55.25800	68700.00000
55.27800	68513.00000
55.29800	68988.00000
55.31800	69721.00000
55.33800	70451.00000
55.35800	69325.00000
55.37800	70488.00000
55.39800	71492.00000
55.41800	71125.00000
55.43800	70856.00000
55.45800	70583.00000
55.47800	70675.00000
55.49800	70600.00000
55.51800	69823.00000
55.53800	69319.00000
55.55800	69155.00000
55.57800	68858.00000
55.59800	69317.00000
55.61800	69288.00000
55.63800	67376.00000
55.65800	67894.00000
55.67800	65867.00000
55.69800	65805.00000
55.71800	65291.00000
55.73800	63552.00000
55.75800	63474.00000
55.77800	64069.00000
55.79800	64325.00000
55.81800	64016.00000
55.83800	63446.00000
55.85800	62240.00000
55.87800	61759.00000
55.89800	62052.00000
55.91800	62756.00000
55.93800	62383.00000
55.95800	61910.00000
55.97800	62000.00000
55.99800	62253.00000
56.01800	63412.00000
56.03800	62535.00000
56.05800	62308.00000
56.07800	63098.00000
56.09800	63828.00000
56.11800	64033.00000
56.13800	63264.00000
56.15800	63151.00000
56.17800	63686.00000
56.19800	64337.00000
56.21800	63432.00000
56.23800	63120.00000
56.25800	63260.00000
56.27800	63783.00000
56.29800	64378.00000
56.31800	63699.00000
56.33800	64265.00000
56.35800	65876.00000
56.37800	65212.00000
56.39800	65223.00000
56.41800	65876.00000
56.43800	66230.00000
56.45800	66112.00000
56.47800	66345.00000
56.49800	65969.00000
56.51800	67113.00000
56.53800	67963.00000
56.55800	69317.00000
56.57800	69134.00000
56.59800	70230.00000
56.61800	71154.00000
56.63800	71804.00000
56.65800	71473.00000
56.67800	72591.00000
56.69800	73572.00000
56.71800	74572.00000
56.73800	73869.00000
56.75800	74903.00000
56.77800	75170.00000
56.79800	75397.00000
56.81800	76576.00000
56.83800	76282.00000
56.85800	76172.00000
56.87800	76217.00000
56.89800	75967.00000
56.91800	75760.00000
56.93800	76260.00000
56.95800	74695.00000
56.97800	74730.00000
56.99800	75968.00000
57.01800	75917.00000
57.03800	75733.00000
57.05800	74995.00000
57.07800	75823.00000
57.09800	75968.00000
57.11800	76053.00000
57.13800	76043.00000
57.15800	75304.00000
57.17800	74802.00000
57.19800	74310.00000
57.21800	73495.00000
57.23800	73299.00000
57.25800	71826.00000
57.27800	70990.00000
57.29800	69814.00000
57.31800	69323.00000
57.33800	67517.00000
57.35800	67216.00000
57.37800	66140.00000
57.39800	65892.00000
57.41800	64647.00000
57.43800	63868.00000
57.45800	63349.00000
57.47800	63420.00000
57.49800	63173.00000
57.51800	63206.00000
57.53800	61850.00000
57.55800	61936.00000
57.57800	61800.00000
57.59800	60929.00000
57.61800	60850.00000
57.63800	60636.00000
57.65800	60180.00000
57.67800	60387.00000
57.69800	60661.00000
57.71800	60004.00000
57.73800	60256.00000
57.75800	59933.00000
57.77800	59562.00000
57.79800	59869.00000
57.81800	59933.00000
57.83800	60363.00000
57.85800	59825.00000
57.87800	59905.00000
57.89800	59694.00000
57.91800	60164.00000
57.93800	59376.00000
57.95800	59309.00000
57.97800	59852.00000
57.99800	59753.00000
58.01800	60940.00000
58.03800	60624.00000
58.05800	59906.00000
58.07800	59923.00000
58.09800	59663.00000
58.11800	60143.00000
58.13800	60276.00000
58.15800	59296.00000
58.17800	60313.00000
58.19800	60047.00000
58.21800	59990.00000
58.23800	60197.00000
58.25800	59929.00000
58.27800	59070.00000
58.29800	59474.00000
58.31800	59634.00000
58.33800	59070.00000
58.35800	58886.00000
58.37800	59414.00000
58.39800	59858.00000
58.41800	59733.00000
58.43800	60641.00000
58.45800	60565.00000
58.47800	61140.00000
58.49800	61084.00000
58.51800	61251.00000
58.53800	61250.00000
58.55800	61547.00000
58.57800	62015.00000
58.59800	62248.00000
58.61800	63232.00000
58.63800	63442.00000
58.65800	63274.00000
58.67800	63624.00000
58.69800	63181.00000
58.71800	64082.00000
58.73800	64057.00000
58.75800	63632.00000
58.77800	63795.00000
58.79800	63965.00000
58.81800	64063.00000
58.83800	63511.00000
58.85800	64041.00000
58.87800	63468.00000
58.89800	63398.00000
58.91800	63296.00000
58.93800	63290.00000
58.95800	63186.00000
58.97800	63743.00000
58.99800	63674.00000
59.01800	63636.00000
59.03800	64072.00000
59.05800	63488.00000
59.07800	64545.00000
59.09800	64957.00000
59.11800	64730.00000
59.13800	65320.00000
59.15800	65938.00000
59.17800	66422.00000
59.19800	66691.00000
59.21800	66923.00000
59.23800	66960.00000
59.25800	67521.00000
59.27800	67012.00000
59.29800	67481.00000
59.31800	68243.00000
59.33800	68774.00000
59.35800	68381.00000
59.37800	68683.00000
59.39800	69191.00000
59.41800	68709.00000
59.43800	68552.00000
59.45800	68711.00000
59.47800	67948.00000
59.49800	68826.00000
59.51800	69128.00000
59.53800	70045.00000
59.55800	69520.00000
59.57800	69167.00000
59.59800	69670.00000
59.61800	70395.00000
59.63800	70345.00000
59.65800	70154.00000
59.67800	70178.00000
59.69800	71016.00000
59.71800	71523.00000
59.73800	71481.00000
59.75800	71335.00000
59.77800	72309.00000
59.79800	73332.00000
59.81800	73808.00000
59.83800	73783.00000
59.85800	74528.00000
59.87800	74267.00000
59.89800	75189.00000
59.91800	77041.00000
59.93800	77072.00000
59.95800	77123.00000
59.97800	77639.00000
59.99800	78005.00000
60.01800	79013.00000
60.03800	80401.00000
60.05800	81554.00000
60.07800	82707.00000
60.09800	83420.00000
60.11800	86280.00000
60.13800	86426.00000
60.15800	87741.00000
60.17800	89884.00000
60.19800	90959.00000
60.21800	92455.00000
60.23800	93477.00000
60.25800	95894.00000
60.27800	96077.00000
60.29800	97452.00000
60.31800	99136.00000
60.33800	99389.00000
60.35800	100577.00000
60.37800	100912.00000
60.39800	100891.00000
60.41800	99959.00000
60.43800	99483.00000
60.45800	97752.00000
60.47800	96455.00000
60.49800	96527.00000
60.51800	95577.00000
60.53800	94399.00000
60.55800	94178.00000
60.57800	92087.00000
60.59800	91813.00000
60.61800	92038.00000
60.63800	91045.00000
60.65800	89723.00000
60.67800	89309.00000
60.69800	90208.00000
60.71800	88250.00000
60.73800	87694.00000
60.75800	86446.00000
60.77800	86539.00000
60.79800	85378.00000
60.81800	84909.00000
60.83800	84873.00000
60.85800	83780.00000
60.87800	83460.00000
60.89800	83056.00000
60.91800	82256.00000
60.93800	82780.00000
60.95800	82101.00000
60.97800	82189.00000
60.99800	81665.00000
61.01800	81378.00000
61.03800	81440.00000
61.05800	81232.00000
61.07800	80506.00000
61.09800	81265.00000
61.11800	80260.00000
61.13800	79944.00000
61.15800	80785.00000
61.17800	79319.00000
61.19800	80110.00000
61.21800	80807.00000
61.23800	80495.00000
61.25800	80128.00000
61.27800	80108.00000
61.29800	80538.00000
61.31800	79979.00000
61.33800	80822.00000
61.35800	80614.00000
61.37800	82734.00000
61.39800	84167.00000
61.41800	84013.00000
61.43800	83222.00000
61.45800	83472.00000
61.47800	83243.00000
61.49800	81943.00000
61.51800	81746.00000
61.53800	82162.00000
61.55800	81494.00000
61.57800	81981.00000
61.59800	82220.00000
61.61800	83289.00000
61.63800	82910.00000
61.65800	82853.00000
61.67800	83445.00000
61.69800	82731.00000
61.71800	83179.00000
61.73800	83881.00000
61.75800	83791.00000
61.77800	83432.00000
61.79800	83152.00000
61.81800	82809.00000
61.83800	80724.00000
61.85800	80006.00000
61.87800	79799.00000
61.89800	78687.00000
61.91800	79391.00000
61.93800	79303.00000
61.95800	78615.00000
61.97800	79205.00000
61.99800	79775.00000
62.01800	80574.00000
62.03800	80203.00000
62.05800	79764.00000
62.07800	79235.00000
62.09800	79293.00000
62.11800	79079.00000
62.13800	78649.00000
62.15800	79057.00000
62.17800	79545.00000
62.19800	80187.00000
62.21800	80048.00000
62.23800	80130.00000
62.25800	78957.00000
62.27800	77910.00000
62.29800	77516.00000
62.31800	77558.00000
62.33800	77848.00000
62.35800	76526.00000
62.37800	76695.00000
62.39800	76341.00000
62.41800	75348.00000
62.43800	75680.00000
62.45800	74333.00000
62.47800	73905.00000
62.49800	72750.00000
62.51800	72901.00000
62.53800	72384.00000
62.55800	71243.00000
62.57800	71132.00000
62.59800	71429.00000
62.61800	71208.00000
62.63800	70937.00000
62.65800	70151.00000
62.67800	69932.00000
62.69800	69699.00000
62.71800	69464.00000
62.73800	70086.00000
62.75800	69972.00000
62.77800	70310.00000
62.79800	70435.00000
62.81800	70526.00000
62.83800	70667.00000
62.85800	71335.00000
62.87800	72387.00000
62.89800	72292.00000
62.91800	72944.00000
62.93800	72950.00000
62.95800	74635.00000
62.97800	75361.00000
62.99800	75272.00000
63.01800	76493.00000
63.03800	76896.00000
63.05800	77228.00000
63.07800	77854.00000
63.09800	78034.00000
63.11800	78498.00000
63.13800	78146.00000
63.15800	79144.00000
63.17800	79559.00000
63.19800	79650.00000
63.21800	81517.00000
63.23800	82964.00000
63.25800	83881.00000
63.27800	84590.00000
63.29800	84054.00000
63.31800	83974.00000
63.33800	84197.00000
63.35800	83843.00000
63.37800	83197.00000
63.39800	83042.00000
63.41800	83024.00000
63.43800	82516.00000
63.45800	81176.00000
63.47800	80034.00000
63.49800	81721.00000
63.51800	81302.00000
63.53800	80619.00000
63.55800	79689.00000
63.57800	80057.00000
63.59800	78141.00000
63.61800	77773.00000
63.63800	77664.00000
63.65800	76751.00000
63.67800	76451.00000
63.69800	75637.00000
63.71800	75092.00000
63.73800	74348.00000
63.75800	73275.00000
63.77800	73634.00000
63.79800	72599.00000
63.81800	71633.00000
63.83800	71287.00000
63.85800	70981.00000
63.87800	70701.00000
63.89800	69549.00000
63.91800	69741.00000
63.93800	68772.00000
63.95800	68675.00000
63.97800	67727.00000
63.99800	68281.00000
64.01800	68346.00000
64.03800	67812.00000
64.05800	68210.00000
64.07800	68308.00000
64.09800	68853.00000
64.11800	69386.00000
64.13800	69748.00000
64.15800	71072.00000
64.17800	72136.00000
64.19800	72076.00000
64.21800	73045.00000
64.23800	73474.00000
64.25800	74880.00000
64.27800	75646.00000
64.29800	77432.00000
64.31800	77877.00000
64.33800	78306.00000
64.35800	78956.00000
64.37800	79062.00000
64.39800	79116.00000
64.41800	80592.00000
64.43800	80094.00000
64.45800	78579.00000
64.47800	77676.00000
64.49800	76338.00000
64.51800	75866.00000
64.53800	74014.00000
64.55800	72330.00000
64.57800	71434.00000
64.59800	70555.00000
64.61800	68339.00000
64.63800	68029.00000
64.65800	66412.00000
64.67800	64882.00000
64.69800	63515.00000
64.71800	63571.00000
64.73800	62822.00000
64.75800	61954.00000
64.77800	61225.00000
64.79800	60419.00000
64.81800	60451.00000
64.83800	60032.00000
64.85800	59631.00000
64.87800	58609.00000
64.89800	58960.00000
64.91800	59297.00000
64.93800	58590.00000
64.95800	58061.00000
64.97800	58112.00000
64.99800	57160.00000
65.01800	56308.00000
65.03800	56106.00000
65.05800	57076.00000
65.07800	56564.00000
65.09800	55765.00000
65.11800	56028.00000
65.13800	55691.00000
65.15800	55898.00000
65.17800	55779.00000
65.19800	55748.00000
65.21800	55562.00000
65.23800	55446.00000
65.25800	55753.00000
65.27800	55892.00000
65.29800	55806.00000
65.31800	55981.00000
65.33800	56176.00000
65.35800	56193.00000
65.37800	56797.00000
65.39800	56062.00000
65.41800	57443.00000
65.43800	57196.00000
65.45800	57593.00000
65.47800	58039.00000
65.49800	58878.00000
65.51800	58836.00000
65.53800	60257.00000
65.55800	61039.00000
65.57800	62060.00000
65.59800	62600.00000
65.61800	63249.00000
65.63800	63685.00000
65.65800	64095.00000
65.67800	64600.00000
65.69800	64785.00000
65.71800	66172.00000
65.73800	68306.00000
65.75800	67935.00000
65.77800	68790.00000
65.79800	70198.00000
65.81800	71497.00000
65.83800	71543.00000
65.85800	72249.00000
65.87800	72263.00000
65.89800	73244.00000
65.91800	74005.00000
65.93800	74008.00000
65.95800	74803.00000
65.97800	75353.00000
65.99800	74767.00000
66.01800	75118.00000
66.03800	75951.00000
66.05800	75370.00000
66.07800	75945.00000
66.09800	76246.00000
66.11800	76397.00000
66.13800	75980.00000
66.15800	74414.00000
66.17800	74372.00000
66.19800	73657.00000
66.21800	73485.00000
66.23800	73996.00000
66.25800	71961.00000
66.27800	71685.00000
66.29800	71156.00000
66.31800	70995.00000
66.33800	69940.00000
66.35800	69619.00000
66.37800	69689.00000
66.39800	69725.00000
66.41800	69310.00000
66.43800	70506.00000
66.45800	69612.00000
66.47800	69857.00000
66.49800	70900.00000
66.51800	71512.00000
66.53800	71471.00000
66.55800	71521.00000
66.57800	71378.00000
66.59800	71687.00000
66.61800	73529.00000
66.63800	73855.00000
66.65800	73837.00000
66.67800	75057.00000
66.69800	75195.00000
66.71800	76397.00000
66.73800	77440.00000
66.75800	78080.00000
66.77800	78583.00000
66.79800	78470.00000
66.81800	77601.00000
66.83800	76849.00000
66.85800	75105.00000
66.87800	73447.00000
66.89800	72247.00000
66.91800	71528.00000
66.93800	69653.00000
66.95800	68333.00000
66.97800	67880.00000
66.99800	66173.00000
67.01800	65101.00000
67.03800	64835.00000
67.05800	63403.00000
67.07800	62286.00000
67.09800	62500.00000
67.11800	61519.00000
67.13800	61862.00000
67.15800	60939.00000
67.17800	60154.00000
67.19800	59531.00000
67.21800	59841.00000
67.23800	58753.00000
67.25800	58576.00000
67.27800	58210.00000
67.29800	58611.00000
67.31800	58537.00000
67.33800	58370.00000
67.35800	58627.00000
67.37800	58183.00000
67.39800	58921.00000
67.41800	59235.00000
67.43800	58097.00000
67.45800	58162.00000
67.47800	58083.00000
67.49800	57581.00000
67.51800	56823.00000
67.53800	57383.00000
67.55800	56516.00000
67.57800	57580.00000
67.59800	57387.00000
67.61800	58192.00000
67.63800	57550.00000
67.65800	57686.00000
67.67800	57927.00000
67.69800	57878.00000
67.71800	58797.00000
67.73800	58695.00000
67.75800	58825.00000
67.77800	58397.00000
67.79800	58236.00000
67.81800	59614.00000
67.83800	59713.00000
67.85800	59807.00000
67.87800	60317.00000
67.89800	60352.00000
67.91800	60808.00000
67.93800	60751.00000
67.95800	60372.00000
67.97800	60671.00000
67.99800	61110.00000
68.01800	60715.00000
68.03800	60414.00000
68.05800	60654.00000
68.07800	60764.00000
68.09800	61676.00000
68.11800	61227.00000
68.13800	60134.00000
68.15800	60268.00000
68.17800	59955.00000
68.19800	60457.00000
68.21800	60586.00000
68.23800	60286.00000
68.25800	60440.00000
68.27800	60337.00000
68.29800	61300.00000
68.31800	60877.00000
68.33800	59780.00000
68.35800	61008.00000
68.37800	60006.00000
68.39800	61039.00000
68.41800	60829.00000
68.43800	62133.00000
68.45800	61324.00000
68.47800	61758.00000
68.49800	62152.00000
68.51800	62353.00000
68.53800	61967.00000
68.55800	60705.00000
68.57800	60443.00000
68.59800	59911.00000
68.61800	60184.00000
68.63800	61262.00000
68.65800	60765.00000
68.67800	60329.00000
68.69800	59896.00000
68.71800	59330.00000
68.73800	59913.00000
68.75800	59072.00000
68.77800	58531.00000
68.79800	59034.00000
68.81800	59031.00000
68.83800	59340.00000
68.85800	59782.00000
68.87800	58886.00000
68.89800	59075.00000
68.91800	59676.00000
68.93800	59582.00000
68.95800	59854.00000
68.97800	59232.00000
68.99800	59399.00000
69.01800	59830.00000
69.03800	60443.00000
69.05800	60642.00000
69.07800	60907.00000
69.09800	61350.00000
69.11800	61106.00000
69.13800	61134.00000
69.15800	60683.00000
69.17800	61296.00000
69.19800	62044.00000
69.21800	61874.00000
69.23800	62867.00000
69.25800	64218.00000
69.27800	64162.00000
69.29800	64453.00000
69.31800	65113.00000
69.33800	65267.00000
69.35800	64726.00000
69.37800	64624.00000
69.39800	64843.00000
69.41800	65721.00000
69.43800	65032.00000
69.45800	65666.00000
69.47800	64868.00000
69.49800	65503.00000
69.51800	65798.00000
69.53800	66459.00000
69.55800	64816.00000
69.57800	64955.00000
69.59800	64876.00000
69.61800	65049.00000
69.63800	64326.00000
69.65800	63537.00000
69.67800	62779.00000
69.69800	62365.00000
69.71800	61894.00000
69.73800	61351.00000
69.75800	60577.00000
69.77800	61563.00000
69.79800	60103.00000
69.81800	59686.00000
69.83800	59714.00000
69.85800	59695.00000
69.87800	58868.00000
69.89800	58996.00000
69.91800	58232.00000
69.93800	58117.00000
69.95800	56934.00000
69.97800	57079.00000
69.99800	57372.00000
70.01800	57150.00000
70.03800	56505.00000
70.05800	57076.00000
70.07800	57155.00000
70.09800	57034.00000
70.11800	55986.00000
70.13800	56060.00000
70.15800	56218.00000
70.17800	55877.00000
70.19800	55655.00000
70.21800	55705.00000
70.23800	55653.00000
70.25800	56586.00000
70.27800	56014.00000
70.29800	56032.00000
70.31800	56938.00000
70.33800	56556.00000
70.35800	57187.00000
70.37800	57615.00000
70.39800	57817.00000
70.41800	58497.00000
70.43800	58276.00000
70.45800	59127.00000
70.47800	57915.00000
70.49800	58953.00000
70.51800	60174.00000
70.53800	59948.00000
70.55800	59737.00000
70.57800	60336.00000
70.59800	61047.00000
70.61800	60829.00000
70.63800	60759.00000
70.65800	60368.00000
70.67800	60389.00000
70.69800	59534.00000
70.71800	60894.00000
70.73800	60298.00000
70.75800	61067.00000
70.77800	61209.00000
70.79800	61112.00000
70.81800	61423.00000
70.83800	61575.00000
70.85800	62649.00000
70.87800	61949.00000
70.89800	62620.00000
70.91800	61690.00000
70.93800	61480.00000
70.95800	61827.00000
70.97800	61888.00000
70.99800	61629.00000
71.01800	61943.00000
71.03800	62656.00000
71.05800	61729.00000
71.07800	62169.00000
71.09800	63186.00000
71.11800	62769.00000
71.13800	61911.00000
71.15800	61471.00000
71.17800	61470.00000
71.19800	62188.00000
71.21800	61863.00000
71.23800	61520.00000
71.25800	61704.00000
71.27800	61479.00000
71.29800	62462.00000
71.31800	62858.00000
71.33800	63080.00000
71.35800	62516.00000
71.37800	62721.00000
71.39800	63536.00000
71.41800	64697.00000
71.43800	64149.00000
71.45800	64532.00000
71.47800	66263.00000
71.49800	66496.00000
71.51800	67202.00000
71.53800	66897.00000
71.55800	67664.00000
71.57800	68221.00000
71.59800	68402.00000
71.61800	68481.00000
71.63800	68389.00000
71.65800	68360.00000
71.67800	68539.00000
71.69800	67438.00000
71.71800	66996.00000
71.73800	66582.00000
71.75800	65200.00000
71.77800	64673.00000
71.79800	63628.00000
71.81800	63560.00000
71.83800	61755.00000
71.85800	60734.00000
71.87800	60462.00000
71.89800	60990.00000
71.91800	59168.00000
71.93800	59377.00000
71.95800	58255.00000
71.97800	58760.00000
71.99800	58229.00000
72.01800	57683.00000
72.03800	58128.00000
72.05800	57966.00000
72.07800	58164.00000
72.09800	58295.00000
72.11800	57830.00000
72.13800	57854.00000
72.15800	57324.00000
72.17800	58157.00000
72.19800	57900.00000
72.21800	57673.00000
72.23800	58301.00000
72.25800	57884.00000
72.27800	57477.00000
72.29800	58434.00000
72.31800	57309.00000
72.33800	56857.00000
72.35800	57173.00000
72.37800	57904.00000
72.39800	57192.00000
72.41800	58280.00000
72.43800	58035.00000
72.45800	57627.00000
72.47800	57299.00000
72.49800	56943.00000
72.51800	56753.00000
72.53800	56756.00000
72.55800	56470.00000
72.57800	55858.00000
72.59800	57013.00000
72.61800	56864.00000
72.63800	55395.00000
72.65800	56441.00000
72.67800	56611.00000
72.69800	56835.00000
72.71800	57357.00000
72.73800	56765.00000
72.75800	57502.00000
72.77800	58659.00000
72.79800	59326.00000
72.81800	59872.00000
72.83800	59860.00000
72.85800	59903.00000
72.87800	60050.00000
72.89800	60192.00000
72.91800	61450.00000
72.93800	60757.00000
72.95800	60824.00000
72.97800	60396.00000
72.99800	60870.00000
73.01800	60341.00000
73.03800	59248.00000
73.05800	58824.00000
73.07800	58840.00000
73.09800	58433.00000
73.11800	57689.00000
73.13800	58090.00000
73.15800	56765.00000
73.17800	57204.00000
73.19800	57844.00000
73.21800	56893.00000
73.23800	56908.00000
73.25800	56624.00000
73.27800	56433.00000
73.29800	56605.00000
73.31800	55614.00000
73.33800	54777.00000
73.35800	55314.00000
73.37800	55047.00000
73.39800	55337.00000
73.41800	55734.00000
73.43800	55994.00000
73.45800	55017.00000
73.47800	55562.00000
73.49800	55494.00000
73.51800	55449.00000
73.53800	55842.00000
73.55800	55757.00000
73.57800	56239.00000
73.59800	56762.00000
73.61800	56993.00000
73.63800	57185.00000
73.65800	57783.00000
73.67800	57022.00000
73.69800	56830.00000
73.71800	57235.00000
73.73800	57359.00000
73.75800	57311.00000
73.77800	57075.00000
73.79800	56966.00000
73.81800	57354.00000
73.83800	56824.00000
73.85800	56308.00000
73.87800	56825.00000
73.89800	57090.00000
73.91800	56313.00000
73.93800	55492.00000
73.95800	56133.00000
73.97800	56885.00000
73.99800	56529.00000
74.01800	55944.00000
74.03800	56706.00000
74.05800	55766.00000
74.07800	55941.00000
74.09800	56558.00000
74.11800	56510.00000
74.13800	55297.00000
74.15800	55148.00000
74.17800	56072.00000
74.19800	55816.00000
74.21800	56228.00000
74.23800	56540.00000
74.25800	55864.00000
74.27800	56766.00000
74.29800	56435.00000
74.31800	57228.00000
74.33800	57372.00000
74.35800	57599.00000
74.37800	57803.00000
74.39800	57409.00000
74.41800	57082.00000
74.43800	56832.00000
74.45800	56789.00000
74.47800	56731.00000
74.49800	56740.00000
74.51800	57323.00000
74.53800	56999.00000
74.55800	56602.00000
74.57800	56876.00000
74.59800	57351.00000
74.61800	57686.00000
74.63800	57287.00000
74.65800	57370.00000
74.67800	58157.00000
74.69800	58069.00000
74.71800	57336.00000
74.73800	59472.00000
74.75800	59527.00000
74.77800	59736.00000
74.79800	60973.00000
74.81800	61925.00000
74.83800	61020.00000
74.85800	61899.00000
74.87800	62273.00000
74.89800	63134.00000
74.91800	63253.00000
74.93800	63511.00000
74.95800	63476.00000
74.97800	63448.00000
74.99800	64635.00000
75.01800	63880.00000
75.03800	63755.00000
75.05800	64794.00000
75.07800	64602.00000
75.09800	64616.00000
75.11800	65113.00000
75.13800	65250.00000
75.15800	65381.00000
75.17800	66018.00000
75.19800	65698.00000
75.21800	66046.00000
75.23800	66209.00000
75.25800	65836.00000
75.27800	65933.00000
75.29800	66273.00000
75.31800	65477.00000
75.33800	66391.00000
75.35800	65821.00000
75.37800	65472.00000
75.39800	64340.00000
75.41800	63538.00000
75.43800	63133.00000
75.45800	61999.00000
75.47800	62438.00000
75.49800	61908.00000
75.51800	61520.00000
75.53800	60872.00000
75.55800	60200.00000
75.57800	60824.00000
75.59800	60620.00000
75.61800	60176.00000
75.63800	59233.00000
75.65800	59364.00000
75.67800	59631.00000
75.69800	59027.00000
75.71800	57791.00000
75.73800	57769.00000
75.75800	56706.00000
75.77800	56760.00000
75.79800	56298.00000
75.81800	55912.00000
75.83800	55817.00000
75.85800	54888.00000
75.87800	55234.00000
75.89800	54195.00000
75.91800	53462.00000
75.93800	54056.00000
75.95800	53432.00000
75.97800	54047.00000
75.99800	53488.00000
76.01800	53857.00000
76.03800	54073.00000
76.05800	53618.00000
76.07800	53351.00000
76.09800	53969.00000
76.11800	53683.00000
76.13800	53972.00000
76.15800	53287.00000
76.17800	53784.00000
76.19800	53487.00000
76.21800	53621.00000
76.23800	53548.00000
76.25800	53147.00000
76.27800	53433.00000
76.29800	54293.00000
76.31800	53065.00000
76.33800	53776.00000
76.35800	54109.00000
76.37800	54156.00000
76.39800	54156.00000
76.41800	54020.00000
76.43800	54448.00000
76.45800	54688.00000
76.47800	54403.00000
76.49800	55121.00000
76.51800	55167.00000
76.53800	55367.00000
76.55800	53876.00000
76.57800	54565.00000
76.59800	54762.00000
76.61800	55578.00000
76.63800	56177.00000
76.65800	55494.00000
76.67800	55339.00000
76.69800	56299.00000
76.71800	56299.00000
76.73800	55628.00000
76.75800	56617.00000
76.77800	56940.00000
76.79800	56614.00000
76.81800	57102.00000
76.83800	56730.00000
76.85800	57364.00000
76.87800	57007.00000
76.89800	57647.00000
76.91800	57840.00000
76.93800	58101.00000
76.95800	57492.00000
76.97800	56685.00000
76.99800	57829.00000
77.01800	58085.00000
77.03800	58391.00000
77.05800	57909.00000
77.07800	56747.00000
77.09800	57404.00000
77.11800	58172.00000
77.13800	58767.00000
77.15800	58038.00000
77.17800	57937.00000
77.19800	58386.00000
77.21800	58883.00000
77.23800	59683.00000
77.25800	59172.00000
77.27800	59341.00000
77.29800	59753.00000
77.31800	60408.00000
77.33800	60213.00000
77.35800	61126.00000
77.37800	60975.00000
77.39800	60979.00000
77.41800	60500.00000
77.43800	61129.00000
77.45800	61080.00000
77.47800	60418.00000
77.49800	60354.00000
77.51800	61204.00000
77.53800	60624.00000
77.55800	60909.00000
77.57800	60881.00000
77.59800	60432.00000
77.61800	60921.00000
77.63800	60835.00000
77.65800	60342.00000
77.67800	59598.00000
77.69800	60376.00000
77.71800	59987.00000
77.73800	59941.00000
77.75800	60550.00000
77.77800	60897.00000
77.79800	60415.00000
77.81800	59814.00000
77.83800	60345.00000
77.85800	60366.00000
77.87800	60382.00000
77.89800	59311.00000
77.91800	60567.00000
77.93800	60615.00000
77.95800	60104.00000
77.97800	60218.00000
77.99800	60697.00000
78.01800	59862.00000
78.03800	59395.00000
78.05800	58789.00000
78.07800	59005.00000
78.09800	59340.00000
78.11800	59678.00000
78.13800	58864.00000
78.15800	59644.00000
78.17800	60167.00000
78.19800	60150.00000
78.21800	60540.00000
78.23800	61217.00000
78.25800	59814.00000
78.27800	60808.00000
78.29800	60690.00000
78.31800	61114.00000
78.33800	60888.00000
78.35800	60762.00000
78.37800	61711.00000
78.39800	62726.00000
78.41800	62403.00000
78.43800	62878.00000
78.45800	64212.00000
78.47800	63649.00000
78.49800	63756.00000
78.51800	64367.00000
78.53800	64651.00000
78.55800	65150.00000
78.57800	65310.00000
78.59800	65881.00000
78.61800	66197.00000
78.63800	65325.00000
78.65800	65095.00000
78.67800	65323.00000
78.69800	64501.00000
78.71800	64662.00000
78.73800	64397.00000
78.75800	64043.00000
78.77800	63694.00000
78.79800	63315.00000
78.81800	62475.00000
78.83800	62463.00000
78.85800	62538.00000
78.87800	61376.00000
78.89800	61189.00000
78.91800	61172.00000
78.93800	59914.00000
78.95800	59926.00000
78.97800	59699.00000
78.99800	60080.00000
79.01800	59749.00000
79.03800	58710.00000
79.05800	57735.00000
79.07800	57855.00000
79.09800	57179.00000
79.11800	57461.00000
79.13800	56651.00000
79.15800	57242.00000
79.17800	57107.00000
79.19800	57419.00000
79.21800	57293.00000
79.23800	57249.00000
79.25800	57431.00000
79.27800	56289.00000
79.29800	56969.00000
79.31800	56227.00000
79.33800	56560.00000
79.35800	55706.00000
79.37800	55958.00000
79.39800	55714.00000
79.41800	54728.00000
79.43800	54803.00000
79.45800	55466.00000
79.47800	54309.00000
79.49800	54704.00000
79.51800	55800.00000
79.53800	55301.00000
79.55800	54885.00000
79.57800	54369.00000
79.59800	54737.00000
79.61800	55240.00000
79.63800	54918.00000
79.65800	54240.00000
79.67800	54980.00000
79.69800	54462.00000
79.71800	54828.00000
79.73800	54570.00000
79.75800	54594.00000
79.77800	54869.00000
79.79800	54607.00000
79.81800	55020.00000
79.83800	54267.00000
79.85800	54380.00000
79.87800	55189.00000
79.89800	54730.00000
79.91800	54070.00000
79.93800	55071.00000
79.95800	54250.00000
79.97800	54152.00000
79.99800	54303.00000
80.01800	54650.00000
80.03800	54850.00000
80.05800	54844.00000
80.07800	54532.00000
80.09800	54081.00000
80.11800	54852.00000
80.13800	54704.00000
80.15800	54074.00000
80.17800	53956.00000
80.19800	54158.00000
80.21800	54608.00000
80.23800	53927.00000
80.25800	55103.00000
80.27800	54380.00000
80.29800	54313.00000
80.31800	53918.00000
80.33800	54776.00000
80.35800	54705.00000
80.37800	54316.00000
80.39800	55088.00000
80.41800	55779.00000
80.43800	55456.00000
80.45800	56049.00000
80.47800	55806.00000
80.49800	55679.00000
80.51800	55944.00000
80.53800	55838.00000
80.55800	55673.00000
80.57800	56766.00000
80.59800	57365.00000
80.61800	56412.00000
80.63800	56318.00000
80.65800	56085.00000
80.67800	57311.00000
80.69800	56101.00000
80.71800	56075.00000
80.73800	56309.00000
80.75800	56415.00000
80.77800	56919.00000
80.79800	56380.00000
80.81800	57356.00000
80.83800	57157.00000
80.85800	56375.00000
80.87800	56607.00000
80.89800	56640.00000
80.91800	57647.00000
80.93800	56779.00000
80.95800	56446.00000
80.97800	55973.00000
80.99800	57121.00000
81.01800	55476.00000
81.03800	56043.00000
81.05800	56260.00000
81.07800	56102.00000
81.09800	56258.00000
81.11800	57275.00000
81.13800	56801.00000
81.15800	56842.00000
81.17800	57355.00000
81.19800	56848.00000
81.21800	57056.00000
81.23800	56664.00000
81.25800	56348.00000
81.27800	56227.00000
81.29800	56544.00000
81.31800	56880.00000
81.33800	56346.00000
81.35800	56884.00000
81.37800	57852.00000
81.39800	57670.00000
81.41800	57994.00000
81.43800	57197.00000
81.45800	57511.00000
81.47800	58041.00000
81.49800	59327.00000
81.51800	59613.00000
81.53800	59117.00000
81.55800	59428.00000
81.57800	58986.00000
81.59800	59747.00000
81.61800	59914.00000
81.63800	59540.00000
81.65800	58992.00000
81.67800	59080.00000
81.69800	59049.00000
81.71800	59773.00000
81.73800	59887.00000
81.75800	59447.00000
81.77800	59830.00000
81.79800	59466.00000
81.81800	59333.00000
81.83800	59098.00000
81.85800	59417.00000
81.87800	59162.00000
81.89800	58651.00000
81.91800	57787.00000
81.93800	57876.00000
81.95800	58628.00000
81.97800	58559.00000
81.99800	59240.00000
82.01800	59782.00000
82.03800	58666.00000
82.05800	58600.00000
82.07800	59620.00000
82.09800	58942.00000
82.11800	58390.00000
82.13800	58702.00000
82.15800	57787.00000
82.17800	58182.00000
82.19800	57953.00000
82.21800	58665.00000
82.23800	57851.00000
82.25800	57873.00000
82.27800	57996.00000
82.29800	57633.00000
82.31800	57631.00000
82.33800	58227.00000
82.35800	58474.00000
82.37800	58072.00000
82.39800	58731.00000
82.41800	58596.00000
82.43800	57671.00000
82.45800	57126.00000
82.47800	58351.00000
82.49800	57587.00000
82.51800	56144.00000
82.53800	56825.00000
82.55800	56434.00000
82.57800	55691.00000
82.59800	56800.00000
82.61800	56601.00000
82.63800	56818.00000
82.65800	56562.00000
82.67800	57298.00000
82.69800	57406.00000
82.71800	56715.00000
82.73800	56543.00000
82.75800	57319.00000
82.77800	57387.00000
82.79800	57765.00000
82.81800	57978.00000
82.83800	57300.00000
82.85800	58285.00000
82.87800	58255.00000
82.89800	57947.00000
82.91800	58106.00000
82.93800	57064.00000
82.95800	57370.00000
82.97800	57404.00000
82.99800	56441.00000
83.01800	56638.00000
83.03800	56956.00000
83.05800	56223.00000
83.07800	55556.00000
83.09800	55984.00000
83.11800	55914.00000
83.13800	54644.00000
83.15800	54363.00000
83.17800	54362.00000
83.19800	54883.00000
83.21800	54857.00000
83.23800	54536.00000
83.25800	54696.00000
83.27800	55033.00000
83.29800	54462.00000
83.31800	55212.00000
83.33800	54921.00000
83.35800	54079.00000
83.37800	54510.00000
83.39800	53576.00000
83.41800	53736.00000
83.43800	54018.00000
83.45800	53743.00000
83.47800	53949.00000
83.49800	53888.00000
83.51800	54139.00000
83.53800	53779.00000
83.55800	54325.00000
83.57800	54203.00000
83.59800	54140.00000
83.61800	53954.00000
83.63800	54332.00000
83.65800	54160.00000
83.67800	54581.00000
83.69800	55002.00000
83.71800	54284.00000
83.73800	54332.00000
83.75800	54281.00000
83.77800	53942.00000
83.79800	54242.00000
83.81800	53735.00000
83.83800	53648.00000
83.85800	52809.00000
83.87800	53162.00000
83.89800	53784.00000
83.91800	54132.00000
83.93800	53892.00000
83.95800	54225.00000
83.97800	53934.00000
83.99800	53136.00000
84.01800	53472.00000
84.03800	53486.00000
84.05800	53774.00000
84.07800	53826.00000
84.09800	53598.00000
84.11800	53926.00000
84.13800	54099.00000
84.15800	53783.00000
84.17800	54455.00000
84.19800	54306.00000
84.21800	54129.00000
84.23800	53754.00000
84.25800	54669.00000
84.27800	54941.00000
84.29800	55077.00000
84.31800	54961.00000
84.33800	55206.00000
84.35800	54935.00000
84.37800	54134.00000
84.39800	55264.00000
84.41800	55466.00000
84.43800	55088.00000
84.45800	54830.00000
84.47800	57029.00000
84.49800	57379.00000
84.51800	57773.00000
84.53800	57286.00000
84.55800	56844.00000
84.57800	56950.00000
84.59800	57188.00000
84.61800	57441.00000
84.63800	57227.00000
84.65800	56805.00000
84.67800	56496.00000
84.69800	56575.00000
84.71800	56831.00000
84.73800	56176.00000
84.75800	57092.00000
84.77800	56126.00000
84.79800	55747.00000
84.81800	55857.00000
84.83800	55446.00000
84.85800	54611.00000
84.87800	54730.00000
84.89800	54871.00000
84.91800	55663.00000
84.93800	55164.00000
84.95800	54757.00000
84.97800	54802.00000
84.99800	54809.00000
85.01800	54060.00000
85.03800	52875.00000
85.05800	52624.00000
85.07800	52650.00000
85.09800	53029.00000
85.11800	52439.00000
85.13800	52803.00000
85.15800	52640.00000
85.17800	52804.00000
85.19800	53116.00000
85.21800	52919.00000
85.23800	52380.00000
85.25800	51912.00000
85.27800	51954.00000
85.29800	51027.00000
85.31800	51297.00000
85.33800	51593.00000
85.35800	51761.00000
85.37800	52577.00000
85.39800	52232.00000
85.41800	51645.00000
85.43800	52019.00000
85.45800	52852.00000
85.47800	52660.00000
85.49800	52843.00000
85.51800	51919.00000
85.53800	52225.00000
85.55800	53088.00000
85.57800	53151.00000
85.59800	53705.00000
85.61800	54096.00000
85.63800	53739.00000
85.65800	53858.00000
85.67800	54317.00000
85.69800	54949.00000
85.71800	53937.00000
85.73800	53810.00000
85.75800	54278.00000
85.77800	55321.00000
85.79800	54377.00000
85.81800	54400.00000
85.83800	55140.00000
85.85800	55723.00000
85.87800	55414.00000
85.89800	54986.00000
85.91800	55655.00000
85.93800	55415.00000
85.95800	55458.00000
85.97800	55985.00000
85.99800	56187.00000
86.01800	55753.00000
86.03800	56201.00000
86.05800	55642.00000
86.07800	55582.00000
86.09800	55174.00000
86.11800	54455.00000
86.13800	55530.00000
86.15800	55231.00000
86.17800	54701.00000
86.19800	54479.00000
86.21800	54403.00000
86.23800	53653.00000
86.25800	53991.00000
86.27800	54081.00000
86.29800	54527.00000
86.31800	53488.00000
86.33800	53154.00000
86.35800	52955.00000
86.37800	53277.00000
86.39800	52926.00000
86.41800	52621.00000
86.43800	53020.00000
86.45800	52972.00000
86.47800	53103.00000
86.49800	52640.00000
86.51800	53520.00000
86.53800	53207.00000
86.55800	52574.00000
86.57800	52810.00000
86.59800	52169.00000
86.61800	51762.00000
86.63800	51908.00000
86.65800	52329.00000
86.67800	52085.00000
86.69800	51967.00000
86.71800	51680.00000
86.73800	52049.00000
86.75800	52216.00000
86.77800	53053.00000
86.79800	52508.00000
86.81800	52580.00000
86.83800	52449.00000
86.85800	52320.00000
86.87800	51941.00000
86.89800	52072.00000
86.91800	52234.00000
86.93800	52759.00000
86.95800	52691.00000
86.97800	52635.00000
86.99800	53164.00000
87.01800	53514.00000
87.03800	53766.00000
87.05800	53333.00000
87.07800	53214.00000
87.09800	54506.00000
87.11800	54386.00000
87.13800	53929.00000
87.15800	53348.00000
87.17800	54420.00000
87.19800	54284.00000
87.21800	54623.00000
87.23800	54502.00000
87.25800	53682.00000
87.27800	54183.00000
87.29800	54910.00000
87.31800	54174.00000
87.33800	54350.00000
87.35800	55254.00000
87.37800	54608.00000
87.39800	54842.00000
87.41800	53890.00000
87.43800	53780.00000
87.45800	53608.00000
87.47800	53983.00000
87.49800	53068.00000
87.51800	53231.00000
87.53800	52760.00000
87.55800	53198.00000
87.57800	52731.00000
87.59800	53024.00000
87.61800	53353.00000
87.63800	52886.00000
87.65800	53445.00000
87.67800	52977.00000
87.69800	53292.00000
87.71800	52955.00000
87.73800	51555.00000
87.75800	51740.00000
87.77800	52300.00000
87.79800	51566.00000
87.81800	51681.00000
87.83800	51367.00000
87.85800	52208.00000
87.87800	51744.00000
87.89800	51828.00000
87.91800	51086.00000
87.93800	51251.00000
87.95800	50948.00000
87.97800	51387.00000
87.99800	51842.00000
88.01800	51044.00000
88.03800	50150.00000
88.05800	50608.00000
88.07800	51201.00000
88.09800	51170.00000
88.11800	51461.00000
88.13800	50342.00000
88.15800	50958.00000
88.17800	50628.00000
88.19800	50950.00000
88.21800	50631.00000
88.23800	51142.00000
88.25800	50838.00000
88.27800	50887.00000
88.29800	51524.00000
88.31800	51801.00000
88.33800	50759.00000
88.35800	50741.00000
88.37800	50634.00000
88.39800	51479.00000
88.41800	51970.00000
88.43800	51197.00000
88.45800	51271.00000
88.47800	51318.00000
88.49800	51198.00000
88.51800	51358.00000
88.53800	51557.00000
88.55800	50845.00000
88.57800	51102.00000
88.59800	51120.00000
88.61800	51117.00000
88.63800	51182.00000
88.65800	51893.00000
88.67800	51686.00000
88.69800	52191.00000
88.71800	51706.00000
88.73800	51939.00000
88.75800	51554.00000
88.77800	51826.00000
88.79800	51728.00000
88.81800	51592.00000
88.83800	51113.00000
88.85800	51662.00000
88.87800	51477.00000
88.89800	51769.00000
88.91800	51665.00000
88.93800	52409.00000
88.95800	51496.00000
88.97800	52143.00000
88.99800	52464.00000
89.01800	52554.00000
89.03800	52621.00000
89.05800	51880.00000
89.07800	51931.00000
89.09800	50863.00000
89.11800	52166.00000
89.13800	52137.00000
89.15800	52286.00000
89.17800	52536.00000
89.19800	52481.00000
89.21800	52098.00000
89.23800	53783.00000
89.25800	52634.00000
89.27800	53317.00000
89.29800	53641.00000
89.31800	53943.00000
89.33800	53048.00000
89.35800	53803.00000
89.37800	53212.00000
89.39800	53267.00000
89.41800	53754.00000
89.43800	54286.00000
89.45800	54551.00000
89.47800	54446.00000
89.49800	54817.00000
89.51800	55182.00000
89.53800	54374.00000
89.55800	53789.00000
89.57800	54465.00000
89.59800	55042.00000
89.61800	56042.00000
89.63800	54388.00000
89.65800	54986.00000
89.67800	55029.00000
89.69800	55262.00000
89.71800	53558.00000
89.73800	54029.00000
89.75800	54626.00000
89.77800	54349.00000
89.79800	54020.00000
89.81800	54014.00000
89.83800	54354.00000
89.85800	53831.00000
89.87800	54367.00000
89.89800	54383.00000
89.91800	54076.00000
89.93800	53155.00000
89.95800	53143.00000
89.97800	52710.00000
89.99800	51684.00000
90.01800	51804.00000
90.03800	50663.00000
90.05800	50584.00000
90.07800	50423.00000
90.09800	50040.00000
90.11800	50051.00000
90.13800	50154.00000
90.15800	49992.00000
90.17800	50054.00000
90.19800	49235.00000
90.21800	49529.00000
90.23800	48914.00000
90.25800	49248.00000
90.27800	49604.00000
90.29800	48642.00000
90.31800	48998.00000
90.33800	48444.00000
90.35800	48324.00000
90.37800	48783.00000
90.39800	49299.00000
90.41800	48513.00000
90.43800	47805.00000
90.45800	47679.00000
90.47800	48556.00000
90.49800	48511.00000
90.51800	48184.00000
90.53800	47968.00000
90.55800	48229.00000
90.57800	48025.00000
90.59800	48160.00000
90.61800	47553.00000
90.63800	47018.00000
90.65800	47135.00000
90.67800	46690.00000
90.69800	46694.00000
90.71800	46974.00000
90.73800	46654.00000
90.75800	46273.00000
90.77800	46778.00000
90.79800	45971.00000
90.81800	46530.00000
90.83800	47217.00000
90.85800	46754.00000
90.87800	46536.00000
90.89800	46765.00000
90.91800	46396.00000
90.93800	45338.00000
90.95800	45369.00000
90.97800	46049.00000
90.99800	45512.00000
91.01800	46297.00000
91.03800	46054.00000
91.05800	45928.00000
91.07800	45997.00000
91.09800	45288.00000
91.11800	45072.00000
91.13800	44776.00000
91.15800	44596.00000
91.17800	45203.00000
91.19800	45664.00000
91.21800	46050.00000
91.23800	45442.00000
91.25800	45494.00000
91.27800	45008.00000
91.29800	46260.00000
91.31800	45504.00000
91.33800	45452.00000
91.35800	45453.00000
91.37800	45454.00000
91.39800	45632.00000
91.41800	45446.00000
91.43800	45272.00000
91.45800	45494.00000
91.47800	45343.00000
91.49800	45169.00000
91.51800	45119.00000
91.53800	45223.00000
91.55800	44565.00000
91.57800	44640.00000
91.59800	44972.00000
91.61800	44937.00000
91.63800	45475.00000
91.65800	45623.00000
91.67800	45341.00000
91.69800	45690.00000
91.71800	45374.00000
91.73800	45544.00000
91.75800	45730.00000
91.77800	44866.00000
91.79800	45717.00000
91.81800	45554.00000
91.83800	44748.00000
91.85800	45666.00000
91.87800	45890.00000
91.89800	46101.00000
91.91800	46008.00000
91.93800	45766.00000
91.95800	46374.00000
91.97800	46442.00000
91.99800	45828.00000
92.01800	46342.00000
92.03800	47235.00000
92.05800	46479.00000
92.07800	46659.00000
92.09800	46754.00000
92.11800	47703.00000
92.13800	47447.00000
92.15800	47182.00000
92.17800	46914.00000
92.19800	47231.00000
92.21800	47415.00000
92.23800	47237.00000
92.25800	47366.00000
92.27800	46211.00000
92.29800	46174.00000
92.31800	46434.00000
92.33800	46892.00000
92.35800	46538.00000
92.37800	46650.00000
92.39800	46434.00000
92.41800	46742.00000
92.43800	46313.00000
92.45800	46776.00000
92.47800	46788.00000
92.49800	46149.00000
92.51800	45399.00000
92.53800	46018.00000
92.55800	45834.00000
92.57800	45332.00000
92.59800	45989.00000
92.61800	45971.00000
92.63800	45902.00000
92.65800	45509.00000
92.67800	45412.00000
92.69800	45713.00000
92.71800	46277.00000
92.73800	45928.00000
92.75800	46187.00000
92.77800	45381.00000
92.79800	45755.00000
92.81800	46210.00000
92.83800	46813.00000
92.85800	46894.00000
92.87800	47246.00000
92.89800	46777.00000
92.91800	47176.00000
92.93800	46757.00000
92.95800	46708.00000
92.97800	48182.00000
92.99800	48854.00000
93.01800	48123.00000
93.03800	48689.00000
93.05800	47627.00000
93.07800	48311.00000
93.09800	47923.00000
93.11800	48602.00000
93.13800	48730.00000
93.15800	48080.00000
93.17800	48516.00000
93.19800	48875.00000
93.21800	48947.00000
93.23800	48853.00000
93.25800	49425.00000
93.27800	49065.00000
93.29800	49074.00000
93.31800	49061.00000
93.33800	48527.00000
93.35800	48623.00000
93.37800	49200.00000
93.39800	49181.00000
93.41800	48482.00000
93.43800	48713.00000
93.45800	48080.00000
93.47800	48596.00000
93.49800	48132.00000
93.51800	47742.00000
93.53800	47934.00000
93.55800	48065.00000
93.57800	47496.00000
93.59800	46981.00000
93.61800	47487.00000
93.63800	46952.00000
93.65800	46462.00000
93.67800	46895.00000
93.69800	47759.00000
93.71800	47251.00000
93.73800	46376.00000
93.75800	46311.00000
93.77800	46516.00000
93.79800	46689.00000
93.81800	46665.00000
93.83800	46097.00000
93.85800	45669.00000
93.87800	46079.00000
93.89800	45201.00000
93.91800	45717.00000
93.93800	45601.00000
93.95800	45596.00000
93.97800	45422.00000
93.99800	45989.00000
94.01800	45551.00000
94.03800	45626.00000
94.05800	46177.00000
94.07800	44851.00000
94.09800	44972.00000
94.11800	45085.00000
94.13800	45535.00000
94.15800	45463.00000
94.17800	45799.00000
94.19800	45218.00000
94.21800	45720.00000
94.23800	45257.00000
94.25800	44500.00000
94.27800	44678.00000
94.29800	45085.00000
94.31800	45206.00000
94.33800	44138.00000
94.35800	44290.00000
94.37800	44057.00000
94.39800	44566.00000
94.41800	44197.00000
94.43800	44408.00000
94.45800	43583.00000
94.47800	44526.00000
94.49800	43867.00000
94.51800	44233.00000
94.53800	44744.00000
94.55800	44729.00000
94.57800	44206.00000
94.59800	44308.00000
94.61800	44092.00000
94.63800	44729.00000
94.65800	43990.00000
94.67800	44184.00000
94.69800	44088.00000
94.71800	44666.00000
94.73800	43440.00000
94.75800	44247.00000
94.77800	43789.00000
94.79800	43908.00000
94.81800	44217.00000
94.83800	44478.00000
94.85800	45466.00000
94.87800	45590.00000
94.89800	45891.00000
94.91800	45339.00000
94.93800	45105.00000
94.95800	44923.00000
94.97800	45027.00000
94.99800	44886.00000
95.01800	45161.00000
95.03800	44552.00000
95.05800	44722.00000
95.07800	45097.00000
95.09800	44747.00000
95.11800	44816.00000
95.13800	44612.00000
95.15800	44525.00000
95.17800	44973.00000
95.19800	45261.00000
95.21800	44749.00000
95.23800	44644.00000
95.25800	44395.00000
95.27800	45214.00000
95.29800	44589.00000
95.31800	44242.00000
95.33800	44604.00000
95.35800	44850.00000
95.37800	44354.00000
95.39800	44162.00000
95.41800	44556.00000
95.43800	44645.00000
95.45800	44491.00000
95.47800	44469.00000
95.49800	44068.00000
95.51800	44527.00000
95.53800	43829.00000
95.55800	43646.00000
95.57800	43907.00000
95.59800	44608.00000
95.61800	44633.00000
95.63800	44453.00000
95.65800	44100.00000
95.67800	43776.00000
95.69800	44164.00000
95.71800	44688.00000
95.73800	44465.00000
95.75800	44240.00000
95.77800	43884.00000
95.79800	44748.00000
95.81800	44624.00000
95.83800	44982.00000
95.85800	45010.00000
95.87800	44374.00000
95.89800	44417.00000
95.91800	44889.00000
95.93800	44553.00000
95.95800	44775.00000
95.97800	45593.00000
95.99800	45378.00000
96.01800	46044.00000
96.03800	45538.00000
96.05800	45901.00000
96.07800	46235.00000
96.09800	46367.00000
96.11800	46128.00000
96.13800	46366.00000
96.15800	45993.00000
96.17800	45840.00000
96.19800	45661.00000
96.21800	45160.00000
96.23800	45637.00000
96.25800	45258.00000
96.27800	45034.00000
96.29800	44863.00000
96.31800	44802.00000
96.33800	45007.00000
96.35800	44603.00000
96.37800	44547.00000
96.39800	44480.00000
96.41800	44626.00000
96.43800	44428.00000
96.45800	43649.00000
96.47800	43911.00000
96.49800	44313.00000
96.51800	43944.00000
96.53800	43665.00000
96.55800	43531.00000
96.57800	43801.00000
96.59800	43558.00000
96.61800	43660.00000
96.63800	43861.00000
96.65800	43630.00000
96.67800	43987.00000
96.69800	44328.00000
96.71800	44371.00000
96.73800	43728.00000
96.75800	43716.00000
96.77800	43511.00000
96.79800	43964.00000
96.81800	43350.00000
96.83800	42818.00000
96.85800	43256.00000
96.87800	43123.00000
96.89800	43093.00000
96.91800	43459.00000
96.93800	43269.00000
96.95800	43293.00000
96.97800	43924.00000
96.99800	43636.00000
97.01800	43507.00000
97.03800	42922.00000
97.05800	42913.00000
97.07800	43149.00000
97.09800	43805.00000
97.11800	43838.00000
97.13800	44123.00000
97.15800	43338.00000
97.17800	44069.00000
97.19800	43855.00000
97.21800	43291.00000
97.23800	44893.00000
97.25800	44823.00000
97.27800	44927.00000
97.29800	44939.00000
97.31800	44173.00000
97.33800	45083.00000
97.35800	45332.00000
97.37800	45621.00000
97.39800	45815.00000
97.41800	45592.00000
97.43800	45621.00000
97.45800	45325.00000
97.47800	46405.00000
97.49800	45854.00000
97.51800	45662.00000
97.53800	46184.00000
97.55800	46122.00000
97.57800	45931.00000
97.59800	47220.00000
97.61800	46703.00000
97.63800	46354.00000
97.65800	46827.00000
97.67800	46602.00000
97.69800	46607.00000
97.71800	46958.00000
97.73800	46436.00000
97.75800	46865.00000
97.77800	47617.00000
97.79800	47889.00000
97.81800	47487.00000
97.83800	47432.00000
97.85800	47676.00000
97.87800	47796.00000
97.89800	48228.00000
97.91800	47571.00000
97.93800	47904.00000
97.95800	47288.00000
97.97800	47475.00000
97.99800	47848.00000
98.01800	48280.00000
98.03800	48229.00000
98.05800	48007.00000
98.07800	48863.00000
98.09800	48887.00000
98.11800	49181.00000
98.13800	49118.00000
98.15800	48773.00000
98.17800	49085.00000
98.19800	49322.00000
98.21800	49179.00000
98.23800	49518.00000
98.25800	49133.00000
98.27800	49927.00000
98.29800	49459.00000
98.31800	50094.00000
98.33800	50160.00000
98.35800	49505.00000
98.37800	49554.00000
98.39800	50198.00000
98.41800	50526.00000
98.43800	50065.00000
98.45800	49911.00000
98.47800	49755.00000
98.49800	49820.00000
98.51800	49568.00000
98.53800	49264.00000
98.55800	49495.00000
98.57800	49952.00000
98.59800	49482.00000
98.61800	49457.00000
98.63800	49055.00000
98.65800	48537.00000
98.67800	48795.00000
98.69800	48448.00000
98.71800	48358.00000
98.73800	48194.00000
98.75800	47630.00000
98.77800	47518.00000
98.79800	47960.00000
98.81800	48064.00000
98.83800	47638.00000
98.85800	47344.00000
98.87800	46603.00000
98.89800	46451.00000
98.91800	46147.00000
98.93800	45821.00000
98.95800	46016.00000
98.97800	46084.00000
98.99800	46091.00000
99.01800	46458.00000
99.03800	45182.00000
99.05800	44639.00000
99.07800	45211.00000
99.09800	45477.00000
99.11800	45438.00000
99.13800	46071.00000
99.15800	45346.00000
99.17800	45008.00000
99.19800	44708.00000
99.21800	45269.00000
99.23800	45497.00000
99.25800	45016.00000
99.27800	45021.00000
99.29800	45110.00000
99.31800	45388.00000
99.33800	45241.00000
99.35800	45218.00000
99.37800	44659.00000
99.39800	44938.00000
99.41800	44703.00000
99.43800	44937.00000
99.45800	44580.00000
99.47800	44089.00000
99.49800	43532.00000
99.51800	44489.00000
99.53800	44516.00000
99.55800	44525.00000
99.57800	44452.00000
99.59800	43674.00000
99.61800	44534.00000
99.63800	44187.00000
99.65800	44260.00000
99.67800	44648.00000
99.69800	44394.00000
99.71800	44529.00000
99.73800	45076.00000
99.75800	43696.00000
99.77800	43822.00000
99.79800	43828.00000
99.81800	44332.00000
99.83800	44410.00000
99.85800	45360.00000
99.87800	44678.00000
99.89800	44504.00000
99.91800	43984.00000
99.93800	43490.00000
99.95800	43548.00000
99.97800	43749.00000
99.99800	43940.00000
100.01800	43785.00000
100.03800	43315.00000
100.05800	43536.00000
100.07800	43004.00000
100.09800	42724.00000
100.11800	42849.00000
100.13800	42939.00000
100.15800	42652.00000
100.17800	42415.00000
100.19800	41623.00000
100.21800	41599.00000
100.23800	41692.00000
100.25800	41383.00000
