3.00000	412.00000
3.01000	395.00000
3.02000	414.00000
3.03000	414.00000
3.04000	439.00000
3.05000	414.00000
3.06000	411.00000
3.07000	420.00000
3.08000	414.00000
3.09000	457.00000
3.10000	449.00000
3.11000	410.00000
3.12000	417.00000
3.13000	434.00000
3.14000	429.00000
3.15000	437.00000
3.16000	410.00000
3.17000	461.00000
3.18000	396.00000
3.19000	429.00000
3.20000	390.00000
3.21000	401.00000
3.22000	438.00000
3.23000	427.00000
3.24000	412.00000
3.25000	398.00000
3.26000	410.00000
3.27000	366.00000
3.28000	395.00000
3.29000	434.00000
3.30000	433.00000
3.31000	409.00000
3.32000	442.00000
3.33000	456.00000
3.34000	424.00000
3.35000	446.00000
3.36000	443.00000
3.37000	375.00000
3.38000	408.00000
3.39000	402.00000
3.40000	439.00000
3.41000	432.00000
3.42000	453.00000
3.43000	399.00000
3.44000	441.00000
3.45000	404.00000
3.46000	421.00000
3.47000	443.00000
3.48000	421.00000
3.49000	409.00000
3.50000	423.00000
3.51000	433.00000
3.52000	451.00000
3.53000	400.00000
3.54000	411.00000
3.55000	441.00000
3.56000	421.00000
3.57000	410.00000
3.58000	419.00000
3.59000	378.00000
3.60000	420.00000
3.61000	444.00000
3.62000	439.00000
3.63000	423.00000
3.64000	416.00000
3.65000	408.00000
3.66000	411.00000
3.67000	418.00000
3.68000	398.00000
3.69000	450.00000
3.70000	429.00000
3.71000	389.00000
3.72000	434.00000
3.73000	457.00000
3.74000	472.00000
3.75000	415.00000
3.76000	422.00000
3.77000	424.00000
3.78000	442.00000
3.79000	395.00000
3.80000	386.00000
3.81000	425.00000
3.82000	430.00000
3.83000	437.00000
3.84000	430.00000
3.85000	426.00000
3.86000	400.00000
3.87000	421.00000
3.88000	476.00000
3.89000	413.00000
3.90000	458.00000
3.91000	427.00000
3.92000	459.00000
3.93000	423.00000
3.94000	457.00000
3.95000	424.00000
3.96000	407.00000
3.97000	440.00000
3.98000	443.00000
3.99000	436.00000
4.00000	446.00000
4.01000	433.00000
4.02000	434.00000
4.03000	407.00000
4.04000	417.00000
4.05000	412.00000
4.06000	445.00000
4.07000	421.00000
4.08000	457.00000
4.09000	417.00000
4.10000	455.00000
4.11000	418.00000
4.12000	439.00000
4.13000	446.00000
4.14000	422.00000
4.15000	448.00000
4.16000	443.00000
4.17000	441.00000
4.18000	465.00000
4.19000	459.00000
4.20000	439.00000
4.21000	412.00000
4.22000	453.00000
4.23000	425.00000
4.24000	420.00000
4.25000	456.00000
4.26000	429.00000
4.27000	432.00000
4.28000	438.00000
4.29000	446.00000
4.30000	414.00000
4.31000	424.00000
4.32000	420.00000
4.33000	409.00000
4.34000	423.00000
4.35000	456.00000
4.36000	438.00000
4.37000	411.00000
4.38000	419.00000
4.39000	423.00000
4.40000	436.00000
4.41000	426.00000
4.42000	453.00000
4.43000	470.00000
4.44000	455.00000
4.45000	455.00000
4.46000	455.00000
4.47000	421.00000
4.48000	450.00000
4.49000	455.00000
4.50000	431.00000
4.51000	436.00000
4.52000	404.00000
4.53000	426.00000
4.54000	418.00000
4.55000	412.00000
4.56000	449.00000
4.57000	423.00000
4.58000	452.00000
4.59000	434.00000
4.60000	436.00000
4.61000	464.00000
4.62000	439.00000
4.63000	435.00000
4.64000	452.00000
4.65000	463.00000
4.66000	484.00000
4.67000	433.00000
4.68000	415.00000
4.69000	423.00000
4.70000	432.00000
4.71000	396.00000
4.72000	443.00000
4.73000	463.00000
4.74000	446.00000
4.75000	459.00000
4.76000	433.00000
4.77000	416.00000
4.78000	424.00000
4.79000	474.00000
4.80000	476.00000
4.81000	480.00000
4.82000	454.00000
4.83000	430.00000
4.84000	423.00000
4.85000	430.00000
4.86000	461.00000
4.87000	445.00000
4.88000	465.00000
4.89000	421.00000
4.90000	402.00000
4.91000	449.00000
4.92000	447.00000
4.93000	416.00000
4.94000	434.00000
4.95000	447.00000
4.96000	476.00000
4.97000	457.00000
4.98000	440.00000
4.99000	458.00000
5.00000	441.00000
5.01000	473.00000
5.02000	425.00000
5.03000	421.00000
5.04000	449.00000
5.05000	406.00000
5.06000	480.00000
5.07000	444.00000
5.08000	473.00000
5.09000	449.00000
5.10000	480.00000
5.11000	461.00000
5.12000	440.00000
5.13000	438.00000
5.14000	404.00000
5.15000	440.00000
5.16000	453.00000
5.17000	445.00000
5.18000	460.00000
5.19000	449.00000
5.20000	449.00000
5.21000	445.00000
5.22000	459.00000
5.23000	461.00000
5.24000	428.00000
5.25000	411.00000
5.26000	474.00000
5.27000	476.00000
5.28000	488.00000
5.29000	467.00000
5.30000	418.00000
5.31000	448.00000
5.32000	401.00000
5.33000	465.00000
5.34000	444.00000
5.35000	466.00000
5.36000	439.00000
5.37000	463.00000
5.38000	475.00000
5.39000	440.00000
5.40000	448.00000
5.41000	479.00000
5.42000	473.00000
5.43000	462.00000
5.44000	466.00000
5.45000	472.00000
5.46000	437.00000
5.47000	474.00000
5.48000	457.00000
5.49000	470.00000
5.50000	457.00000
5.51000	479.00000
5.52000	487.00000
5.53000	445.00000
5.54000	455.00000
5.55000	459.00000
5.56000	462.00000
5.57000	444.00000
5.58000	500.00000
5.59000	484.00000
5.60000	461.00000
5.61000	468.00000
5.62000	484.00000
5.63000	433.00000
5.64000	455.00000
5.65000	496.00000
5.66000	443.00000
5.67000	452.00000
5.68000	482.00000
5.69000	501.00000
5.70000	472.00000
5.71000	481.00000
5.72000	469.00000
5.73000	477.00000
5.74000	466.00000
5.75000	509.00000
5.76000	481.00000
5.77000	525.00000
5.78000	508.00000
5.79000	548.00000
5.80000	500.00000
5.81000	513.00000
5.82000	515.00000
5.83000	490.00000
5.84000	547.00000
5.85000	533.00000
5.86000	545.00000
5.87000	474.00000
5.88000	510.00000
5.89000	514.00000
5.90000	485.00000
5.91000	489.00000
5.92000	473.00000
5.93000	483.00000
5.94000	446.00000
5.95000	474.00000
5.96000	462.00000
5.97000	453.00000
5.98000	484.00000
5.99000	493.00000
6.00000	455.00000
6.01000	454.00000
6.02000	456.00000
6.03000	443.00000
6.04000	483.00000
6.05000	457.00000
6.06000	519.00000
6.07000	456.00000
6.08000	464.00000
6.09000	482.00000
6.10000	431.00000
6.11000	467.00000
6.12000	457.00000
6.13000	462.00000
6.14000	482.00000
6.15000	442.00000
6.16000	464.00000
6.17000	456.00000
6.18000	491.00000
6.19000	475.00000
6.20000	458.00000
6.21000	478.00000
6.22000	512.00000
6.23000	498.00000
6.24000	487.00000
6.25000	481.00000
6.26000	457.00000
6.27000	471.00000
6.28000	446.00000
6.29000	439.00000
6.30000	454.00000
6.31000	477.00000
6.32000	479.00000
6.33000	480.00000
6.34000	495.00000
6.35000	488.00000
6.36000	487.00000
6.37000	525.00000
6.38000	481.00000
6.39000	502.00000
6.40000	464.00000
6.41000	464.00000
6.42000	474.00000
6.43000	486.00000
6.44000	504.00000
6.45000	496.00000
6.46000	490.00000
6.47000	514.00000
6.48000	502.00000
6.49000	501.00000
6.50000	515.00000
6.51000	510.00000
6.52000	488.00000
6.53000	547.00000
6.54000	515.00000
6.55000	529.00000
6.56000	567.00000
6.57000	528.00000
6.58000	538.00000
6.59000	558.00000
6.60000	598.00000
6.61000	584.00000
6.62000	564.00000
6.63000	644.00000
6.64000	662.00000
6.65000	652.00000
6.66000	671.00000
6.67000	666.00000
6.68000	665.00000
6.69000	674.00000
6.70000	700.00000
6.71000	729.00000
6.72000	734.00000
6.73000	735.00000
6.74000	809.00000
6.75000	866.00000
6.76000	874.00000
6.77000	885.00000
6.78000	969.00000
6.79000	990.00000
6.80000	991.00000
6.81000	1051.00000
6.82000	1108.00000
6.83000	1151.00000
6.84000	1255.00000
6.85000	1288.00000
6.86000	1324.00000
6.87000	1389.00000
6.88000	1458.00000
6.89000	1490.00000
6.90000	1691.00000
6.91000	1754.00000
6.92000	1909.00000
6.93000	1985.00000
6.94000	2192.00000
6.95000	2337.00000
6.96000	2548.00000
6.97000	2820.00000
6.98000	2916.00000
6.99000	3241.00000
7.00000	3569.00000
7.01000	3849.00000
7.02000	4149.00000
7.03000	4519.00000
7.04000	4672.00000
7.05000	4742.00000
7.06000	4834.00000
7.07000	4728.00000
7.08000	4305.00000
7.09000	3952.00000
7.10000	3332.00000
7.11000	2865.00000
7.12000	2470.00000
7.13000	2128.00000
7.14000	1778.00000
7.15000	1444.00000
7.16000	1236.00000
7.17000	1092.00000
7.18000	948.00000
7.19000	892.00000
7.20000	713.00000
7.21000	713.00000
7.22000	681.00000
7.23000	629.00000
7.24000	600.00000
7.25000	596.00000
7.26000	594.00000
7.27000	525.00000
7.28000	520.00000
7.29000	500.00000
7.30000	561.00000
7.31000	540.00000
7.32000	547.00000
7.33000	518.00000
7.34000	512.00000
7.35000	493.00000
7.36000	501.00000
7.37000	480.00000
7.38000	501.00000
7.39000	493.00000
7.40000	460.00000
7.41000	453.00000
7.42000	490.00000
7.43000	469.00000
7.44000	468.00000
7.45000	476.00000
7.46000	484.00000
7.47000	437.00000
7.48000	493.00000
7.49000	497.00000
7.50000	464.00000
7.51000	490.00000
7.52000	453.00000
7.53000	457.00000
7.54000	482.00000
7.55000	464.00000
7.56000	446.00000
7.57000	464.00000
7.58000	501.00000
7.59000	471.00000
7.60000	448.00000
7.61000	503.00000
7.62000	470.00000
7.63000	472.00000
7.64000	477.00000
7.65000	451.00000
7.66000	450.00000
7.67000	466.00000
7.68000	460.00000
7.69000	469.00000
7.70000	460.00000
7.71000	471.00000
7.72000	456.00000
7.73000	434.00000
7.74000	456.00000
7.75000	473.00000
7.76000	462.00000
7.77000	464.00000
7.78000	494.00000
7.79000	442.00000
7.80000	452.00000
7.81000	453.00000
7.82000	483.00000
7.83000	439.00000
7.84000	480.00000
7.85000	454.00000
7.86000	420.00000
7.87000	443.00000
7.88000	472.00000
7.89000	483.00000
7.90000	476.00000
7.91000	503.00000
7.92000	494.00000
7.93000	399.00000
7.94000	447.00000
7.95000	474.00000
7.96000	460.00000
7.97000	454.00000
7.98000	443.00000
7.99000	491.00000
8.00000	442.00000
8.01000	459.00000
8.02000	461.00000
8.03000	459.00000
8.04000	439.00000
8.05000	448.00000
8.06000	490.00000
8.07000	470.00000
8.08000	470.00000
8.09000	446.00000
8.10000	437.00000
8.11000	477.00000
8.12000	469.00000
8.13000	449.00000
8.14000	468.00000
8.15000	471.00000
8.16000	456.00000
8.17000	423.00000
8.18000	483.00000
8.19000	430.00000
8.20000	438.00000
8.21000	397.00000
8.22000	460.00000
8.23000	432.00000
8.24000	485.00000
8.25000	427.00000
8.26000	462.00000
8.27000	446.00000
8.28000	449.00000
8.29000	491.00000
8.30000	471.00000
8.31000	466.00000
8.32000	482.00000
8.33000	463.00000
8.34000	427.00000
8.35000	431.00000
8.36000	458.00000
8.37000	469.00000
8.38000	463.00000
8.39000	433.00000
8.40000	444.00000
8.41000	480.00000
8.42000	450.00000
8.43000	440.00000
8.44000	483.00000
8.45000	456.00000
8.46000	479.00000
8.47000	487.00000
8.48000	436.00000
8.49000	414.00000
8.50000	490.00000
8.51000	488.00000
8.52000	462.00000
8.53000	460.00000
8.54000	438.00000
8.55000	459.00000
8.56000	502.00000
8.57000	443.00000
8.58000	453.00000
8.59000	460.00000
8.60000	412.00000
8.61000	445.00000
8.62000	434.00000
8.63000	453.00000
8.64000	489.00000
8.65000	438.00000
8.66000	446.00000
8.67000	446.00000
8.68000	463.00000
8.69000	507.00000
8.70000	445.00000
8.71000	470.00000
8.72000	451.00000
8.73000	457.00000
8.74000	424.00000
8.75000	451.00000
8.76000	475.00000
8.77000	498.00000
8.78000	421.00000
8.79000	457.00000
8.80000	429.00000
8.81000	450.00000
8.82000	450.00000
8.83000	462.00000
8.84000	488.00000
8.85000	449.00000
8.86000	451.00000
8.87000	467.00000
8.88000	444.00000
8.89000	470.00000
8.90000	458.00000
8.91000	456.00000
8.92000	432.00000
8.93000	493.00000
8.94000	506.00000
8.95000	459.00000
8.96000	456.00000
8.97000	456.00000
8.98000	455.00000
8.99000	442.00000
9.00000	456.00000
9.01000	483.00000
9.02000	456.00000
9.03000	452.00000
9.04000	499.00000
9.05000	490.00000
9.06000	418.00000
9.07000	455.00000
9.08000	492.00000
9.09000	462.00000
9.10000	459.00000
9.11000	489.00000
9.12000	448.00000
9.13000	484.00000
9.14000	458.00000
9.15000	464.00000
9.16000	473.00000
9.17000	468.00000
9.18000	487.00000
9.19000	475.00000
9.20000	452.00000
9.21000	502.00000
9.22000	486.00000
9.23000	498.00000
9.24000	489.00000
9.25000	487.00000
9.26000	512.00000
9.27000	513.00000
9.28000	518.00000
9.29000	505.00000
9.30000	493.00000
9.31000	486.00000
9.32000	492.00000
9.33000	487.00000
9.34000	428.00000
9.35000	455.00000
9.36000	460.00000
9.37000	472.00000
9.38000	451.00000
9.39000	468.00000
9.40000	453.00000
9.41000	526.00000
9.42000	463.00000
9.43000	420.00000
9.44000	472.00000
9.45000	442.00000
9.46000	447.00000
9.47000	459.00000
9.48000	442.00000
9.49000	454.00000
9.50000	449.00000
9.51000	474.00000
9.52000	418.00000
9.53000	434.00000
9.54000	437.00000
9.55000	417.00000
9.56000	453.00000
9.57000	495.00000
9.58000	451.00000
9.59000	453.00000
9.60000	442.00000
9.61000	443.00000
9.62000	442.00000
9.63000	502.00000
9.64000	479.00000
9.65000	468.00000
9.66000	473.00000
9.67000	479.00000
9.68000	447.00000
9.69000	406.00000
9.70000	461.00000
9.71000	454.00000
9.72000	476.00000
9.73000	470.00000
9.74000	467.00000
9.75000	453.00000
9.76000	449.00000
9.77000	473.00000
9.78000	462.00000
9.79000	474.00000
9.80000	418.00000
9.81000	431.00000
9.82000	457.00000
9.83000	447.00000
9.84000	472.00000
9.85000	459.00000
9.86000	447.00000
9.87000	447.00000
9.88000	444.00000
9.89000	497.00000
9.90000	458.00000
9.91000	449.00000
9.92000	470.00000
9.93000	429.00000
9.94000	469.00000
9.95000	457.00000
9.96000	444.00000
9.97000	495.00000
9.98000	466.00000
9.99000	452.00000
10.00000	444.00000
10.01000	458.00000
10.02000	439.00000
10.03000	426.00000
10.04000	470.00000
10.05000	423.00000
10.06000	446.00000
10.07000	427.00000
10.08000	476.00000
10.09000	444.00000
10.10000	454.00000
10.11000	488.00000
10.12000	483.00000
10.13000	474.00000
10.14000	475.00000
10.15000	472.00000
10.16000	452.00000
10.17000	442.00000
10.18000	475.00000
10.19000	447.00000
10.20000	453.00000
10.21000	435.00000
10.22000	453.00000
10.23000	485.00000
10.24000	474.00000
10.25000	490.00000
10.26000	495.00000
10.27000	438.00000
10.28000	453.00000
10.29000	472.00000
10.30000	447.00000
10.31000	452.00000
10.32000	461.00000
10.33000	454.00000
10.34000	462.00000
10.35000	428.00000
10.36000	459.00000
10.37000	445.00000
10.38000	454.00000
10.39000	449.00000
10.40000	439.00000
10.41000	454.00000
10.42000	424.00000
10.43000	441.00000
10.44000	473.00000
10.45000	470.00000
10.46000	453.00000
10.47000	435.00000
10.48000	459.00000
10.49000	464.00000
10.50000	451.00000
10.51000	441.00000
10.52000	447.00000
10.53000	440.00000
10.54000	458.00000
10.55000	404.00000
10.56000	488.00000
10.57000	448.00000
10.58000	472.00000
10.59000	492.00000
10.60000	467.00000
10.61000	484.00000
10.62000	455.00000
10.63000	432.00000
10.64000	470.00000
10.65000	451.00000
10.66000	471.00000
10.67000	465.00000
10.68000	417.00000
10.69000	443.00000
10.70000	468.00000
10.71000	482.00000
10.72000	448.00000
10.73000	465.00000
10.74000	473.00000
10.75000	436.00000
10.76000	438.00000
10.77000	449.00000
10.78000	453.00000
10.79000	460.00000
10.80000	442.00000
10.81000	483.00000
10.82000	433.00000
10.83000	435.00000
10.84000	476.00000
10.85000	410.00000
10.86000	505.00000
10.87000	444.00000
10.88000	471.00000
10.89000	457.00000
10.90000	492.00000
10.91000	456.00000
10.92000	462.00000
10.93000	469.00000
10.94000	504.00000
10.95000	443.00000
10.96000	452.00000
10.97000	451.00000
10.98000	460.00000
10.99000	453.00000
11.00000	448.00000
11.01000	448.00000
11.02000	457.00000
11.03000	468.00000
11.04000	450.00000
11.05000	480.00000
11.06000	435.00000
11.07000	449.00000
11.08000	457.00000
11.09000	405.00000
11.10000	463.00000
11.11000	484.00000
11.12000	480.00000
11.13000	477.00000
11.14000	443.00000
11.15000	432.00000
11.16000	472.00000
11.17000	436.00000
11.18000	445.00000
11.19000	456.00000
11.20000	468.00000
11.21000	462.00000
11.22000	440.00000
11.23000	447.00000
11.24000	453.00000
11.25000	457.00000
11.26000	467.00000
11.27000	459.00000
11.28000	462.00000
11.29000	424.00000
11.30000	449.00000
11.31000	482.00000
11.32000	463.00000
11.33000	437.00000
11.34000	477.00000
11.35000	465.00000
11.36000	460.00000
11.37000	449.00000
11.38000	429.00000
11.39000	424.00000
11.40000	449.00000
11.41000	451.00000
11.42000	432.00000
11.43000	469.00000
11.44000	478.00000
11.45000	460.00000
11.46000	454.00000
11.47000	434.00000
11.48000	463.00000
11.49000	453.00000
11.50000	431.00000
11.51000	474.00000
11.52000	457.00000
11.53000	407.00000
11.54000	469.00000
11.55000	439.00000
11.56000	447.00000
11.57000	478.00000
11.58000	470.00000
11.59000	471.00000
11.60000	456.00000
11.61000	444.00000
11.62000	423.00000
11.63000	472.00000
11.64000	493.00000
11.65000	454.00000
11.66000	486.00000
11.67000	481.00000
11.68000	485.00000
11.69000	452.00000
11.70000	497.00000
11.71000	461.00000
11.72000	480.00000
11.73000	503.00000
11.74000	466.00000
11.75000	455.00000
11.76000	451.00000
11.77000	471.00000
11.78000	450.00000
11.79000	451.00000
11.80000	465.00000
11.81000	467.00000
11.82000	460.00000
11.83000	509.00000
11.84000	483.00000
11.85000	494.00000
11.86000	509.00000
11.87000	492.00000
11.88000	446.00000
11.89000	453.00000
11.90000	447.00000
11.91000	463.00000
11.92000	459.00000
11.93000	474.00000
11.94000	488.00000
11.95000	483.00000
11.96000	463.00000
11.97000	439.00000
11.98000	478.00000
11.99000	501.00000
12.00000	533.00000
12.01000	490.00000
12.02000	474.00000
12.03000	522.00000
12.04000	532.00000
12.05000	521.00000
12.06000	518.00000
12.07000	533.00000
12.08000	603.00000
12.09000	572.00000
12.10000	544.00000
12.11000	601.00000
12.12000	636.00000
12.13000	595.00000
12.14000	631.00000
12.15000	636.00000
12.16000	728.00000
12.17000	694.00000
12.18000	741.00000
12.19000	827.00000
12.20000	807.00000
12.21000	855.00000
12.22000	860.00000
12.23000	929.00000
12.24000	916.00000
12.25000	966.00000
12.26000	954.00000
12.27000	1000.00000
12.28000	952.00000
12.29000	946.00000
12.30000	886.00000
12.31000	826.00000
12.32000	779.00000
12.33000	733.00000
12.34000	633.00000
12.35000	641.00000
12.36000	627.00000
12.37000	598.00000
12.38000	583.00000
12.39000	568.00000
12.40000	559.00000
12.41000	535.00000
12.42000	524.00000
12.43000	482.00000
12.44000	502.00000
12.45000	473.00000
12.46000	491.00000
12.47000	452.00000
12.48000	485.00000
12.49000	438.00000
12.50000	469.00000
12.51000	464.00000
12.52000	455.00000
12.53000	478.00000
12.54000	451.00000
12.55000	484.00000
12.56000	472.00000
12.57000	451.00000
12.58000	467.00000
12.59000	449.00000
12.60000	465.00000
12.61000	467.00000
12.62000	476.00000
12.63000	461.00000
12.64000	502.00000
12.65000	468.00000
12.66000	476.00000
12.67000	437.00000
12.68000	477.00000
12.69000	487.00000
12.70000	484.00000
12.71000	491.00000
12.72000	461.00000
12.73000	441.00000
12.74000	447.00000
12.75000	465.00000
12.76000	466.00000
12.77000	471.00000
12.78000	458.00000
12.79000	446.00000
12.80000	457.00000
12.81000	472.00000
12.82000	458.00000
12.83000	437.00000
12.84000	442.00000
12.85000	447.00000
12.86000	444.00000
12.87000	436.00000
12.88000	444.00000
12.89000	434.00000
12.90000	412.00000
12.91000	454.00000
12.92000	488.00000
12.93000	443.00000
12.94000	442.00000
12.95000	494.00000
12.96000	485.00000
12.97000	495.00000
12.98000	458.00000
12.99000	478.00000
13.00000	446.00000
13.01000	448.00000
13.02000	493.00000
13.03000	450.00000
13.04000	442.00000
13.05000	452.00000
13.06000	449.00000
13.07000	458.00000
13.08000	479.00000
13.09000	465.00000
13.10000	432.00000
13.11000	479.00000
13.12000	443.00000
13.13000	476.00000
13.14000	438.00000
13.15000	448.00000
13.16000	455.00000
13.17000	432.00000
13.18000	458.00000
13.19000	521.00000
13.20000	499.00000
13.21000	491.00000
13.22000	457.00000
13.23000	446.00000
13.24000	471.00000
13.25000	450.00000
13.26000	423.00000
13.27000	444.00000
13.28000	463.00000
13.29000	441.00000
13.30000	455.00000
13.31000	462.00000
13.32000	463.00000
13.33000	468.00000
13.34000	446.00000
13.35000	439.00000
13.36000	469.00000
13.37000	435.00000
13.38000	466.00000
13.39000	453.00000
13.40000	465.00000
13.41000	443.00000
13.42000	462.00000
13.43000	443.00000
13.44000	455.00000
13.45000	467.00000
13.46000	447.00000
13.47000	464.00000
13.48000	467.00000
13.49000	497.00000
13.50000	449.00000
13.51000	475.00000
13.52000	467.00000
13.53000	458.00000
13.54000	464.00000
13.55000	449.00000
13.56000	447.00000
13.57000	475.00000
13.58000	465.00000
13.59000	441.00000
13.60000	478.00000
13.61000	494.00000
13.62000	472.00000
13.63000	475.00000
13.64000	501.00000
13.65000	448.00000
13.66000	467.00000
13.67000	454.00000
13.68000	464.00000
13.69000	439.00000
13.70000	447.00000
13.71000	480.00000
13.72000	455.00000
13.73000	449.00000
13.74000	453.00000
13.75000	477.00000
13.76000	457.00000
13.77000	476.00000
13.78000	461.00000
13.79000	442.00000
13.80000	450.00000
13.81000	446.00000
13.82000	452.00000
13.83000	489.00000
13.84000	461.00000
13.85000	417.00000
13.86000	435.00000
13.87000	448.00000
13.88000	437.00000
13.89000	449.00000
13.90000	464.00000
13.91000	453.00000
13.92000	463.00000
13.93000	442.00000
13.94000	497.00000
13.95000	462.00000
13.96000	473.00000
13.97000	435.00000
13.98000	432.00000
13.99000	486.00000
14.00000	465.00000
14.01000	438.00000
14.02000	452.00000
14.03000	457.00000
14.04000	460.00000
14.05000	414.00000
14.06000	446.00000
14.07000	473.00000
14.08000	484.00000
14.09000	442.00000
14.10000	454.00000
14.11000	474.00000
14.12000	524.00000
14.13000	477.00000
14.14000	479.00000
14.15000	451.00000
14.16000	464.00000
14.17000	469.00000
14.18000	445.00000
14.19000	451.00000
14.20000	452.00000
14.21000	433.00000
14.22000	474.00000
14.23000	450.00000
14.24000	470.00000
14.25000	400.00000
14.26000	474.00000
14.27000	436.00000
14.28000	459.00000
14.29000	457.00000
14.30000	463.00000
14.31000	430.00000
14.32000	481.00000
14.33000	450.00000
14.34000	494.00000
14.35000	486.00000
14.36000	488.00000
14.37000	506.00000
14.38000	467.00000
14.39000	445.00000
14.40000	484.00000
14.41000	463.00000
14.42000	461.00000
14.43000	460.00000
14.44000	476.00000
14.45000	475.00000
14.46000	462.00000
14.47000	482.00000
14.48000	518.00000
14.49000	467.00000
14.50000	449.00000
14.51000	442.00000
14.52000	477.00000
14.53000	483.00000
14.54000	442.00000
14.55000	452.00000
14.56000	448.00000
14.57000	442.00000
14.58000	443.00000
14.59000	431.00000
14.60000	510.00000
14.61000	458.00000
14.62000	434.00000
14.63000	484.00000
14.64000	493.00000
14.65000	476.00000
14.66000	443.00000
14.67000	480.00000
14.68000	501.00000
14.69000	513.00000
14.70000	495.00000
14.71000	469.00000
14.72000	494.00000
14.73000	464.00000
14.74000	495.00000
14.75000	481.00000
14.76000	478.00000
14.77000	428.00000
14.78000	467.00000
14.79000	466.00000
14.80000	463.00000
14.81000	455.00000
14.82000	483.00000
14.83000	497.00000
14.84000	484.00000
14.85000	451.00000
14.86000	466.00000
14.87000	465.00000
14.88000	480.00000
14.89000	485.00000
14.90000	479.00000
14.91000	460.00000
14.92000	472.00000
14.93000	481.00000
14.94000	491.00000
14.95000	485.00000
14.96000	496.00000
14.97000	524.00000
14.98000	417.00000
14.99000	462.00000
15.00000	433.00000
15.01000	478.00000
15.02000	458.00000
15.03000	474.00000
15.04000	493.00000
15.05000	467.00000
15.06000	503.00000
15.07000	529.00000
15.08000	473.00000
15.09000	522.00000
15.10000	483.00000
15.11000	537.00000
15.12000	515.00000
15.13000	538.00000
15.14000	487.00000
15.15000	531.00000
15.16000	577.00000
15.17000	575.00000
15.18000	572.00000
15.19000	605.00000
15.20000	618.00000
15.21000	638.00000
15.22000	614.00000
15.23000	702.00000
15.24000	680.00000
15.25000	733.00000
15.26000	775.00000
15.27000	784.00000
15.28000	761.00000
15.29000	766.00000
15.30000	727.00000
15.31000	770.00000
15.32000	699.00000
15.33000	683.00000
15.34000	646.00000
15.35000	642.00000
15.36000	600.00000
15.37000	558.00000
15.38000	529.00000
15.39000	527.00000
15.40000	515.00000
15.41000	507.00000
15.42000	491.00000
15.43000	477.00000
15.44000	479.00000
15.45000	491.00000
15.46000	479.00000
15.47000	462.00000
15.48000	479.00000
15.49000	487.00000
15.50000	472.00000
15.51000	504.00000
15.52000	495.00000
15.53000	520.00000
15.54000	484.00000
15.55000	482.00000
15.56000	493.00000
15.57000	487.00000
15.58000	467.00000
15.59000	484.00000
15.60000	450.00000
15.61000	496.00000
15.62000	474.00000
15.63000	467.00000
15.64000	470.00000
15.65000	433.00000
15.66000	483.00000
15.67000	504.00000
15.68000	457.00000
15.69000	471.00000
15.70000	481.00000
15.71000	494.00000
15.72000	465.00000
15.73000	450.00000
15.74000	468.00000
15.75000	455.00000
15.76000	511.00000
15.77000	498.00000
15.78000	497.00000
15.79000	482.00000
15.80000	455.00000
15.81000	481.00000
15.82000	501.00000
15.83000	496.00000
15.84000	488.00000
15.85000	502.00000
15.86000	519.00000
15.87000	513.00000
15.88000	491.00000
15.89000	507.00000
15.90000	469.00000
15.91000	503.00000
15.92000	499.00000
15.93000	467.00000
15.94000	473.00000
15.95000	508.00000
15.96000	518.00000
15.97000	460.00000
15.98000	508.00000
15.99000	449.00000
16.00000	461.00000
16.01000	495.00000
16.02000	465.00000
16.03000	486.00000
16.04000	460.00000
16.05000	463.00000
16.06000	502.00000
16.07000	497.00000
16.08000	467.00000
16.09000	457.00000
16.10000	439.00000
16.11000	497.00000
16.12000	502.00000
16.13000	509.00000
16.14000	551.00000
16.15000	492.00000
16.16000	485.00000
16.17000	505.00000
16.18000	499.00000
16.19000	450.00000
16.20000	476.00000
16.21000	443.00000
16.22000	502.00000
16.23000	492.00000
16.24000	503.00000
16.25000	520.00000
16.26000	468.00000
16.27000	493.00000
16.28000	455.00000
16.29000	483.00000
16.30000	497.00000
16.31000	490.00000
16.32000	494.00000
16.33000	454.00000
16.34000	504.00000
16.35000	489.00000
16.36000	492.00000
16.37000	488.00000
16.38000	503.00000
16.39000	477.00000
16.40000	476.00000
16.41000	457.00000
16.42000	439.00000
16.43000	492.00000
16.44000	505.00000
16.45000	491.00000
16.46000	511.00000
16.47000	437.00000
16.48000	483.00000
16.49000	488.00000
16.50000	538.00000
16.51000	484.00000
16.52000	474.00000
16.53000	489.00000
16.54000	509.00000
16.55000	491.00000
16.56000	473.00000
16.57000	496.00000
16.58000	474.00000
16.59000	487.00000
16.60000	474.00000
16.61000	490.00000
16.62000	522.00000
16.63000	482.00000
16.64000	495.00000
16.65000	487.00000
16.66000	477.00000
16.67000	515.00000
16.68000	495.00000
16.69000	455.00000
16.70000	467.00000
16.71000	499.00000
16.72000	490.00000
16.73000	496.00000
16.74000	468.00000
16.75000	500.00000
16.76000	524.00000
16.77000	508.00000
16.78000	467.00000
16.79000	499.00000
16.80000	517.00000
16.81000	485.00000
16.82000	501.00000
16.83000	482.00000
16.84000	502.00000
16.85000	463.00000
16.86000	534.00000
16.87000	525.00000
16.88000	462.00000
16.89000	473.00000
16.90000	462.00000
16.91000	499.00000
16.92000	471.00000
16.93000	501.00000
16.94000	493.00000
16.95000	467.00000
16.96000	508.00000
16.97000	497.00000
16.98000	456.00000
16.99000	480.00000
17.00000	510.00000
17.01000	497.00000
17.02000	511.00000
17.03000	462.00000
17.04000	481.00000
17.05000	491.00000
17.06000	495.00000
17.07000	515.00000
17.08000	499.00000
17.09000	501.00000
17.10000	501.00000
17.11000	486.00000
17.12000	489.00000
17.13000	454.00000
17.14000	531.00000
17.15000	473.00000
17.16000	494.00000
17.17000	496.00000
17.18000	488.00000
17.19000	523.00000
17.20000	536.00000
17.21000	523.00000
17.22000	508.00000
17.23000	472.00000
17.24000	494.00000
17.25000	492.00000
17.26000	510.00000
17.27000	563.00000
17.28000	510.00000
17.29000	511.00000
17.30000	483.00000
17.31000	489.00000
17.32000	532.00000
17.33000	544.00000
17.34000	516.00000
17.35000	478.00000
17.36000	463.00000
17.37000	455.00000
17.38000	522.00000
17.39000	480.00000
17.40000	518.00000
17.41000	481.00000
17.42000	508.00000
17.43000	513.00000
17.44000	518.00000
17.45000	511.00000
17.46000	507.00000
17.47000	535.00000
17.48000	504.00000
17.49000	523.00000
17.50000	487.00000
17.51000	535.00000
17.52000	540.00000
17.53000	490.00000
17.54000	506.00000
17.55000	478.00000
17.56000	500.00000
17.57000	498.00000
17.58000	523.00000
17.59000	508.00000
17.60000	484.00000
17.61000	478.00000
17.62000	500.00000
17.63000	521.00000
17.64000	526.00000
17.65000	508.00000
17.66000	521.00000
17.67000	523.00000
17.68000	470.00000
17.69000	514.00000
17.70000	498.00000
17.71000	499.00000
17.72000	514.00000
17.73000	529.00000
17.74000	495.00000
17.75000	477.00000
17.76000	516.00000
17.77000	523.00000
17.78000	474.00000
17.79000	484.00000
17.80000	511.00000
17.81000	518.00000
17.82000	488.00000
17.83000	510.00000
17.84000	497.00000
17.85000	528.00000
17.86000	543.00000
17.87000	489.00000
17.88000	497.00000
17.89000	494.00000
17.90000	540.00000
17.91000	543.00000
17.92000	518.00000
17.93000	511.00000
17.94000	508.00000
17.95000	532.00000
17.96000	528.00000
17.97000	530.00000
17.98000	540.00000
17.99000	519.00000
18.00000	513.00000
18.01000	543.00000
18.02000	530.00000
18.03000	531.00000
18.04000	565.00000
18.05000	556.00000
18.06000	517.00000
18.07000	524.00000
18.08000	547.00000
18.09000	569.00000
18.10000	554.00000
18.11000	551.00000
18.12000	573.00000
18.13000	579.00000
18.14000	616.00000
18.15000	562.00000
18.16000	618.00000
18.17000	610.00000
18.18000	686.00000
18.19000	666.00000
18.20000	681.00000
18.21000	728.00000
18.22000	767.00000
18.23000	827.00000
18.24000	839.00000
18.25000	923.00000
18.26000	980.00000
18.27000	1031.00000
18.28000	1059.00000
18.29000	1146.00000
18.30000	1141.00000
18.31000	1144.00000
18.32000	1180.00000
18.33000	1076.00000
18.34000	1077.00000
18.35000	1009.00000
18.36000	896.00000
18.37000	887.00000
18.38000	766.00000
18.39000	740.00000
18.40000	670.00000
18.41000	688.00000
18.42000	646.00000
18.43000	626.00000
18.44000	621.00000
18.45000	587.00000
18.46000	559.00000
18.47000	552.00000
18.48000	539.00000
18.49000	545.00000
18.50000	522.00000
18.51000	527.00000
18.52000	554.00000
18.53000	536.00000
18.54000	560.00000
18.55000	553.00000
18.56000	537.00000
18.57000	511.00000
18.58000	582.00000
18.59000	569.00000
18.60000	557.00000
18.61000	553.00000
18.62000	538.00000
18.63000	556.00000
18.64000	582.00000
18.65000	565.00000
18.66000	586.00000
18.67000	581.00000
18.68000	549.00000
18.69000	572.00000
18.70000	571.00000
18.71000	575.00000
18.72000	593.00000
18.73000	567.00000
18.74000	623.00000
18.75000	609.00000
18.76000	606.00000
18.77000	626.00000
18.78000	630.00000
18.79000	609.00000
18.80000	556.00000
18.81000	584.00000
18.82000	611.00000
18.83000	631.00000
18.84000	597.00000
18.85000	580.00000
18.86000	603.00000
18.87000	600.00000
18.88000	593.00000
18.89000	564.00000
18.90000	585.00000
18.91000	550.00000
18.92000	583.00000
18.93000	546.00000
18.94000	539.00000
18.95000	561.00000
18.96000	551.00000
18.97000	592.00000
18.98000	565.00000
18.99000	493.00000
19.00000	526.00000
19.01000	565.00000
19.02000	543.00000
19.03000	544.00000
19.04000	563.00000
19.05000	490.00000
19.06000	566.00000
19.07000	533.00000
19.08000	573.00000
19.09000	540.00000
19.10000	535.00000
19.11000	529.00000
19.12000	552.00000
19.13000	566.00000
19.14000	552.00000
19.15000	555.00000
19.16000	533.00000
19.17000	506.00000
19.18000	566.00000
19.19000	557.00000
19.20000	545.00000
19.21000	533.00000
19.22000	561.00000
19.23000	529.00000
19.24000	558.00000
19.25000	559.00000
19.26000	513.00000
19.27000	541.00000
19.28000	549.00000
19.29000	558.00000
19.30000	527.00000
19.31000	525.00000
19.32000	533.00000
19.33000	539.00000
19.34000	562.00000
19.35000	524.00000
19.36000	540.00000
19.37000	581.00000
19.38000	591.00000
19.39000	563.00000
19.40000	530.00000
19.41000	553.00000
19.42000	567.00000
19.43000	567.00000
19.44000	581.00000
19.45000	551.00000
19.46000	559.00000
19.47000	573.00000
19.48000	576.00000
19.49000	594.00000
19.50000	567.00000
19.51000	576.00000
19.52000	574.00000
19.53000	532.00000
19.54000	559.00000
19.55000	563.00000
19.56000	574.00000
19.57000	544.00000
19.58000	555.00000
19.59000	559.00000
19.60000	539.00000
19.61000	537.00000
19.62000	551.00000
19.63000	542.00000
19.64000	561.00000
19.65000	546.00000
19.66000	620.00000
19.67000	563.00000
19.68000	553.00000
19.69000	560.00000
19.70000	553.00000
19.71000	573.00000
19.72000	567.00000
19.73000	581.00000
19.74000	580.00000
19.75000	555.00000
19.76000	559.00000
19.77000	537.00000
19.78000	564.00000
19.79000	561.00000
19.80000	548.00000
19.81000	565.00000
19.82000	562.00000
19.83000	583.00000
19.84000	551.00000
19.85000	568.00000
19.86000	544.00000
19.87000	547.00000
19.88000	560.00000
19.89000	568.00000
19.90000	567.00000
19.91000	568.00000
19.92000	556.00000
19.93000	555.00000
19.94000	624.00000
19.95000	582.00000
19.96000	585.00000
19.97000	597.00000
19.98000	608.00000
19.99000	633.00000
20.00000	611.00000
20.01000	643.00000
20.02000	630.00000
20.03000	669.00000
20.04000	651.00000
20.05000	606.00000
20.06000	590.00000
20.07000	617.00000
20.08000	604.00000
20.09000	583.00000
20.10000	560.00000
20.11000	616.00000
20.12000	617.00000
20.13000	539.00000
20.14000	617.00000
20.15000	607.00000
20.16000	593.00000
20.17000	584.00000
20.18000	589.00000
20.19000	578.00000
20.20000	542.00000
20.21000	599.00000
20.22000	575.00000
20.23000	594.00000
20.24000	627.00000
20.25000	573.00000
20.26000	581.00000
20.27000	577.00000
20.28000	572.00000
20.29000	571.00000
20.30000	606.00000
20.31000	539.00000
20.32000	548.00000
20.33000	594.00000
20.34000	629.00000
20.35000	588.00000
20.36000	567.00000
20.37000	623.00000
20.38000	604.00000
20.39000	552.00000
20.40000	619.00000
20.41000	610.00000
20.42000	602.00000
20.43000	597.00000
20.44000	577.00000
20.45000	551.00000
20.46000	618.00000
20.47000	628.00000
20.48000	594.00000
20.49000	602.00000
20.50000	550.00000
20.51000	604.00000
20.52000	586.00000
20.53000	592.00000
20.54000	602.00000
20.55000	595.00000
20.56000	614.00000
20.57000	649.00000
20.58000	627.00000
20.59000	611.00000
20.60000	614.00000
20.61000	575.00000
20.62000	589.00000
20.63000	676.00000
20.64000	636.00000
20.65000	629.00000
20.66000	610.00000
20.67000	608.00000
20.68000	640.00000
20.69000	693.00000
20.70000	673.00000
20.71000	674.00000
20.72000	671.00000
20.73000	746.00000
20.74000	717.00000
20.75000	766.00000
20.76000	793.00000
20.77000	805.00000
20.78000	820.00000
20.79000	836.00000
20.80000	919.00000
20.81000	1018.00000
20.82000	1064.00000
20.83000	1082.00000
20.84000	1196.00000
20.85000	1303.00000
20.86000	1363.00000
20.87000	1476.00000
20.88000	1566.00000
20.89000	1634.00000
20.90000	1639.00000
20.91000	1699.00000
20.92000	1680.00000
20.93000	1742.00000
20.94000	1643.00000
20.95000	1540.00000
20.96000	1504.00000
20.97000	1393.00000
20.98000	1342.00000
20.99000	1268.00000
21.00000	1104.00000
21.01000	1073.00000
21.02000	978.00000
21.03000	929.00000
21.04000	899.00000
21.05000	824.00000
21.06000	876.00000
21.07000	780.00000
21.08000	748.00000
21.09000	702.00000
21.10000	715.00000
21.11000	741.00000
21.12000	716.00000
21.13000	748.00000
21.14000	736.00000
21.15000	727.00000
21.16000	711.00000
21.17000	764.00000
21.18000	761.00000
21.19000	764.00000
21.20000	768.00000
21.21000	754.00000
21.22000	813.00000
21.23000	887.00000
21.24000	834.00000
21.25000	888.00000
21.26000	922.00000
21.27000	977.00000
21.28000	1005.00000
21.29000	983.00000
21.30000	1006.00000
21.31000	1104.00000
21.32000	1060.00000
21.33000	1162.00000
21.34000	1067.00000
21.35000	1120.00000
21.36000	1139.00000
21.37000	1082.00000
21.38000	1026.00000
21.39000	1060.00000
21.40000	950.00000
21.41000	986.00000
21.42000	948.00000
21.43000	919.00000
21.44000	857.00000
21.45000	844.00000
21.46000	853.00000
21.47000	785.00000
21.48000	753.00000
21.49000	769.00000
21.50000	721.00000
21.51000	802.00000
21.52000	728.00000
21.53000	693.00000
21.54000	735.00000
21.55000	697.00000
21.56000	695.00000
21.57000	692.00000
21.58000	708.00000
21.59000	678.00000
21.60000	690.00000
21.61000	670.00000
21.62000	624.00000
21.63000	687.00000
21.64000	651.00000
21.65000	732.00000
21.66000	679.00000
21.67000	646.00000
21.68000	634.00000
21.69000	655.00000
21.70000	628.00000
21.71000	691.00000
21.72000	608.00000
21.73000	599.00000
21.74000	670.00000
21.75000	673.00000
21.76000	641.00000
21.77000	661.00000
21.78000	657.00000
21.79000	666.00000
21.80000	661.00000
21.81000	628.00000
21.82000	631.00000
21.83000	651.00000
21.84000	691.00000
21.85000	734.00000
21.86000	715.00000
21.87000	752.00000
21.88000	756.00000
21.89000	729.00000
21.90000	791.00000
21.91000	812.00000
21.92000	775.00000
21.93000	811.00000
21.94000	835.00000
21.95000	833.00000
21.96000	927.00000
21.97000	894.00000
21.98000	938.00000
21.99000	918.00000
22.00000	898.00000
22.01000	977.00000
22.02000	929.00000
22.03000	985.00000
22.04000	1008.00000
22.05000	975.00000
22.06000	962.00000
22.07000	1004.00000
22.08000	938.00000
22.09000	928.00000
22.10000	950.00000
22.11000	854.00000
22.12000	858.00000
22.13000	851.00000
22.14000	797.00000
22.15000	747.00000
22.16000	747.00000
22.17000	706.00000
22.18000	730.00000
22.19000	714.00000
22.20000	718.00000
22.21000	696.00000
22.22000	664.00000
22.23000	680.00000
22.24000	641.00000
22.25000	631.00000
22.26000	645.00000
22.27000	592.00000
22.28000	652.00000
22.29000	618.00000
22.30000	619.00000
22.31000	599.00000
22.32000	609.00000
22.33000	611.00000
22.34000	625.00000
22.35000	627.00000
22.36000	617.00000
22.37000	623.00000
22.38000	614.00000
22.39000	642.00000
22.40000	628.00000
22.41000	633.00000
22.42000	633.00000
22.43000	617.00000
22.44000	588.00000
22.45000	646.00000
22.46000	640.00000
22.47000	620.00000
22.48000	634.00000
22.49000	602.00000
22.50000	634.00000
22.51000	581.00000
22.52000	616.00000
22.53000	612.00000
22.54000	628.00000
22.55000	635.00000
22.56000	645.00000
22.57000	646.00000
22.58000	657.00000
22.59000	615.00000
22.60000	635.00000
22.61000	657.00000
22.62000	651.00000
22.63000	654.00000
22.64000	601.00000
22.65000	641.00000
22.66000	623.00000
22.67000	607.00000
22.68000	659.00000
22.69000	596.00000
22.70000	651.00000
22.71000	668.00000
22.72000	634.00000
22.73000	590.00000
22.74000	647.00000
22.75000	647.00000
22.76000	672.00000
22.77000	650.00000
22.78000	638.00000
22.79000	656.00000
22.80000	641.00000
22.81000	645.00000
22.82000	661.00000
22.83000	629.00000
22.84000	674.00000
22.85000	670.00000
22.86000	652.00000
22.87000	657.00000
22.88000	671.00000
22.89000	640.00000
22.90000	714.00000
22.91000	680.00000
22.92000	691.00000
22.93000	705.00000
22.94000	725.00000
22.95000	657.00000
22.96000	744.00000
22.97000	751.00000
22.98000	805.00000
22.99000	786.00000
23.00000	859.00000
23.01000	841.00000
23.02000	832.00000
23.03000	842.00000
23.04000	933.00000
23.05000	936.00000
23.06000	1024.00000
23.07000	1044.00000
23.08000	1085.00000
23.09000	1067.00000
23.10000	1199.00000
23.11000	1240.00000
23.12000	1207.00000
23.13000	1272.00000
23.14000	1322.00000
23.15000	1395.00000
23.16000	1384.00000
23.17000	1428.00000
23.18000	1399.00000
23.19000	1406.00000
23.20000	1331.00000
23.21000	1287.00000
23.22000	1268.00000
23.23000	1220.00000
23.24000	1209.00000
23.25000	1163.00000
23.26000	1101.00000
23.27000	1051.00000
23.28000	1000.00000
23.29000	971.00000
23.30000	868.00000
23.31000	846.00000
23.32000	829.00000
23.33000	811.00000
23.34000	741.00000
23.35000	751.00000
23.36000	713.00000
23.37000	736.00000
23.38000	728.00000
23.39000	680.00000
23.40000	705.00000
23.41000	662.00000
23.42000	689.00000
23.43000	641.00000
23.44000	678.00000
23.45000	680.00000
23.46000	678.00000
23.47000	652.00000
23.48000	672.00000
23.49000	666.00000
23.50000	671.00000
23.51000	657.00000
23.52000	721.00000
23.53000	684.00000
23.54000	660.00000
23.55000	658.00000
23.56000	651.00000
23.57000	630.00000
23.58000	654.00000
23.59000	660.00000
23.60000	645.00000
23.61000	666.00000
23.62000	618.00000
23.63000	671.00000
23.64000	668.00000
23.65000	681.00000
23.66000	685.00000
23.67000	691.00000
23.68000	654.00000
23.69000	650.00000
23.70000	686.00000
23.71000	687.00000
23.72000	642.00000
23.73000	660.00000
23.74000	690.00000
23.75000	635.00000
23.76000	658.00000
23.77000	666.00000
23.78000	698.00000
23.79000	669.00000
23.80000	667.00000
23.81000	664.00000
23.82000	680.00000
23.83000	649.00000
23.84000	667.00000
23.85000	616.00000
23.86000	640.00000
23.87000	667.00000
23.88000	656.00000
23.89000	669.00000
23.90000	651.00000
23.91000	611.00000
23.92000	654.00000
23.93000	633.00000
23.94000	646.00000
23.95000	680.00000
23.96000	648.00000
23.97000	618.00000
23.98000	634.00000
23.99000	638.00000
24.00000	631.00000
24.01000	671.00000
24.02000	675.00000
24.03000	655.00000
24.04000	661.00000
24.05000	679.00000
24.06000	669.00000
24.07000	676.00000
24.08000	700.00000
24.09000	657.00000
24.10000	708.00000
24.11000	697.00000
24.12000	739.00000
24.13000	721.00000
24.14000	756.00000
24.15000	742.00000
24.16000	757.00000
24.17000	730.00000
24.18000	794.00000
24.19000	826.00000
24.20000	878.00000
24.21000	883.00000
24.22000	847.00000
24.23000	961.00000
24.24000	1001.00000
24.25000	1053.00000
24.26000	1132.00000
24.27000	1201.00000
24.28000	1225.00000
24.29000	1357.00000
24.30000	1322.00000
24.31000	1384.00000
24.32000	1348.00000
24.33000	1404.00000
24.34000	1366.00000
24.35000	1383.00000
24.36000	1316.00000
24.37000	1284.00000
24.38000	1270.00000
24.39000	1097.00000
24.40000	1172.00000
24.41000	1031.00000
24.42000	972.00000
24.43000	970.00000
24.44000	893.00000
24.45000	871.00000
24.46000	864.00000
24.47000	857.00000
24.48000	808.00000
24.49000	833.00000
24.50000	819.00000
24.51000	808.00000
24.52000	821.00000
24.53000	804.00000
24.54000	835.00000
24.55000	809.00000
24.56000	841.00000
24.57000	851.00000
24.58000	863.00000
24.59000	934.00000
24.60000	880.00000
24.61000	937.00000
24.62000	950.00000
24.63000	1009.00000
24.64000	1057.00000
24.65000	1102.00000
24.66000	1109.00000
24.67000	1149.00000
24.68000	1120.00000
24.69000	1133.00000
24.70000	1142.00000
24.71000	1170.00000
24.72000	1128.00000
24.73000	1124.00000
24.74000	1111.00000
24.75000	1003.00000
24.76000	1049.00000
24.77000	1035.00000
24.78000	997.00000
24.79000	1016.00000
24.80000	958.00000
24.81000	905.00000
24.82000	894.00000
24.83000	843.00000
24.84000	793.00000
24.85000	849.00000
24.86000	816.00000
24.87000	779.00000
24.88000	747.00000
24.89000	739.00000
24.90000	737.00000
24.91000	758.00000
24.92000	689.00000
24.93000	672.00000
24.94000	684.00000
24.95000	695.00000
24.96000	648.00000
24.97000	719.00000
24.98000	675.00000
24.99000	663.00000
25.00000	691.00000
25.01000	653.00000
25.02000	655.00000
25.03000	608.00000
25.04000	665.00000
25.05000	677.00000
25.06000	667.00000
25.07000	615.00000
25.08000	591.00000
25.09000	637.00000
25.10000	656.00000
25.11000	616.00000
25.12000	613.00000
25.13000	627.00000
25.14000	622.00000
25.15000	644.00000
25.16000	641.00000
25.17000	671.00000
25.18000	667.00000
25.19000	632.00000
25.20000	664.00000
25.21000	607.00000
25.22000	648.00000
25.23000	623.00000
25.24000	643.00000
25.25000	645.00000
25.26000	631.00000
25.27000	593.00000
25.28000	606.00000
25.29000	674.00000
25.30000	644.00000
25.31000	683.00000
25.32000	612.00000
25.33000	667.00000
25.34000	670.00000
25.35000	669.00000
25.36000	655.00000
25.37000	631.00000
25.38000	658.00000
25.39000	644.00000
25.40000	690.00000
25.41000	677.00000
25.42000	696.00000
25.43000	692.00000
25.44000	658.00000
25.45000	675.00000
25.46000	676.00000
25.47000	618.00000
25.48000	698.00000
25.49000	718.00000
25.50000	667.00000
25.51000	721.00000
25.52000	688.00000
25.53000	698.00000
25.54000	772.00000
25.55000	734.00000
25.56000	774.00000
25.57000	775.00000
25.58000	820.00000
25.59000	765.00000
25.60000	865.00000
25.61000	913.00000
25.62000	850.00000
25.63000	850.00000
25.64000	921.00000
25.65000	964.00000
25.66000	987.00000
25.67000	982.00000
25.68000	1071.00000
25.69000	1115.00000
25.70000	1026.00000
25.71000	1134.00000
25.72000	1064.00000
25.73000	1069.00000
25.74000	1126.00000
25.75000	1091.00000
25.76000	1081.00000
25.77000	1020.00000
25.78000	1006.00000
25.79000	1027.00000
25.80000	974.00000
25.81000	936.00000
25.82000	978.00000
25.83000	886.00000
25.84000	836.00000
25.85000	829.00000
25.86000	834.00000
25.87000	762.00000
25.88000	802.00000
25.89000	779.00000
25.90000	728.00000
25.91000	772.00000
25.92000	715.00000
25.93000	679.00000
25.94000	699.00000
25.95000	704.00000
25.96000	732.00000
25.97000	680.00000
25.98000	673.00000
25.99000	659.00000
26.00000	668.00000
26.01000	663.00000
26.02000	611.00000
26.03000	675.00000
26.04000	657.00000
26.05000	617.00000
26.06000	669.00000
26.07000	664.00000
26.08000	640.00000
26.09000	632.00000
26.10000	618.00000
26.11000	637.00000
26.12000	614.00000
26.13000	634.00000
26.14000	658.00000
26.15000	652.00000
26.16000	698.00000
26.17000	662.00000
26.18000	677.00000
26.19000	660.00000
26.20000	622.00000
26.21000	660.00000
26.22000	713.00000
26.23000	696.00000
26.24000	707.00000
26.25000	707.00000
26.26000	758.00000
26.27000	753.00000
26.28000	764.00000
26.29000	777.00000
26.30000	733.00000
26.31000	770.00000
26.32000	726.00000
26.33000	787.00000
26.34000	776.00000
26.35000	760.00000
26.36000	742.00000
26.37000	705.00000
26.38000	748.00000
26.39000	746.00000
26.40000	670.00000
26.41000	658.00000
26.42000	680.00000
26.43000	650.00000
26.44000	695.00000
26.45000	652.00000
26.46000	655.00000
26.47000	626.00000
26.48000	685.00000
26.49000	628.00000
26.50000	656.00000
26.51000	601.00000
26.52000	632.00000
26.53000	614.00000
26.54000	633.00000
26.55000	605.00000
26.56000	661.00000
26.57000	591.00000
26.58000	606.00000
26.59000	621.00000
26.60000	600.00000
26.61000	598.00000
26.62000	638.00000
26.63000	603.00000
26.64000	609.00000
26.65000	599.00000
26.66000	630.00000
26.67000	570.00000
26.68000	610.00000
26.69000	615.00000
26.70000	594.00000
26.71000	586.00000
26.72000	619.00000
26.73000	633.00000
26.74000	619.00000
26.75000	589.00000
26.76000	643.00000
26.77000	610.00000
26.78000	599.00000
26.79000	616.00000
26.80000	630.00000
26.81000	662.00000
26.82000	618.00000
26.83000	601.00000
26.84000	607.00000
26.85000	615.00000
26.86000	612.00000
26.87000	616.00000
26.88000	662.00000
26.89000	610.00000
26.90000	611.00000
26.91000	604.00000
26.92000	663.00000
26.93000	619.00000
26.94000	637.00000
26.95000	580.00000
26.96000	609.00000
26.97000	630.00000
26.98000	607.00000
26.99000	604.00000
27.00000	612.00000
27.01000	662.00000
27.02000	695.00000
27.03000	639.00000
27.04000	678.00000
27.05000	648.00000
27.06000	677.00000
27.07000	663.00000
27.08000	731.00000
27.09000	686.00000
27.10000	682.00000
27.11000	708.00000
27.12000	730.00000
27.13000	721.00000
27.14000	776.00000
27.15000	811.00000
27.16000	779.00000
27.17000	825.00000
27.18000	896.00000
27.19000	949.00000
27.20000	939.00000
27.21000	1009.00000
27.22000	1020.00000
27.23000	1137.00000
27.24000	1205.00000
27.25000	1299.00000
27.26000	1291.00000
27.27000	1400.00000
27.28000	1405.00000
27.29000	1469.00000
27.30000	1581.00000
27.31000	1628.00000
27.32000	1596.00000
27.33000	1623.00000
27.34000	1622.00000
27.35000	1574.00000
27.36000	1643.00000
27.37000	1512.00000
27.38000	1443.00000
27.39000	1378.00000
27.40000	1268.00000
27.41000	1247.00000
27.42000	1187.00000
27.43000	1047.00000
27.44000	1112.00000
27.45000	1023.00000
27.46000	1027.00000
27.47000	940.00000
27.48000	864.00000
27.49000	899.00000
27.50000	823.00000
27.51000	857.00000
27.52000	761.00000
27.53000	767.00000
27.54000	726.00000
27.55000	708.00000
27.56000	654.00000
27.57000	659.00000
27.58000	698.00000
27.59000	646.00000
27.60000	660.00000
27.61000	628.00000
27.62000	650.00000
27.63000	660.00000
27.64000	631.00000
27.65000	649.00000
27.66000	641.00000
27.67000	628.00000
27.68000	591.00000
27.69000	633.00000
27.70000	616.00000
27.71000	636.00000
27.72000	615.00000
27.73000	565.00000
27.74000	600.00000
27.75000	580.00000
27.76000	670.00000
27.77000	631.00000
27.78000	608.00000
27.79000	587.00000
27.80000	586.00000
27.81000	623.00000
27.82000	618.00000
27.83000	632.00000
27.84000	580.00000
27.85000	618.00000
27.86000	560.00000
27.87000	563.00000
27.88000	542.00000
27.89000	596.00000
27.90000	600.00000
27.91000	601.00000
27.92000	571.00000
27.93000	594.00000
27.94000	599.00000
27.95000	585.00000
27.96000	633.00000
27.97000	663.00000
27.98000	614.00000
27.99000	600.00000
28.00000	599.00000
28.01000	656.00000
28.02000	655.00000
28.03000	660.00000
28.04000	590.00000
28.05000	624.00000
28.06000	645.00000
28.07000	729.00000
28.08000	726.00000
28.09000	710.00000
28.10000	782.00000
28.11000	773.00000
28.12000	846.00000
28.13000	859.00000
28.14000	943.00000
28.15000	917.00000
28.16000	1001.00000
28.17000	1034.00000
28.18000	1114.00000
28.19000	1131.00000
28.20000	1218.00000
28.21000	1190.00000
28.22000	1217.00000
28.23000	1234.00000
28.24000	1174.00000
28.25000	1141.00000
28.26000	1134.00000
28.27000	1086.00000
28.28000	1055.00000
28.29000	968.00000
28.30000	902.00000
28.31000	813.00000
28.32000	756.00000
28.33000	788.00000
28.34000	751.00000
28.35000	730.00000
28.36000	711.00000
28.37000	715.00000
28.38000	671.00000
28.39000	648.00000
28.40000	640.00000
28.41000	636.00000
28.42000	636.00000
28.43000	653.00000
28.44000	618.00000
28.45000	651.00000
28.46000	644.00000
28.47000	624.00000
28.48000	640.00000
28.49000	682.00000
28.50000	673.00000
28.51000	648.00000
28.52000	650.00000
28.53000	658.00000
28.54000	667.00000
28.55000	654.00000
28.56000	693.00000
28.57000	662.00000
28.58000	649.00000
28.59000	663.00000
28.60000	629.00000
28.61000	658.00000
28.62000	606.00000
28.63000	631.00000
28.64000	622.00000
28.65000	582.00000
28.66000	588.00000
28.67000	622.00000
28.68000	554.00000
28.69000	594.00000
28.70000	590.00000
28.71000	545.00000
28.72000	564.00000
28.73000	607.00000
28.74000	585.00000
28.75000	577.00000
28.76000	617.00000
28.77000	535.00000
28.78000	564.00000
28.79000	551.00000
28.80000	613.00000
28.81000	552.00000
28.82000	575.00000
28.83000	603.00000
28.84000	590.00000
28.85000	560.00000
28.86000	576.00000
28.87000	579.00000
28.88000	545.00000
28.89000	560.00000
28.90000	562.00000
28.91000	569.00000
28.92000	567.00000
28.93000	576.00000
28.94000	569.00000
28.95000	575.00000
28.96000	588.00000
28.97000	550.00000
28.98000	578.00000
28.99000	603.00000
29.00000	571.00000
29.01000	578.00000
29.02000	558.00000
29.03000	599.00000
29.04000	604.00000
29.05000	639.00000
29.06000	655.00000
29.07000	550.00000
29.08000	627.00000
29.09000	681.00000
29.10000	677.00000
29.11000	626.00000
29.12000	682.00000
29.13000	720.00000
29.14000	684.00000
29.15000	739.00000
29.16000	771.00000
29.17000	722.00000
29.18000	711.00000
29.19000	725.00000
29.20000	693.00000
29.21000	744.00000
29.22000	754.00000
29.23000	709.00000
29.24000	690.00000
29.25000	670.00000
29.26000	645.00000
29.27000	646.00000
29.28000	649.00000
29.29000	619.00000
29.30000	596.00000
29.31000	626.00000
29.32000	560.00000
29.33000	602.00000
29.34000	625.00000
29.35000	603.00000
29.36000	618.00000
29.37000	582.00000
29.38000	620.00000
29.39000	564.00000
29.40000	607.00000
29.41000	563.00000
29.42000	592.00000
29.43000	558.00000
29.44000	568.00000
29.45000	540.00000
29.46000	554.00000
29.47000	572.00000
29.48000	553.00000
29.49000	553.00000
29.50000	571.00000
29.51000	565.00000
29.52000	594.00000
29.53000	554.00000
29.54000	584.00000
29.55000	559.00000
29.56000	553.00000
29.57000	548.00000
29.58000	594.00000
29.59000	577.00000
29.60000	587.00000
29.61000	578.00000
29.62000	545.00000
29.63000	600.00000
29.64000	590.00000
29.65000	564.00000
29.66000	577.00000
29.67000	611.00000
29.68000	607.00000
29.69000	573.00000
29.70000	580.00000
29.71000	617.00000
29.72000	573.00000
29.73000	588.00000
29.74000	551.00000
29.75000	545.00000
29.76000	572.00000
29.77000	627.00000
29.78000	599.00000
29.79000	584.00000
29.80000	570.00000
29.81000	596.00000
29.82000	557.00000
29.83000	595.00000
29.84000	589.00000
29.85000	607.00000
29.86000	610.00000
29.87000	627.00000
29.88000	673.00000
29.89000	654.00000
29.90000	634.00000
29.91000	712.00000
29.92000	697.00000
29.93000	732.00000
29.94000	770.00000
29.95000	831.00000
29.96000	841.00000
29.97000	844.00000
29.98000	802.00000
29.99000	939.00000
30.00000	947.00000
30.01000	909.00000
30.02000	919.00000
30.03000	921.00000
30.04000	917.00000
30.05000	912.00000
30.06000	856.00000
30.07000	864.00000
30.08000	845.00000
30.09000	786.00000
30.10000	747.00000
30.11000	716.00000
30.12000	758.00000
30.13000	704.00000
30.14000	706.00000
30.15000	666.00000
30.16000	628.00000
30.17000	618.00000
30.18000	611.00000
30.19000	616.00000
30.20000	599.00000
30.21000	563.00000
30.22000	586.00000
30.23000	574.00000
30.24000	536.00000
30.25000	532.00000
30.26000	540.00000
30.27000	532.00000
30.28000	566.00000
30.29000	533.00000
30.30000	544.00000
30.31000	542.00000
30.32000	521.00000
30.33000	556.00000
30.34000	574.00000
30.35000	561.00000
30.36000	558.00000
30.37000	549.00000
30.38000	540.00000
30.39000	538.00000
30.40000	511.00000
30.41000	537.00000
30.42000	562.00000
30.43000	538.00000
30.44000	543.00000
30.45000	552.00000
30.46000	528.00000
30.47000	536.00000
30.48000	506.00000
30.49000	551.00000
30.50000	557.00000
30.51000	542.00000
30.52000	534.00000
30.53000	515.00000
30.54000	556.00000
30.55000	555.00000
30.56000	573.00000
30.57000	548.00000
30.58000	551.00000
30.59000	543.00000
30.60000	550.00000
30.61000	542.00000
30.62000	561.00000
30.63000	607.00000
30.64000	608.00000
30.65000	589.00000
30.66000	586.00000
30.67000	599.00000
30.68000	628.00000
30.69000	643.00000
30.70000	603.00000
30.71000	721.00000
30.72000	677.00000
30.73000	682.00000
30.74000	709.00000
30.75000	770.00000
30.76000	833.00000
30.77000	796.00000
30.78000	835.00000
30.79000	900.00000
30.80000	967.00000
30.81000	1038.00000
30.82000	1048.00000
30.83000	1069.00000
30.84000	1164.00000
30.85000	1259.00000
30.86000	1275.00000
30.87000	1312.00000
30.88000	1360.00000
30.89000	1437.00000
30.90000	1363.00000
30.91000	1401.00000
30.92000	1389.00000
30.93000	1321.00000
30.94000	1338.00000
30.95000	1270.00000
30.96000	1202.00000
30.97000	1201.00000
30.98000	1116.00000
30.99000	1003.00000
31.00000	969.00000
31.01000	998.00000
31.02000	929.00000
31.03000	844.00000
31.04000	850.00000
31.05000	800.00000
31.06000	802.00000
31.07000	803.00000
31.08000	709.00000
31.09000	698.00000
31.10000	722.00000
31.11000	680.00000
31.12000	694.00000
31.13000	682.00000
31.14000	678.00000
31.15000	666.00000
31.16000	679.00000
31.17000	666.00000
31.18000	676.00000
31.19000	677.00000
31.20000	669.00000
31.21000	701.00000
31.22000	709.00000
31.23000	660.00000
31.24000	659.00000
31.25000	713.00000
31.26000	687.00000
31.27000	679.00000
31.28000	684.00000
31.29000	673.00000
31.30000	589.00000
31.31000	641.00000
31.32000	643.00000
31.33000	635.00000
31.34000	613.00000
31.35000	579.00000
31.36000	662.00000
31.37000	629.00000
31.38000	570.00000
31.39000	568.00000
31.40000	574.00000
31.41000	560.00000
31.42000	555.00000
31.43000	534.00000
31.44000	575.00000
31.45000	573.00000
31.46000	541.00000
31.47000	536.00000
31.48000	545.00000
31.49000	547.00000
31.50000	589.00000
31.51000	522.00000
31.52000	561.00000
31.53000	557.00000
31.54000	534.00000
31.55000	573.00000
31.56000	572.00000
31.57000	589.00000
31.58000	571.00000
31.59000	605.00000
31.60000	599.00000
31.61000	636.00000
31.62000	640.00000
31.63000	613.00000
31.64000	673.00000
31.65000	681.00000
31.66000	729.00000
31.67000	789.00000
31.68000	802.00000
31.69000	772.00000
31.70000	831.00000
31.71000	891.00000
31.72000	859.00000
31.73000	881.00000
31.74000	911.00000
31.75000	921.00000
31.76000	899.00000
31.77000	865.00000
31.78000	854.00000
31.79000	879.00000
31.80000	805.00000
31.81000	768.00000
31.82000	778.00000
31.83000	781.00000
31.84000	686.00000
31.85000	718.00000
31.86000	688.00000
31.87000	695.00000
31.88000	639.00000
31.89000	648.00000
31.90000	645.00000
31.91000	554.00000
31.92000	583.00000
31.93000	567.00000
31.94000	590.00000
31.95000	555.00000
31.96000	558.00000
31.97000	530.00000
31.98000	525.00000
31.99000	511.00000
32.00000	489.00000
32.01000	506.00000
32.02000	500.00000
32.03000	487.00000
32.04000	476.00000
32.05000	505.00000
32.06000	482.00000
32.07000	498.00000
32.08000	504.00000
32.09000	502.00000
32.10000	517.00000
32.11000	473.00000
32.12000	509.00000
32.13000	461.00000
32.14000	476.00000
32.15000	450.00000
32.16000	458.00000
32.17000	466.00000
32.18000	482.00000
32.19000	445.00000
32.20000	465.00000
32.21000	490.00000
32.22000	468.00000
32.23000	472.00000
32.24000	494.00000
32.25000	471.00000
32.26000	427.00000
32.27000	495.00000
32.28000	471.00000
32.29000	465.00000
32.30000	478.00000
32.31000	464.00000
32.32000	468.00000
32.33000	491.00000
32.34000	485.00000
32.35000	500.00000
32.36000	487.00000
32.37000	502.00000
32.38000	545.00000
32.39000	509.00000
32.40000	481.00000
32.41000	495.00000
32.42000	507.00000
32.43000	463.00000
32.44000	454.00000
32.45000	472.00000
32.46000	468.00000
32.47000	436.00000
32.48000	453.00000
32.49000	447.00000
32.50000	435.00000
32.51000	454.00000
32.52000	441.00000
32.53000	485.00000
32.54000	470.00000
32.55000	451.00000
32.56000	447.00000
32.57000	461.00000
32.58000	472.00000
32.59000	437.00000
32.60000	449.00000
32.61000	437.00000
32.62000	468.00000
32.63000	483.00000
32.64000	461.00000
32.65000	488.00000
32.66000	457.00000
32.67000	406.00000
32.68000	459.00000
32.69000	488.00000
32.70000	470.00000
32.71000	484.00000
32.72000	476.00000
32.73000	483.00000
32.74000	506.00000
32.75000	480.00000
32.76000	517.00000
32.77000	493.00000
32.78000	496.00000
32.79000	491.00000
32.80000	467.00000
32.81000	483.00000
32.82000	525.00000
32.83000	528.00000
32.84000	515.00000
32.85000	514.00000
32.86000	572.00000
32.87000	531.00000
32.88000	550.00000
32.89000	528.00000
32.90000	518.00000
32.91000	505.00000
32.92000	524.00000
32.93000	507.00000
32.94000	523.00000
32.95000	515.00000
32.96000	532.00000
32.97000	478.00000
32.98000	510.00000
32.99000	509.00000
33.00000	518.00000
33.01000	477.00000
33.02000	513.00000
33.03000	466.00000
33.04000	456.00000
33.05000	487.00000
33.06000	497.00000
33.07000	456.00000
33.08000	490.00000
33.09000	457.00000
33.10000	456.00000
33.11000	475.00000
33.12000	479.00000
33.13000	468.00000
33.14000	472.00000
33.15000	448.00000
33.16000	497.00000
33.17000	486.00000
33.18000	520.00000
33.19000	502.00000
33.20000	493.00000
33.21000	512.00000
33.22000	529.00000
33.23000	546.00000
33.24000	561.00000
33.25000	541.00000
33.26000	566.00000
33.27000	584.00000
33.28000	565.00000
33.29000	656.00000
33.30000	643.00000
33.31000	648.00000
33.32000	670.00000
33.33000	745.00000
33.34000	742.00000
33.35000	749.00000
33.36000	793.00000
33.37000	754.00000
33.38000	737.00000
33.39000	716.00000
33.40000	764.00000
33.41000	730.00000
33.42000	744.00000
33.43000	709.00000
33.44000	710.00000
33.45000	759.00000
33.46000	700.00000
33.47000	707.00000
33.48000	711.00000
33.49000	711.00000
33.50000	692.00000
33.51000	702.00000
33.52000	726.00000
33.53000	725.00000
33.54000	735.00000
33.55000	713.00000
33.56000	716.00000
33.57000	695.00000
33.58000	687.00000
33.59000	760.00000
33.60000	729.00000
33.61000	678.00000
33.62000	667.00000
33.63000	606.00000
33.64000	657.00000
33.65000	554.00000
33.66000	580.00000
33.67000	585.00000
33.68000	564.00000
33.69000	531.00000
33.70000	497.00000
33.71000	530.00000
33.72000	491.00000
33.73000	447.00000
33.74000	490.00000
33.75000	458.00000
33.76000	496.00000
33.77000	456.00000
33.78000	481.00000
33.79000	449.00000
33.80000	421.00000
33.81000	446.00000
33.82000	458.00000
33.83000	411.00000
33.84000	466.00000
33.85000	469.00000
33.86000	442.00000
33.87000	390.00000
33.88000	449.00000
33.89000	425.00000
33.90000	442.00000
33.91000	414.00000
33.92000	389.00000
33.93000	404.00000
33.94000	434.00000
33.95000	417.00000
33.96000	442.00000
33.97000	372.00000
33.98000	405.00000
33.99000	392.00000
34.00000	393.00000
34.01000	396.00000
34.02000	426.00000
34.03000	385.00000
34.04000	436.00000
34.05000	439.00000
34.06000	424.00000
34.07000	401.00000
34.08000	419.00000
34.09000	395.00000
34.10000	392.00000
34.11000	391.00000
34.12000	378.00000
34.13000	407.00000
34.14000	398.00000
34.15000	452.00000
34.16000	472.00000
34.17000	436.00000
34.18000	413.00000
34.19000	380.00000
34.20000	409.00000
34.21000	423.00000
34.22000	435.00000
34.23000	425.00000
34.24000	468.00000
34.25000	435.00000
34.26000	430.00000
34.27000	404.00000
34.28000	394.00000
34.29000	411.00000
34.30000	428.00000
34.31000	446.00000
34.32000	403.00000
34.33000	389.00000
34.34000	409.00000
34.35000	400.00000
34.36000	409.00000
34.37000	378.00000
34.38000	397.00000
34.39000	386.00000
34.40000	374.00000
34.41000	391.00000
34.42000	356.00000
34.43000	342.00000
34.44000	383.00000
34.45000	396.00000
34.46000	360.00000
34.47000	356.00000
34.48000	332.00000
34.49000	386.00000
34.50000	360.00000
34.51000	375.00000
34.52000	360.00000
34.53000	354.00000
34.54000	405.00000
34.55000	373.00000
34.56000	368.00000
34.57000	390.00000
34.58000	367.00000
34.59000	348.00000
34.60000	365.00000
34.61000	401.00000
34.62000	385.00000
34.63000	355.00000
34.64000	375.00000
34.65000	402.00000
34.66000	386.00000
34.67000	355.00000
34.68000	383.00000
34.69000	391.00000
34.70000	351.00000
34.71000	364.00000
34.72000	386.00000
34.73000	382.00000
34.74000	349.00000
34.75000	348.00000
34.76000	356.00000
34.77000	347.00000
34.78000	364.00000
34.79000	362.00000
34.80000	365.00000
34.81000	390.00000
34.82000	332.00000
34.83000	353.00000
34.84000	389.00000
34.85000	364.00000
34.86000	347.00000
34.87000	378.00000
34.88000	366.00000
34.89000	369.00000
34.90000	341.00000
34.91000	366.00000
34.92000	398.00000
34.93000	366.00000
34.94000	368.00000
34.95000	343.00000
34.96000	382.00000
34.97000	365.00000
34.98000	332.00000
34.99000	351.00000
35.00000	360.00000
35.01000	348.00000
35.02000	358.00000
35.03000	370.00000
35.04000	380.00000
35.05000	377.00000
35.06000	350.00000
35.07000	315.00000
35.08000	329.00000
35.09000	390.00000
35.10000	312.00000
35.11000	355.00000
35.12000	381.00000
35.13000	347.00000
35.14000	373.00000
35.15000	378.00000
35.16000	342.00000
35.17000	357.00000
35.18000	381.00000
35.19000	325.00000
35.20000	343.00000
35.21000	397.00000
35.22000	350.00000
35.23000	347.00000
35.24000	349.00000
35.25000	359.00000
35.26000	368.00000
35.27000	354.00000
35.28000	341.00000
35.29000	367.00000
35.30000	357.00000
35.31000	365.00000
35.32000	341.00000
35.33000	352.00000
35.34000	331.00000
35.35000	345.00000
35.36000	345.00000
35.37000	360.00000
35.38000	335.00000
35.39000	307.00000
35.40000	350.00000
35.41000	370.00000
35.42000	337.00000
35.43000	345.00000
35.44000	342.00000
35.45000	347.00000
35.46000	328.00000
35.47000	330.00000
35.48000	339.00000
35.49000	373.00000
35.50000	341.00000
35.51000	360.00000
35.52000	353.00000
35.53000	348.00000
35.54000	353.00000
35.55000	356.00000
35.56000	354.00000
35.57000	349.00000
35.58000	353.00000
35.59000	367.00000
35.60000	360.00000
35.61000	365.00000
35.62000	358.00000
35.63000	377.00000
35.64000	380.00000
35.65000	362.00000
35.66000	400.00000
35.67000	348.00000
35.68000	405.00000
35.69000	384.00000
35.70000	397.00000
35.71000	391.00000
35.72000	404.00000
35.73000	367.00000
35.74000	417.00000
35.75000	392.00000
35.76000	411.00000
35.77000	414.00000
35.78000	393.00000
35.79000	411.00000
35.80000	415.00000
35.81000	398.00000
35.82000	402.00000
35.83000	393.00000
35.84000	385.00000
35.85000	375.00000
35.86000	390.00000
35.87000	367.00000
35.88000	419.00000
35.89000	392.00000
35.90000	373.00000
35.91000	426.00000
35.92000	381.00000
35.93000	380.00000
35.94000	381.00000
35.95000	407.00000
35.96000	383.00000
35.97000	376.00000
35.98000	411.00000
35.99000	358.00000
36.00000	362.00000
36.01000	385.00000
36.02000	379.00000
36.03000	351.00000
36.04000	384.00000
36.05000	352.00000
36.06000	377.00000
36.07000	376.00000
36.08000	364.00000
36.09000	358.00000
36.10000	361.00000
36.11000	349.00000
36.12000	337.00000
36.13000	345.00000
36.14000	334.00000
36.15000	359.00000
36.16000	377.00000
36.17000	351.00000
36.18000	340.00000
36.19000	330.00000
36.20000	374.00000
36.21000	346.00000
36.22000	316.00000
36.23000	336.00000
36.24000	350.00000
36.25000	348.00000
36.26000	360.00000
36.27000	367.00000
36.28000	349.00000
36.29000	342.00000
36.30000	363.00000
36.31000	337.00000
36.32000	380.00000
36.33000	372.00000
36.34000	399.00000
36.35000	403.00000
36.36000	380.00000
36.37000	404.00000
36.38000	414.00000
36.39000	400.00000
36.40000	435.00000
36.41000	413.00000
36.42000	391.00000
36.43000	383.00000
36.44000	386.00000
36.45000	425.00000
36.46000	416.00000
36.47000	354.00000
36.48000	414.00000
36.49000	407.00000
36.50000	366.00000
36.51000	358.00000
36.52000	386.00000
36.53000	375.00000
36.54000	366.00000
36.55000	356.00000
36.56000	330.00000
36.57000	320.00000
36.58000	368.00000
36.59000	331.00000
36.60000	374.00000
36.61000	374.00000
36.62000	350.00000
36.63000	352.00000
36.64000	336.00000
36.65000	298.00000
36.66000	344.00000
36.67000	307.00000
36.68000	313.00000
36.69000	353.00000
36.70000	316.00000
36.71000	364.00000
36.72000	311.00000
36.73000	350.00000
36.74000	328.00000
36.75000	331.00000
36.76000	318.00000
36.77000	332.00000
36.78000	300.00000
36.79000	311.00000
36.80000	348.00000
36.81000	343.00000
36.82000	349.00000
36.83000	327.00000
36.84000	334.00000
36.85000	365.00000
36.86000	345.00000
36.87000	344.00000
36.88000	339.00000
36.89000	331.00000
36.90000	313.00000
36.91000	365.00000
36.92000	350.00000
36.93000	315.00000
36.94000	321.00000
36.95000	334.00000
36.96000	379.00000
36.97000	317.00000
36.98000	341.00000
36.99000	370.00000
37.00000	361.00000
37.01000	399.00000
37.02000	361.00000
37.03000	394.00000
37.04000	422.00000
37.05000	387.00000
37.06000	441.00000
37.07000	476.00000
37.08000	437.00000
37.09000	445.00000
37.10000	449.00000
37.11000	485.00000
37.12000	471.00000
37.13000	508.00000
37.14000	522.00000
37.15000	521.00000
37.16000	567.00000
37.17000	571.00000
37.18000	513.00000
37.19000	504.00000
37.20000	524.00000
37.21000	530.00000
37.22000	485.00000
37.23000	449.00000
37.24000	430.00000
37.25000	434.00000
37.26000	437.00000
37.27000	406.00000
37.28000	469.00000
37.29000	418.00000
37.30000	389.00000
37.31000	437.00000
37.32000	390.00000
37.33000	416.00000
37.34000	397.00000
37.35000	420.00000
37.36000	395.00000
37.37000	388.00000
37.38000	406.00000
37.39000	418.00000
37.40000	394.00000
37.41000	380.00000
37.42000	393.00000
37.43000	413.00000
37.44000	415.00000
37.45000	411.00000
37.46000	408.00000
37.47000	413.00000
37.48000	389.00000
37.49000	376.00000
37.50000	409.00000
37.51000	397.00000
37.52000	346.00000
37.53000	348.00000
37.54000	350.00000
37.55000	354.00000
37.56000	349.00000
37.57000	377.00000
37.58000	353.00000
37.59000	367.00000
37.60000	348.00000
37.61000	318.00000
37.62000	338.00000
37.63000	324.00000
37.64000	347.00000
37.65000	323.00000
37.66000	322.00000
37.67000	353.00000
37.68000	329.00000
37.69000	327.00000
37.70000	338.00000
37.71000	324.00000
37.72000	324.00000
37.73000	346.00000
37.74000	335.00000
37.75000	333.00000
37.76000	305.00000
37.77000	334.00000
37.78000	341.00000
37.79000	344.00000
37.80000	343.00000
37.81000	350.00000
37.82000	322.00000
37.83000	346.00000
37.84000	333.00000
37.85000	381.00000
37.86000	371.00000
37.87000	369.00000
37.88000	372.00000
37.89000	377.00000
37.90000	377.00000
37.91000	393.00000
37.92000	370.00000
37.93000	381.00000
37.94000	399.00000
37.95000	402.00000
37.96000	400.00000
37.97000	390.00000
37.98000	394.00000
37.99000	412.00000
38.00000	414.00000
38.01000	387.00000
38.02000	422.00000
38.03000	385.00000
38.04000	430.00000
38.05000	434.00000
38.06000	411.00000
38.07000	419.00000
38.08000	449.00000
38.09000	350.00000
38.10000	423.00000
38.11000	411.00000
38.12000	404.00000
38.13000	382.00000
38.14000	392.00000
38.15000	386.00000
38.16000	378.00000
38.17000	380.00000
38.18000	355.00000
38.19000	373.00000
38.20000	356.00000
38.21000	367.00000
38.22000	364.00000
38.23000	342.00000
38.24000	325.00000
38.25000	340.00000
38.26000	345.00000
38.27000	309.00000
38.28000	344.00000
38.29000	334.00000
38.30000	319.00000
38.31000	301.00000
38.32000	302.00000
38.33000	303.00000
38.34000	360.00000
38.35000	353.00000
38.36000	344.00000
38.37000	343.00000
38.38000	334.00000
38.39000	350.00000
38.40000	336.00000
38.41000	323.00000
38.42000	362.00000
38.43000	341.00000
38.44000	347.00000
38.45000	371.00000
38.46000	348.00000
38.47000	343.00000
38.48000	372.00000
38.49000	378.00000
38.50000	375.00000
38.51000	403.00000
38.52000	412.00000
38.53000	403.00000
38.54000	392.00000
38.55000	409.00000
38.56000	421.00000
38.57000	452.00000
38.58000	403.00000
38.59000	412.00000
38.60000	408.00000
38.61000	412.00000
38.62000	450.00000
38.63000	409.00000
38.64000	430.00000
38.65000	382.00000
38.66000	387.00000
38.67000	369.00000
38.68000	423.00000
38.69000	367.00000
38.70000	395.00000
38.71000	399.00000
38.72000	405.00000
38.73000	355.00000
38.74000	353.00000
38.75000	381.00000
38.76000	388.00000
38.77000	363.00000
38.78000	355.00000
38.79000	359.00000
38.80000	341.00000
38.81000	353.00000
38.82000	319.00000
38.83000	330.00000
38.84000	345.00000
38.85000	307.00000
38.86000	307.00000
38.87000	317.00000
38.88000	362.00000
38.89000	330.00000
38.90000	314.00000
38.91000	315.00000
38.92000	282.00000
38.93000	294.00000
38.94000	319.00000
38.95000	330.00000
38.96000	289.00000
38.97000	302.00000
38.98000	304.00000
38.99000	323.00000
39.00000	328.00000
39.01000	296.00000
39.02000	334.00000
39.03000	319.00000
39.04000	318.00000
39.05000	301.00000
39.06000	322.00000
39.07000	342.00000
39.08000	331.00000
39.09000	305.00000
39.10000	314.00000
39.11000	324.00000
39.12000	345.00000
39.13000	338.00000
39.14000	363.00000
39.15000	342.00000
39.16000	396.00000
39.17000	394.00000
39.18000	374.00000
39.19000	398.00000
39.20000	376.00000
39.21000	420.00000
39.22000	453.00000
39.23000	461.00000
39.24000	430.00000
39.25000	504.00000
39.26000	461.00000
39.27000	420.00000
39.28000	503.00000
39.29000	493.00000
39.30000	475.00000
39.31000	454.00000
39.32000	414.00000
39.33000	472.00000
39.34000	429.00000
39.35000	426.00000
39.36000	422.00000
39.37000	383.00000
39.38000	414.00000
39.39000	417.00000
39.40000	384.00000
39.41000	371.00000
39.42000	358.00000
39.43000	350.00000
39.44000	335.00000
39.45000	389.00000
39.46000	347.00000
39.47000	347.00000
39.48000	360.00000
39.49000	334.00000
39.50000	364.00000
39.51000	330.00000
39.52000	328.00000
39.53000	316.00000
39.54000	305.00000
39.55000	294.00000
39.56000	332.00000
39.57000	329.00000
39.58000	293.00000
39.59000	307.00000
39.60000	301.00000
39.61000	286.00000
39.62000	352.00000
39.63000	302.00000
39.64000	263.00000
39.65000	326.00000
39.66000	318.00000
39.67000	283.00000
39.68000	282.00000
39.69000	313.00000
39.70000	285.00000
39.71000	298.00000
39.72000	298.00000
39.73000	292.00000
39.74000	305.00000
39.75000	276.00000
39.76000	325.00000
39.77000	274.00000
39.78000	312.00000
39.79000	308.00000
39.80000	307.00000
39.81000	290.00000
39.82000	312.00000
39.83000	319.00000
39.84000	298.00000
39.85000	305.00000
39.86000	298.00000
39.87000	329.00000
39.88000	291.00000
39.89000	305.00000
39.90000	308.00000
39.91000	319.00000
39.92000	321.00000
39.93000	293.00000
39.94000	362.00000
39.95000	338.00000
39.96000	337.00000
39.97000	317.00000
39.98000	342.00000
39.99000	325.00000
40.00000	329.00000
40.01000	312.00000
40.02000	317.00000
40.03000	339.00000
40.04000	314.00000
40.05000	292.00000
40.06000	318.00000
40.07000	311.00000
40.08000	309.00000
40.09000	348.00000
40.10000	309.00000
40.11000	310.00000
40.12000	320.00000
40.13000	331.00000
40.14000	328.00000
40.15000	305.00000
40.16000	277.00000
40.17000	311.00000
40.18000	309.00000
40.19000	290.00000
40.20000	319.00000
40.21000	314.00000
40.22000	310.00000
40.23000	318.00000
40.24000	327.00000
40.25000	305.00000
40.26000	326.00000
40.27000	332.00000
40.28000	292.00000
40.29000	316.00000
40.30000	304.00000
40.31000	297.00000
40.32000	317.00000
40.33000	292.00000
40.34000	312.00000
40.35000	270.00000
40.36000	287.00000
40.37000	315.00000
40.38000	316.00000
40.39000	287.00000
40.40000	273.00000
40.41000	296.00000
40.42000	313.00000
40.43000	283.00000
40.44000	289.00000
40.45000	273.00000
40.46000	261.00000
40.47000	281.00000
40.48000	313.00000
40.49000	292.00000
40.50000	307.00000
40.51000	297.00000
40.52000	295.00000
40.53000	291.00000
40.54000	289.00000
40.55000	292.00000
40.56000	278.00000
40.57000	269.00000
40.58000	280.00000
40.59000	267.00000
40.60000	270.00000
40.61000	299.00000
40.62000	287.00000
40.63000	293.00000
40.64000	285.00000
40.65000	282.00000
40.66000	316.00000
40.67000	283.00000
40.68000	315.00000
40.69000	286.00000
40.70000	285.00000
40.71000	296.00000
40.72000	282.00000
40.73000	287.00000
40.74000	264.00000
40.75000	276.00000
40.76000	303.00000
40.77000	290.00000
40.78000	306.00000
40.79000	273.00000
40.80000	302.00000
40.81000	294.00000
40.82000	262.00000
40.83000	288.00000
40.84000	288.00000
40.85000	266.00000
40.86000	281.00000
40.87000	290.00000
40.88000	277.00000
40.89000	286.00000
40.90000	268.00000
40.91000	257.00000
40.92000	279.00000
40.93000	285.00000
40.94000	253.00000
40.95000	269.00000
40.96000	301.00000
40.97000	287.00000
40.98000	283.00000
40.99000	285.00000
41.00000	253.00000
41.01000	292.00000
41.02000	313.00000
41.03000	274.00000
41.04000	265.00000
41.05000	274.00000
41.06000	284.00000
41.07000	293.00000
41.08000	300.00000
41.09000	307.00000
41.10000	342.00000
41.11000	308.00000
41.12000	291.00000
41.13000	323.00000
41.14000	342.00000
41.15000	315.00000
41.16000	310.00000
41.17000	312.00000
41.18000	320.00000
41.19000	345.00000
41.20000	383.00000
41.21000	367.00000
41.22000	388.00000
41.23000	363.00000
41.24000	401.00000
41.25000	400.00000
41.26000	396.00000
41.27000	403.00000
41.28000	395.00000
41.29000	443.00000
41.30000	432.00000
41.31000	399.00000
41.32000	446.00000
41.33000	452.00000
41.34000	443.00000
41.35000	455.00000
41.36000	449.00000
41.37000	428.00000
41.38000	448.00000
41.39000	438.00000
41.40000	425.00000
41.41000	422.00000
41.42000	419.00000
41.43000	401.00000
41.44000	389.00000
41.45000	363.00000
41.46000	362.00000
41.47000	360.00000
41.48000	376.00000
41.49000	354.00000
41.50000	318.00000
41.51000	333.00000
41.52000	360.00000
41.53000	332.00000
41.54000	333.00000
41.55000	303.00000
41.56000	307.00000
41.57000	304.00000
41.58000	303.00000
41.59000	301.00000
41.60000	347.00000
41.61000	275.00000
41.62000	311.00000
41.63000	289.00000
41.64000	295.00000
41.65000	306.00000
41.66000	290.00000
41.67000	305.00000
41.68000	315.00000
41.69000	293.00000
41.70000	280.00000
41.71000	280.00000
41.72000	312.00000
41.73000	295.00000
41.74000	306.00000
41.75000	307.00000
41.76000	294.00000
41.77000	313.00000
41.78000	293.00000
41.79000	298.00000
41.80000	319.00000
41.81000	316.00000
41.82000	333.00000
41.83000	319.00000
41.84000	298.00000
41.85000	311.00000
41.86000	352.00000
41.87000	299.00000
41.88000	316.00000
41.89000	311.00000
41.90000	337.00000
41.91000	370.00000
41.92000	361.00000
41.93000	394.00000
41.94000	396.00000
41.95000	398.00000
41.96000	360.00000
41.97000	374.00000
41.98000	394.00000
41.99000	378.00000
42.00000	397.00000
42.01000	436.00000
42.02000	396.00000
42.03000	430.00000
42.04000	436.00000
42.05000	420.00000
42.06000	442.00000
42.07000	450.00000
42.08000	430.00000
42.09000	441.00000
42.10000	459.00000
42.11000	458.00000
42.12000	492.00000
42.13000	424.00000
42.14000	446.00000
42.15000	437.00000
42.16000	412.00000
42.17000	392.00000
42.18000	400.00000
42.19000	385.00000
42.20000	376.00000
42.21000	369.00000
42.22000	369.00000
42.23000	361.00000
42.24000	336.00000
42.25000	341.00000
42.26000	330.00000
42.27000	322.00000
42.28000	304.00000
42.29000	314.00000
42.30000	306.00000
42.31000	287.00000
42.32000	300.00000
42.33000	318.00000
42.34000	336.00000
42.35000	330.00000
42.36000	315.00000
42.37000	276.00000
42.38000	300.00000
42.39000	273.00000
42.40000	286.00000
42.41000	310.00000
42.42000	273.00000
42.43000	269.00000
42.44000	300.00000
42.45000	297.00000
42.46000	278.00000
42.47000	284.00000
42.48000	285.00000
42.49000	287.00000
42.50000	280.00000
42.51000	275.00000
42.52000	248.00000
42.53000	289.00000
42.54000	302.00000
42.55000	305.00000
42.56000	273.00000
42.57000	267.00000
42.58000	255.00000
42.59000	271.00000
42.60000	279.00000
42.61000	256.00000
42.62000	295.00000
42.63000	291.00000
42.64000	278.00000
42.65000	290.00000
42.66000	294.00000
42.67000	276.00000
42.68000	283.00000
42.69000	288.00000
42.70000	267.00000
42.71000	277.00000
42.72000	287.00000
42.73000	265.00000
42.74000	290.00000
42.75000	258.00000
42.76000	279.00000
42.77000	273.00000
42.78000	262.00000
42.79000	258.00000
42.80000	256.00000
42.81000	272.00000
42.82000	257.00000
42.83000	271.00000
42.84000	288.00000
42.85000	294.00000
42.86000	277.00000
42.87000	302.00000
42.88000	246.00000
42.89000	255.00000
42.90000	265.00000
42.91000	285.00000
42.92000	271.00000
42.93000	254.00000
42.94000	302.00000
42.95000	258.00000
42.96000	243.00000
42.97000	300.00000
42.98000	280.00000
42.99000	265.00000
43.00000	279.00000
43.01000	271.00000
43.02000	273.00000
43.03000	252.00000
43.04000	275.00000
43.05000	261.00000
43.06000	243.00000
43.07000	266.00000
43.08000	231.00000
43.09000	266.00000
43.10000	282.00000
43.11000	300.00000
43.12000	291.00000
43.13000	277.00000
43.14000	275.00000
43.15000	303.00000
43.16000	289.00000
43.17000	258.00000
43.18000	297.00000
43.19000	293.00000
43.20000	310.00000
43.21000	307.00000
43.22000	304.00000
43.23000	299.00000
43.24000	289.00000
43.25000	319.00000
43.26000	330.00000
43.27000	282.00000
43.28000	317.00000
43.29000	313.00000
43.30000	290.00000
43.31000	310.00000
43.32000	293.00000
43.33000	299.00000
43.34000	306.00000
43.35000	276.00000
43.36000	278.00000
43.37000	286.00000
43.38000	279.00000
43.39000	261.00000
43.40000	287.00000
43.41000	289.00000
43.42000	291.00000
43.43000	303.00000
43.44000	268.00000
43.45000	286.00000
43.46000	262.00000
43.47000	256.00000
43.48000	277.00000
43.49000	297.00000
43.50000	267.00000
43.51000	266.00000
43.52000	268.00000
43.53000	296.00000
43.54000	266.00000
43.55000	286.00000
43.56000	274.00000
43.57000	276.00000
43.58000	278.00000
43.59000	290.00000
43.60000	281.00000
43.61000	288.00000
43.62000	291.00000
43.63000	295.00000
43.64000	275.00000
43.65000	282.00000
43.66000	252.00000
43.67000	277.00000
43.68000	302.00000
43.69000	305.00000
43.70000	261.00000
43.71000	284.00000
43.72000	277.00000
43.73000	282.00000
43.74000	293.00000
43.75000	266.00000
43.76000	293.00000
43.77000	285.00000
43.78000	303.00000
43.79000	309.00000
43.80000	305.00000
43.81000	315.00000
43.82000	313.00000
43.83000	312.00000
43.84000	339.00000
43.85000	315.00000
43.86000	331.00000
43.87000	305.00000
43.88000	339.00000
43.89000	324.00000
43.90000	355.00000
43.91000	364.00000
43.92000	402.00000
43.93000	382.00000
43.94000	389.00000
43.95000	416.00000
43.96000	433.00000
43.97000	447.00000
43.98000	435.00000
43.99000	438.00000
44.00000	458.00000
44.01000	469.00000
44.02000	488.00000
44.03000	465.00000
44.04000	485.00000
44.05000	497.00000
44.06000	499.00000
44.07000	456.00000
44.08000	454.00000
44.09000	424.00000
44.10000	454.00000
44.11000	471.00000
44.12000	405.00000
44.13000	405.00000
44.14000	417.00000
44.15000	373.00000
44.16000	366.00000
44.17000	374.00000
44.18000	387.00000
44.19000	331.00000
44.20000	362.00000
44.21000	331.00000
44.22000	335.00000
44.23000	340.00000
44.24000	320.00000
44.25000	331.00000
44.26000	338.00000
44.27000	310.00000
44.28000	302.00000
44.29000	298.00000
44.30000	307.00000
44.31000	276.00000
44.32000	286.00000
44.33000	270.00000
44.34000	263.00000
44.35000	280.00000
44.36000	274.00000
44.37000	280.00000
44.38000	280.00000
44.39000	274.00000
44.40000	262.00000
44.41000	297.00000
44.42000	292.00000
44.43000	283.00000
44.44000	259.00000
44.45000	296.00000
44.46000	310.00000
44.47000	287.00000
44.48000	293.00000
44.49000	282.00000
44.50000	276.00000
44.51000	290.00000
44.52000	278.00000
44.53000	265.00000
44.54000	257.00000
44.55000	255.00000
44.56000	267.00000
44.57000	275.00000
44.58000	257.00000
44.59000	251.00000
44.60000	279.00000
44.61000	261.00000
44.62000	238.00000
44.63000	280.00000
44.64000	275.00000
44.65000	266.00000
44.66000	253.00000
44.67000	237.00000
44.68000	280.00000
44.69000	255.00000
44.70000	271.00000
44.71000	240.00000
44.72000	262.00000
44.73000	277.00000
44.74000	273.00000
44.75000	249.00000
44.76000	252.00000
44.77000	276.00000
44.78000	261.00000
44.79000	256.00000
44.80000	264.00000
44.81000	265.00000
44.82000	265.00000
44.83000	257.00000
44.84000	255.00000
44.85000	261.00000
44.86000	277.00000
44.87000	232.00000
44.88000	282.00000
44.89000	285.00000
44.90000	281.00000
44.91000	241.00000
44.92000	258.00000
44.93000	276.00000
44.94000	286.00000
44.95000	289.00000
44.96000	268.00000
44.97000	288.00000
44.98000	299.00000
44.99000	284.00000
45.00000	287.00000
45.01000	287.00000
45.02000	274.00000
45.03000	246.00000
45.04000	272.00000
45.05000	279.00000
45.06000	298.00000
45.07000	283.00000
45.08000	277.00000
45.09000	257.00000
45.10000	271.00000
45.11000	259.00000
45.12000	236.00000
45.13000	259.00000
45.14000	280.00000
45.15000	236.00000
45.16000	274.00000
45.17000	278.00000
45.18000	270.00000
45.19000	276.00000
45.20000	284.00000
45.21000	266.00000
45.22000	284.00000
45.23000	293.00000
45.24000	255.00000
45.25000	290.00000
45.26000	276.00000
45.27000	268.00000
45.28000	278.00000
45.29000	286.00000
45.30000	291.00000
45.31000	287.00000
45.32000	295.00000
45.33000	308.00000
45.34000	294.00000
45.35000	311.00000
45.36000	269.00000
45.37000	276.00000
45.38000	272.00000
45.39000	287.00000
45.40000	286.00000
45.41000	289.00000
45.42000	264.00000
45.43000	303.00000
45.44000	280.00000
45.45000	285.00000
45.46000	295.00000
45.47000	305.00000
45.48000	312.00000
45.49000	314.00000
45.50000	293.00000
45.51000	325.00000
45.52000	298.00000
45.53000	313.00000
45.54000	326.00000
45.55000	315.00000
45.56000	320.00000
45.57000	319.00000
45.58000	319.00000
45.59000	315.00000
45.60000	337.00000
45.61000	347.00000
45.62000	370.00000
45.63000	352.00000
45.64000	375.00000
45.65000	399.00000
45.66000	410.00000
45.67000	446.00000
45.68000	439.00000
45.69000	422.00000
45.70000	464.00000
45.71000	467.00000
45.72000	489.00000
45.73000	463.00000
45.74000	484.00000
45.75000	498.00000
45.76000	527.00000
45.77000	533.00000
45.78000	528.00000
45.79000	528.00000
45.80000	572.00000
45.81000	571.00000
45.82000	519.00000
45.83000	569.00000
45.84000	587.00000
45.85000	599.00000
45.86000	561.00000
45.87000	557.00000
45.88000	588.00000
45.89000	591.00000
45.90000	543.00000
45.91000	608.00000
45.92000	598.00000
45.93000	564.00000
45.94000	536.00000
45.95000	517.00000
45.96000	507.00000
45.97000	434.00000
45.98000	460.00000
45.99000	433.00000
46.00000	432.00000
46.01000	406.00000
46.02000	417.00000
46.03000	359.00000
46.04000	393.00000
46.05000	353.00000
46.06000	347.00000
46.07000	348.00000
46.08000	305.00000
46.09000	300.00000
46.10000	286.00000
46.11000	307.00000
46.12000	281.00000
46.13000	294.00000
46.14000	314.00000
46.15000	284.00000
46.16000	280.00000
46.17000	267.00000
46.18000	260.00000
46.19000	248.00000
46.20000	251.00000
46.21000	256.00000
46.22000	272.00000
46.23000	271.00000
46.24000	262.00000
46.25000	286.00000
46.26000	257.00000
46.27000	269.00000
46.28000	270.00000
46.29000	240.00000
46.30000	255.00000
46.31000	249.00000
46.32000	258.00000
46.33000	261.00000
46.34000	238.00000
46.35000	222.00000
46.36000	251.00000
46.37000	257.00000
46.38000	236.00000
46.39000	249.00000
46.40000	285.00000
46.41000	255.00000
46.42000	268.00000
46.43000	253.00000
46.44000	265.00000
46.45000	259.00000
46.46000	259.00000
46.47000	270.00000
46.48000	238.00000
46.49000	256.00000
46.50000	237.00000
46.51000	245.00000
46.52000	265.00000
46.53000	272.00000
46.54000	251.00000
46.55000	224.00000
46.56000	267.00000
46.57000	235.00000
46.58000	252.00000
46.59000	290.00000
46.60000	244.00000
46.61000	255.00000
46.62000	272.00000
46.63000	236.00000
46.64000	259.00000
46.65000	269.00000
46.66000	248.00000
46.67000	261.00000
46.68000	266.00000
46.69000	259.00000
46.70000	269.00000
46.71000	266.00000
46.72000	266.00000
46.73000	268.00000
46.74000	264.00000
46.75000	288.00000
46.76000	291.00000
46.77000	308.00000
46.78000	269.00000
46.79000	286.00000
46.80000	286.00000
46.81000	259.00000
46.82000	311.00000
46.83000	297.00000
46.84000	314.00000
46.85000	303.00000
46.86000	305.00000
46.87000	290.00000
46.88000	277.00000
46.89000	287.00000
46.90000	288.00000
46.91000	318.00000
46.92000	292.00000
46.93000	292.00000
46.94000	320.00000
46.95000	327.00000
46.96000	305.00000
46.97000	288.00000
46.98000	303.00000
46.99000	265.00000
47.00000	313.00000
47.01000	314.00000
47.02000	309.00000
47.03000	328.00000
47.04000	321.00000
47.05000	309.00000
47.06000	295.00000
47.07000	297.00000
47.08000	299.00000
47.09000	288.00000
47.10000	298.00000
47.11000	278.00000
47.12000	266.00000
47.13000	264.00000
47.14000	285.00000
47.15000	271.00000
47.16000	275.00000
47.17000	279.00000
47.18000	277.00000
47.19000	286.00000
47.20000	277.00000
47.21000	253.00000
47.22000	254.00000
47.23000	256.00000
47.24000	239.00000
47.25000	257.00000
47.26000	239.00000
47.27000	244.00000
47.28000	248.00000
47.29000	288.00000
47.30000	237.00000
47.31000	258.00000
47.32000	225.00000
47.33000	273.00000
47.34000	254.00000
47.35000	273.00000
47.36000	223.00000
47.37000	250.00000
47.38000	247.00000
47.39000	268.00000
47.40000	254.00000
47.41000	266.00000
47.42000	241.00000
47.43000	252.00000
47.44000	265.00000
47.45000	254.00000
47.46000	276.00000
47.47000	266.00000
47.48000	250.00000
47.49000	266.00000
47.50000	258.00000
47.51000	282.00000
47.52000	300.00000
47.53000	270.00000
47.54000	279.00000
47.55000	259.00000
47.56000	252.00000
47.57000	291.00000
47.58000	277.00000
47.59000	289.00000
47.60000	257.00000
47.61000	266.00000
47.62000	269.00000
47.63000	260.00000
47.64000	256.00000
47.65000	280.00000
47.66000	287.00000
47.67000	254.00000
47.68000	262.00000
47.69000	259.00000
47.70000	261.00000
47.71000	240.00000
47.72000	264.00000
47.73000	292.00000
47.74000	291.00000
47.75000	288.00000
47.76000	259.00000
47.77000	302.00000
47.78000	287.00000
47.79000	267.00000
47.80000	287.00000
47.81000	290.00000
47.82000	308.00000
47.83000	284.00000
47.84000	301.00000
47.85000	286.00000
47.86000	330.00000
47.87000	297.00000
47.88000	310.00000
47.89000	300.00000
47.90000	290.00000
47.91000	293.00000
47.92000	311.00000
47.93000	310.00000
47.94000	311.00000
47.95000	256.00000
47.96000	300.00000
47.97000	294.00000
47.98000	303.00000
47.99000	341.00000
48.00000	326.00000
48.01000	328.00000
48.02000	306.00000
48.03000	350.00000
48.04000	372.00000
48.05000	375.00000
48.06000	374.00000
48.07000	398.00000
48.08000	356.00000
48.09000	384.00000
48.10000	391.00000
48.11000	349.00000
48.12000	376.00000
48.13000	412.00000
48.14000	415.00000
48.15000	419.00000
48.16000	429.00000
48.17000	418.00000
48.18000	389.00000
48.19000	396.00000
48.20000	356.00000
48.21000	373.00000
48.22000	362.00000
48.23000	355.00000
48.24000	347.00000
48.25000	362.00000
48.26000	352.00000
48.27000	343.00000
48.28000	341.00000
48.29000	327.00000
48.30000	317.00000
48.31000	323.00000
48.32000	295.00000
48.33000	304.00000
48.34000	311.00000
48.35000	277.00000
48.36000	309.00000
48.37000	288.00000
48.38000	276.00000
48.39000	264.00000
48.40000	260.00000
48.41000	284.00000
48.42000	277.00000
48.43000	263.00000
48.44000	276.00000
48.45000	254.00000
48.46000	233.00000
48.47000	253.00000
48.48000	256.00000
48.49000	270.00000
48.50000	249.00000
48.51000	270.00000
48.52000	250.00000
48.53000	254.00000
48.54000	275.00000
48.55000	264.00000
48.56000	263.00000
48.57000	236.00000
48.58000	234.00000
48.59000	276.00000
48.60000	263.00000
48.61000	257.00000
48.62000	257.00000
48.63000	265.00000
48.64000	254.00000
48.65000	262.00000
48.66000	254.00000
48.67000	284.00000
48.68000	271.00000
48.69000	284.00000
48.70000	259.00000
48.71000	276.00000
48.72000	293.00000
48.73000	270.00000
48.74000	264.00000
48.75000	259.00000
48.76000	254.00000
48.77000	276.00000
48.78000	295.00000
48.79000	281.00000
48.80000	269.00000
48.81000	265.00000
48.82000	272.00000
48.83000	256.00000
48.84000	253.00000
48.85000	260.00000
48.86000	260.00000
48.87000	248.00000
48.88000	244.00000
48.89000	257.00000
48.90000	263.00000
48.91000	256.00000
48.92000	265.00000
48.93000	229.00000
48.94000	262.00000
48.95000	253.00000
48.96000	260.00000
48.97000	265.00000
48.98000	254.00000
48.99000	243.00000
49.00000	235.00000
49.01000	258.00000
49.02000	272.00000
49.03000	232.00000
49.04000	240.00000
49.05000	244.00000
49.06000	278.00000
49.07000	265.00000
49.08000	239.00000
49.09000	248.00000
49.10000	261.00000
49.11000	243.00000
49.12000	265.00000
49.13000	250.00000
49.14000	285.00000
49.15000	269.00000
49.16000	238.00000
49.17000	229.00000
49.18000	270.00000
49.19000	278.00000
49.20000	294.00000
49.21000	236.00000
49.22000	254.00000
49.23000	267.00000
49.24000	252.00000
49.25000	251.00000
49.26000	255.00000
49.27000	281.00000
49.28000	247.00000
49.29000	267.00000
49.30000	270.00000
49.31000	234.00000
49.32000	266.00000
49.33000	247.00000
49.34000	254.00000
49.35000	245.00000
49.36000	231.00000
49.37000	237.00000
49.38000	234.00000
49.39000	247.00000
49.40000	260.00000
49.41000	221.00000
49.42000	257.00000
49.43000	244.00000
49.44000	221.00000
49.45000	254.00000
49.46000	231.00000
49.47000	238.00000
49.48000	241.00000
49.49000	217.00000
49.50000	252.00000
49.51000	222.00000
49.52000	270.00000
49.53000	252.00000
49.54000	248.00000
49.55000	231.00000
49.56000	227.00000
49.57000	254.00000
49.58000	238.00000
49.59000	239.00000
49.60000	258.00000
49.61000	266.00000
49.62000	254.00000
49.63000	271.00000
49.64000	252.00000
49.65000	252.00000
49.66000	261.00000
49.67000	262.00000
49.68000	247.00000
49.69000	250.00000
49.70000	240.00000
49.71000	245.00000
49.72000	260.00000
49.73000	270.00000
49.74000	244.00000
49.75000	288.00000
49.76000	283.00000
49.77000	283.00000
49.78000	274.00000
49.79000	255.00000
49.80000	282.00000
49.81000	288.00000
49.82000	270.00000
49.83000	271.00000
49.84000	307.00000
49.85000	282.00000
49.86000	274.00000
49.87000	275.00000
49.88000	307.00000
49.89000	273.00000
49.90000	273.00000
49.91000	266.00000
49.92000	291.00000
49.93000	290.00000
49.94000	297.00000
49.95000	268.00000
49.96000	260.00000
49.97000	231.00000
49.98000	272.00000
49.99000	245.00000
50.00000	244.00000
50.01000	223.00000
50.02000	241.00000
50.03000	246.00000
50.04000	244.00000
50.05000	235.00000
50.06000	256.00000
50.07000	243.00000
50.08000	232.00000
50.09000	235.00000
