14.96900	2490.00000
14.98600	2472.00000
15.00300	2445.00000
15.02000	2447.00000
15.03700	2391.00000
15.05400	2412.00000
15.07100	2490.00000
15.08800	2372.00000
15.10500	2370.00000
15.12200	2414.00000
15.13900	2465.00000
15.15600	2442.00000
15.17300	2332.00000
15.19000	2363.00000
15.20700	2352.00000
15.22400	2391.00000
15.24100	2478.00000
15.25800	2417.00000
15.27500	2397.00000
15.29200	2338.00000
15.30900	2354.00000
15.32600	2437.00000
15.34300	2426.00000
15.36000	2399.00000
15.37700	2355.00000
15.39400	2339.00000
15.41100	2420.00000
15.42800	2496.00000
15.44500	2441.00000
15.46200	2454.00000
15.47900	2592.00000
15.49600	2490.00000
15.51300	2498.00000
15.53000	2458.00000
15.54700	2463.00000
15.56400	2471.00000
15.58100	2542.00000
15.59800	2352.00000
15.61500	2386.00000
15.63200	2475.00000
15.64900	2471.00000
15.66600	2487.00000
15.68300	2368.00000
15.70000	2434.00000
15.71700	2445.00000
15.73400	2385.00000
15.75100	2491.00000
15.76800	2512.00000
15.78500	2494.00000
15.80200	2458.00000
15.81900	2476.00000
15.83600	2402.00000
15.85300	2451.00000
15.87000	2492.00000
15.88700	2534.00000
15.90400	2518.00000
15.92100	2459.00000
15.93800	2591.00000
15.95500	2437.00000
15.97200	2374.00000
15.98900	2476.00000
16.00600	2472.00000
16.02300	2570.00000
16.04000	2518.00000
16.05700	2485.00000
16.07400	2522.00000
16.09100	2500.00000
16.10800	2532.00000
16.12500	2511.00000
16.14200	2475.00000
16.15900	2402.00000
16.17600	2418.00000
16.19300	2462.00000
16.21000	2442.00000
16.22700	2465.00000
16.24400	2440.00000
16.26100	2373.00000
16.27800	2475.00000
16.29500	2421.00000
16.31200	2409.00000
16.32900	2494.00000
16.34600	2492.00000
16.36300	2578.00000
16.38000	2368.00000
16.39700	2503.00000
16.41400	2546.00000
16.43100	2488.00000
16.44800	2403.00000
16.46500	2413.00000
16.48200	2472.00000
16.49900	2403.00000
16.51600	2311.00000
16.53300	2411.00000
16.55000	2487.00000
16.56700	2462.00000
16.58400	2426.00000
16.60100	2398.00000
16.61800	2420.00000
16.63500	2493.00000
16.65200	2559.00000
16.66900	2503.00000
16.68600	2456.00000
16.70300	2486.00000
16.72000	2487.00000
16.73700	2482.00000
16.75400	2377.00000
16.77100	2450.00000
16.78800	2472.00000
16.80500	2527.00000
16.82200	2436.00000
16.83900	2552.00000
16.85600	2441.00000
16.87300	2398.00000
16.89000	2340.00000
16.90700	2405.00000
16.92400	2439.00000
16.94100	2456.00000
16.95800	2490.00000
16.97500	2545.00000
16.99200	2468.00000
17.00900	2508.00000
17.02600	2457.00000
17.04300	2488.00000
17.06000	2465.00000
17.07700	2431.00000
17.09400	2541.00000
17.11100	2521.00000
17.12800	2474.00000
17.14500	2557.00000
17.16200	2509.00000
17.17900	2561.00000
17.19600	2606.00000
17.21300	2564.00000
17.23000	2474.00000
17.24700	2469.00000
17.26400	2540.00000
17.28100	2566.00000
17.29800	2557.00000
17.31500	2522.00000
17.33200	2529.00000
17.34900	2550.00000
17.36600	2641.00000
17.38300	2534.00000
17.40000	2501.00000
17.41700	2459.00000
17.43400	2536.00000
17.45100	2604.00000
17.46800	2490.00000
17.48500	2574.00000
17.50200	2562.00000
17.51900	2497.00000
17.53600	2536.00000
17.55300	2467.00000
17.57000	2472.00000
17.58700	2597.00000
17.60400	2620.00000
17.62100	2644.00000
17.63800	2611.00000
17.65500	2656.00000
17.67200	2518.00000
17.68900	2532.00000
17.70600	2488.00000
17.72300	2596.00000
17.74000	2657.00000
17.75700	2583.00000
17.77400	2576.00000
17.79100	2595.00000
17.80800	2622.00000
17.82500	2760.00000
17.84200	2598.00000
17.85900	2626.00000
17.87600	2577.00000
17.89300	2541.00000
17.91000	2564.00000
17.92700	2597.00000
17.94400	2563.00000
17.96100	2598.00000
17.97800	2623.00000
17.99500	2589.00000
18.01200	2645.00000
18.02900	2717.00000
18.04600	2574.00000
18.06300	2669.00000
18.08000	2752.00000
18.09700	2795.00000
18.11400	2735.00000
18.13100	2669.00000
18.14800	2717.00000
18.16500	2673.00000
18.18200	2599.00000
18.19900	2635.00000
18.21600	2675.00000
18.23300	2744.00000
18.25000	2791.00000
18.26700	2664.00000
18.28400	2685.00000
18.30100	2656.00000
18.31800	2613.00000
18.33500	2677.00000
18.35200	2628.00000
18.36900	2667.00000
18.38600	2638.00000
18.40300	2587.00000
18.42000	2605.00000
18.43700	2674.00000
18.45400	2573.00000
18.47100	2625.00000
18.48800	2765.00000
18.50500	2606.00000
18.52200	2650.00000
18.53900	2664.00000
18.55600	2769.00000
18.57300	2615.00000
18.59000	2634.00000
18.60700	2582.00000
18.62400	2691.00000
18.64100	2683.00000
18.65800	2706.00000
18.67500	2646.00000
18.69200	2588.00000
18.70900	2679.00000
18.72600	2691.00000
18.74300	2658.00000
18.76000	2707.00000
18.77700	2692.00000
18.79400	2540.00000
18.81100	2649.00000
18.82800	2762.00000
18.84500	2603.00000
18.86200	2651.00000
18.87900	2590.00000
18.89600	2531.00000
18.91300	2610.00000
18.93000	2636.00000
18.94700	2696.00000
18.96400	2728.00000
18.98100	2678.00000
18.99800	2544.00000
19.01500	2592.00000
19.03200	2618.00000
19.04900	2595.00000
19.06600	2610.00000
19.08300	2581.00000
19.10000	2658.00000
19.11700	2730.00000
19.13400	2680.00000
19.15100	2727.00000
19.16800	2716.00000
19.18500	2677.00000
19.20200	2754.00000
19.21900	2683.00000
19.23600	2668.00000
19.25300	2678.00000
19.27000	2656.00000
19.28700	2752.00000
19.30400	2747.00000
19.32100	2877.00000
19.33800	2730.00000
19.35500	2644.00000
19.37200	2732.00000
19.38900	2764.00000
19.40600	2738.00000
19.42300	2692.00000
19.44000	2833.00000
19.45700	2601.00000
19.47400	2768.00000
19.49100	2738.00000
19.50800	2780.00000
19.52500	2750.00000
19.54200	2807.00000
19.55900	2713.00000
19.57600	2681.00000
19.59300	2702.00000
19.61000	2768.00000
19.62700	2760.00000
19.64400	2722.00000
19.66100	2761.00000
19.67800	2846.00000
19.69500	2848.00000
19.71200	2771.00000
19.72900	2735.00000
19.74600	2780.00000
19.76300	2894.00000
19.78000	2782.00000
19.79700	2816.00000
19.81400	2698.00000
19.83100	2772.00000
19.84800	2727.00000
19.86500	2772.00000
19.88200	2735.00000
19.89900	2804.00000
19.91600	2748.00000
19.93300	2753.00000
19.95000	2779.00000
19.96700	2860.00000
19.98400	2783.00000
20.00100	2672.00000
20.01800	2765.00000
20.03500	2830.00000
20.05200	2792.00000
20.06900	2707.00000
20.08600	2804.00000
20.10300	2886.00000
20.12000	2730.00000
20.13700	2733.00000
20.15400	2780.00000
20.17100	2807.00000
20.18800	2803.00000
20.20500	2751.00000
20.22200	2705.00000
20.23900	2744.00000
20.25600	2746.00000
20.27300	2731.00000
20.29000	2700.00000
20.30700	2760.00000
20.32400	2801.00000
20.34100	2788.00000
20.35800	2690.00000
20.37500	2723.00000
20.39200	2812.00000
20.40900	2836.00000
20.42600	2764.00000
20.44300	2747.00000
20.46000	2822.00000
20.47700	2815.00000
20.49400	2804.00000
20.51100	2797.00000
20.52800	2923.00000
20.54500	2902.00000
20.56200	2953.00000
20.57900	2832.00000
20.59600	2896.00000
20.61300	2758.00000
20.63000	3038.00000
20.64700	2842.00000
20.66400	2855.00000
20.68100	2883.00000
20.69800	2868.00000
20.71500	2875.00000
20.73200	2775.00000
20.74900	2815.00000
20.76600	2819.00000
20.78300	2880.00000
20.80000	2802.00000
20.81700	2959.00000
20.83400	2928.00000
20.85100	2817.00000
20.86800	2925.00000
20.88500	2942.00000
20.90200	2962.00000
20.91900	2954.00000
20.93600	3006.00000
20.95300	2996.00000
20.97000	2885.00000
20.98700	2942.00000
21.00400	2953.00000
21.02100	2908.00000
21.03800	2963.00000
21.05500	2984.00000
21.07200	2991.00000
21.08900	2946.00000
21.10600	2903.00000
21.12300	2943.00000
21.14000	2934.00000
21.15700	2819.00000
21.17400	2750.00000
21.19100	2778.00000
21.20800	2825.00000
21.22500	2859.00000
21.24200	2867.00000
21.25900	2872.00000
21.27600	2839.00000
21.29300	2786.00000
21.31000	2911.00000
21.32700	2856.00000
21.34400	2928.00000
21.36100	2941.00000
21.37800	2907.00000
21.39500	2900.00000
21.41200	2903.00000
21.42900	2905.00000
21.44600	2836.00000
21.46300	2864.00000
21.48000	2989.00000
21.49700	2857.00000
21.51400	3005.00000
21.53100	2918.00000
21.54800	2953.00000
21.56500	2962.00000
21.58200	2937.00000
21.59900	2927.00000
21.61600	3028.00000
21.63300	3071.00000
21.65000	3072.00000
21.66700	2923.00000
21.68400	2882.00000
21.70100	3032.00000
21.71800	3012.00000
21.73500	3040.00000
21.75200	3027.00000
21.76900	2897.00000
21.78600	2950.00000
21.80300	2995.00000
21.82000	3044.00000
21.83700	2970.00000
21.85400	3032.00000
21.87100	3031.00000
21.88800	2972.00000
21.90500	2997.00000
21.92200	2981.00000
21.93900	2954.00000
21.95600	3017.00000
21.97300	3004.00000
21.99000	2963.00000
22.00700	2875.00000
22.02400	2902.00000
22.04100	3011.00000
22.05800	2957.00000
22.07500	3016.00000
22.09200	3060.00000
22.10900	2964.00000
22.12600	3076.00000
22.14300	3215.00000
22.16000	3149.00000
22.17700	3005.00000
22.19400	3001.00000
22.21100	2970.00000
22.22800	2941.00000
22.24500	3080.00000
22.26200	3013.00000
22.27900	3020.00000
22.29600	3043.00000
22.31300	3056.00000
22.33000	3105.00000
22.34700	3074.00000
22.36400	3113.00000
22.38100	3034.00000
22.39800	3044.00000
22.41500	3052.00000
22.43200	3192.00000
22.44900	3098.00000
22.46600	2905.00000
22.48300	2903.00000
22.50000	3090.00000
22.51700	2876.00000
22.53400	2915.00000
22.55100	3055.00000
22.56800	3095.00000
22.58500	3184.00000
22.60200	2975.00000
22.61900	2947.00000
22.63600	3093.00000
22.65300	3047.00000
22.67000	3077.00000
22.68700	3220.00000
22.70400	3053.00000
22.72100	3059.00000
22.73800	3117.00000
22.75500	2997.00000
22.77200	3028.00000
22.78900	3027.00000
22.80600	3034.00000
22.82300	3063.00000
22.84000	3034.00000
22.85700	3102.00000
22.87400	3057.00000
22.89100	3025.00000
22.90800	2996.00000
22.92500	3051.00000
22.94200	3175.00000
22.95900	3019.00000
22.97600	2978.00000
22.99300	3085.00000
23.01000	3010.00000
23.02700	2979.00000
23.04400	3051.00000
23.06100	3064.00000
23.07800	2964.00000
23.09500	2999.00000
23.11200	3099.00000
23.12900	3134.00000
23.14600	3071.00000
23.16300	3021.00000
23.18000	3093.00000
23.19700	3083.00000
23.21400	3104.00000
23.23100	3051.00000
23.24800	3008.00000
23.26500	3041.00000
23.28200	3077.00000
23.29900	3153.00000
23.31600	3090.00000
23.33300	3095.00000
23.35000	3058.00000
23.36700	3141.00000
23.38400	3102.00000
23.40100	3108.00000
23.41800	3059.00000
23.43500	3098.00000
23.45200	3063.00000
23.46900	3054.00000
23.48600	3091.00000
23.50300	3213.00000
23.52000	3148.00000
23.53700	3191.00000
23.55400	3135.00000
23.57100	3246.00000
23.58800	3219.00000
23.60500	3191.00000
23.62200	3186.00000
23.63900	3142.00000
23.65600	3049.00000
23.67300	3194.00000
23.69000	3290.00000
23.70700	3107.00000
23.72400	3133.00000
23.74100	3123.00000
23.75800	3170.00000
23.77500	3191.00000
23.79200	3250.00000
23.80900	3273.00000
23.82600	3258.00000
23.84300	3261.00000
23.86000	3276.00000
23.87700	3178.00000
23.89400	3310.00000
23.91100	3293.00000
23.92800	3254.00000
23.94500	3211.00000
23.96200	3183.00000
23.97900	3284.00000
23.99600	3177.00000
24.01300	3158.00000
24.03000	3286.00000
24.04700	3238.00000
24.06400	3193.00000
24.08100	3198.00000
24.09800	3182.00000
24.11500	3223.00000
24.13200	3261.00000
24.14900	3196.00000
24.16600	3195.00000
24.18300	3252.00000
24.20000	3254.00000
24.21700	3233.00000
24.23400	3107.00000
24.25100	3232.00000
24.26800	3246.00000
24.28500	3264.00000
24.30200	3155.00000
24.31900	3106.00000
24.33600	3201.00000
24.35300	3296.00000
24.37000	3277.00000
24.38700	3262.00000
24.40400	3282.00000
24.42100	3190.00000
24.43800	3241.00000
24.45500	3330.00000
24.47200	3325.00000
24.48900	3197.00000
24.50600	3204.00000
24.52300	3143.00000
24.54000	3177.00000
24.55700	3212.00000
24.57400	3142.00000
24.59100	3211.00000
24.60800	3220.00000
24.62500	3194.00000
24.64200	3221.00000
24.65900	3096.00000
24.67600	3208.00000
24.69300	3244.00000
24.71000	3243.00000
24.72700	3228.00000
24.74400	3286.00000
24.76100	3298.00000
24.77800	3254.00000
24.79500	3314.00000
24.81200	3351.00000
24.82900	3310.00000
24.84600	3303.00000
24.86300	3345.00000
24.88000	3345.00000
24.89700	3381.00000
24.91400	3351.00000
24.93100	3349.00000
24.94800	3360.00000
24.96500	3257.00000
24.98200	3242.00000
24.99900	3353.00000
25.01600	3362.00000
25.03300	3342.00000
25.05000	3387.00000
25.06700	3386.00000
25.08400	3393.00000
25.10100	3352.00000
25.11800	3451.00000
25.13500	3436.00000
25.15200	3441.00000
25.16900	3461.00000
25.18600	3501.00000
25.20300	3486.00000
25.22000	3510.00000
25.23700	3459.00000
25.25400	3421.00000
25.27100	3466.00000
25.28800	3444.00000
25.30500	3431.00000
25.32200	3468.00000
25.33900	3448.00000
25.35600	3397.00000
25.37300	3477.00000
25.39000	3513.00000
25.40700	3479.00000
25.42400	3383.00000
25.44100	3535.00000
25.45800	3658.00000
25.47500	3563.00000
25.49200	3523.00000
25.50900	3544.00000
25.52600	3438.00000
25.54300	3473.00000
25.56000	3529.00000
25.57700	3418.00000
25.59400	3556.00000
25.61100	3609.00000
25.62800	3663.00000
25.64500	3737.00000
25.66200	3873.00000
25.67900	3851.00000
25.69600	3867.00000
25.71300	3893.00000
25.73000	3918.00000
25.74700	3953.00000
25.76400	4018.00000
25.78100	3992.00000
25.79800	4016.00000
25.81500	4060.00000
25.83200	4050.00000
25.84900	4132.00000
25.86600	4157.00000
25.88300	4232.00000
25.90000	4349.00000
25.91700	4488.00000
25.93400	4620.00000
25.95100	4599.00000
25.96800	4689.00000
25.98500	4877.00000
26.00200	4863.00000
26.01900	5125.00000
26.03600	5304.00000
26.05300	5469.00000
26.07000	5710.00000
26.08700	6099.00000
26.10400	6795.00000
26.12100	7233.00000
26.13800	8045.00000
26.15500	9270.00000
26.17200	10637.00000
26.18900	12742.00000
26.20600	15862.00000
26.22300	19687.00000
26.24000	24249.00000
26.25700	29138.00000
26.27400	34383.00000
26.29100	40102.00000
26.30800	45880.00000
26.32500	50141.00000
26.34200	53589.00000
26.35900	53311.00000
26.37600	50008.00000
26.39300	44124.00000
26.41000	37487.00000
26.42700	30672.00000
26.44400	24632.00000
26.46100	18831.00000
26.47800	14996.00000
26.49500	12066.00000
26.51200	10143.00000
26.52900	8794.00000
26.54600	7775.00000
26.56300	7086.00000
26.58000	6527.00000
26.59700	6016.00000
26.61400	5870.00000
26.63100	5527.00000
26.64800	5185.00000
26.66500	4954.00000
26.68200	4907.00000
26.69900	4799.00000
26.71600	4695.00000
26.73300	4525.00000
26.75000	4304.00000
26.76700	4078.00000
26.78400	4083.00000
26.80100	4092.00000
26.81800	4094.00000
26.83500	3977.00000
26.85200	3835.00000
26.86900	3837.00000
26.88600	3858.00000
26.90300	3694.00000
26.92000	3688.00000
26.93700	3673.00000
26.95400	3694.00000
26.97100	3729.00000
26.98800	3675.00000
27.00500	3654.00000
27.02200	3770.00000
27.03900	3705.00000
27.05600	3716.00000
27.07300	3650.00000
27.09000	3497.00000
27.10700	3550.00000
27.12400	3472.00000
27.14100	3424.00000
27.15800	3510.00000
27.17500	3512.00000
27.19200	3576.00000
27.20900	3595.00000
27.22600	3500.00000
27.24300	3507.00000
27.26000	3468.00000
27.27700	3461.00000
27.29400	3465.00000
27.31100	3477.00000
27.32800	3275.00000
27.34500	3411.00000
27.36200	3505.00000
27.37900	3566.00000
27.39600	3404.00000
27.41300	3371.00000
27.43000	3508.00000
27.44700	3386.00000
27.46400	3393.00000
27.48100	3391.00000
27.49800	3474.00000
27.51500	3374.00000
27.53200	3312.00000
27.54900	3293.00000
27.56600	3274.00000
27.58300	3401.00000
27.60000	3260.00000
27.61700	3355.00000
27.63400	3313.00000
27.65100	3397.00000
27.66800	3323.00000
27.68500	3283.00000
27.70200	3287.00000
27.71900	3254.00000
27.73600	3328.00000
27.75300	3347.00000
27.77000	3365.00000
27.78700	3346.00000
27.80400	3218.00000
27.82100	3303.00000
27.83800	3279.00000
27.85500	3328.00000
27.87200	3328.00000
27.88900	3221.00000
27.90600	3378.00000
27.92300	3371.00000
27.94000	3169.00000
27.95700	3199.00000
27.97400	3237.00000
27.99100	3219.00000
28.00800	3239.00000
28.02500	3151.00000
28.04200	3182.00000
28.05900	3281.00000
28.07600	3222.00000
28.09300	3272.00000
28.11000	3196.00000
28.12700	3199.00000
28.14400	3326.00000
28.16100	3352.00000
28.17800	3221.00000
28.19500	3297.00000
28.21200	3324.00000
28.22900	3246.00000
28.24600	3280.00000
28.26300	3253.00000
28.28000	3337.00000
28.29700	3212.00000
28.31400	3147.00000
28.33100	3115.00000
28.34800	3085.00000
28.36500	3172.00000
28.38200	3179.00000
28.39900	3168.00000
28.41600	3100.00000
28.43300	3249.00000
28.45000	3187.00000
28.46700	3198.00000
28.48400	3211.00000
28.50100	3245.00000
28.51800	3195.00000
28.53500	3195.00000
28.55200	3134.00000
28.56900	3097.00000
28.58600	3186.00000
28.60300	3250.00000
28.62000	3253.00000
28.63700	3249.00000
28.65400	3265.00000
28.67100	3319.00000
28.68800	3226.00000
28.70500	3210.00000
28.72200	3219.00000
28.73900	3256.00000
28.75600	3279.00000
28.77300	3221.00000
28.79000	3315.00000
28.80700	3314.00000
28.82400	3192.00000
28.84100	3214.00000
28.85800	3242.00000
28.87500	3201.00000
28.89200	3158.00000
28.90900	3105.00000
28.92600	3069.00000
28.94300	3105.00000
28.96000	3136.00000
28.97700	3108.00000
28.99400	3103.00000
29.01100	3140.00000
29.02800	3119.00000
29.04500	3105.00000
29.06200	3207.00000
29.07900	3218.00000
29.09600	3146.00000
29.11300	3260.00000
29.13000	3212.00000
29.14700	3114.00000
29.16400	3214.00000
29.18100	3149.00000
29.19800	3121.00000
29.21500	3169.00000
29.23200	3187.00000
29.24900	3011.00000
29.26600	3211.00000
29.28300	3207.00000
29.30000	3099.00000
29.31700	3173.00000
29.33400	3121.00000
29.35100	3109.00000
29.36800	3104.00000
29.38500	3169.00000
29.40200	3152.00000
29.41900	3155.00000
29.43600	3115.00000
29.45300	3087.00000
29.47000	3189.00000
29.48700	3137.00000
29.50400	3210.00000
29.52100	3080.00000
29.53800	3063.00000
29.55500	3084.00000
29.57200	3086.00000
29.58900	3145.00000
29.60600	3286.00000
29.62300	3152.00000
29.64000	3291.00000
29.65700	3188.00000
29.67400	3131.00000
29.69100	3223.00000
29.70800	3097.00000
29.72500	3049.00000
29.74200	3090.00000
29.75900	3086.00000
29.77600	3097.00000
29.79300	3192.00000
29.81000	3218.00000
29.82700	3178.00000
29.84400	3147.00000
29.86100	3144.00000
29.87800	3135.00000
29.89500	3112.00000
29.91200	3114.00000
29.92900	3102.00000
29.94600	3153.00000
29.96300	3183.00000
29.98000	3205.00000
29.99700	3125.00000
30.01400	3045.00000
30.03100	3021.00000
30.04800	3043.00000
30.06500	2975.00000
30.08200	3033.00000
30.09900	3017.00000
30.11600	2957.00000
30.13300	3014.00000
30.15000	3027.00000
30.16700	3065.00000
30.18400	3083.00000
30.20100	3139.00000
30.21800	3071.00000
30.23500	3056.00000
30.25200	3077.00000
30.26900	3080.00000
30.28600	3081.00000
30.30300	3154.00000
30.32000	3085.00000
30.33700	2978.00000
30.35400	3057.00000
30.37100	3203.00000
30.38800	3075.00000
30.40500	3168.00000
30.42200	3070.00000
30.43900	3120.00000
30.45600	3075.00000
30.47300	3013.00000
30.49000	3119.00000
30.50700	3115.00000
30.52400	3094.00000
30.54100	3088.00000
30.55800	2982.00000
30.57500	3037.00000
30.59200	3068.00000
30.60900	3185.00000
30.62600	3040.00000
30.64300	3080.00000
30.66000	3122.00000
30.67700	3148.00000
30.69400	3117.00000
30.71100	3178.00000
30.72800	3054.00000
30.74500	3137.00000
30.76200	3194.00000
30.77900	3220.00000
30.79600	3156.00000
30.81300	3077.00000
30.83000	3127.00000
30.84700	3139.00000
30.86400	3132.00000
30.88100	3114.00000
30.89800	3192.00000
30.91500	3097.00000
30.93200	3038.00000
30.94900	3165.00000
30.96600	3118.00000
30.98300	3046.00000
31.00000	3060.00000
31.01700	3137.00000
31.03400	3179.00000
31.05100	3115.00000
31.06800	3131.00000
31.08500	3153.00000
31.10200	3207.00000
31.11900	3319.00000
31.13600	3193.00000
31.15300	3215.00000
31.17000	3157.00000
31.18700	3166.00000
31.20400	3022.00000
31.22100	3022.00000
31.23800	3041.00000
31.25500	3087.00000
31.27200	3111.00000
31.28900	3156.00000
31.30600	3074.00000
31.32300	3083.00000
31.34000	3227.00000
31.35700	2968.00000
31.37400	3107.00000
31.39100	3049.00000
31.40800	3089.00000
31.42500	3022.00000
31.44200	3016.00000
31.45900	3009.00000
31.47600	3081.00000
31.49300	3111.00000
31.51000	3111.00000
31.52700	3154.00000
31.54400	3073.00000
31.56100	3128.00000
31.57800	3057.00000
31.59500	3113.00000
31.61200	3068.00000
31.62900	3046.00000
31.64600	3086.00000
31.66300	3066.00000
31.68000	2996.00000
31.69700	2896.00000
31.71400	3127.00000
31.73100	3085.00000
31.74800	3086.00000
31.76500	3033.00000
31.78200	3080.00000
31.79900	3204.00000
31.81600	3110.00000
31.83300	3090.00000
31.85000	3098.00000
31.86700	2980.00000
31.88400	3073.00000
31.90100	3169.00000
31.91800	3139.00000
31.93500	3131.00000
31.95200	3048.00000
31.96900	3035.00000
31.98600	2989.00000
32.00300	2932.00000
32.02000	3046.00000
32.03700	3129.00000
32.05400	3101.00000
32.07100	3065.00000
32.08800	3101.00000
32.10500	3010.00000
32.12200	3142.00000
32.13900	3114.00000
32.15600	3132.00000
32.17300	3089.00000
32.19000	3053.00000
32.20700	3084.00000
32.22400	3035.00000
32.24100	3026.00000
32.25800	3061.00000
32.27500	3174.00000
32.29200	2989.00000
32.30900	3033.00000
32.32600	3086.00000
32.34300	3116.00000
32.36000	3128.00000
32.37700	3060.00000
32.39400	3119.00000
32.41100	3149.00000
32.42800	3141.00000
32.44500	3084.00000
32.46200	3143.00000
32.47900	3056.00000
32.49600	3058.00000
32.51300	3074.00000
32.53000	3050.00000
32.54700	3142.00000
32.56400	3146.00000
32.58100	3168.00000
32.59800	3148.00000
32.61500	3094.00000
32.63200	3011.00000
32.64900	3073.00000
32.66600	3122.00000
32.68300	3037.00000
32.70000	3132.00000
32.71700	3172.00000
32.73400	3200.00000
32.75100	3205.00000
32.76800	3130.00000
32.78500	3091.00000
32.80200	3069.00000
32.81900	3127.00000
32.83600	3171.00000
32.85300	3121.00000
32.87000	3082.00000
32.88700	3056.00000
32.90400	3008.00000
32.92100	2911.00000
32.93800	2990.00000
32.95500	3128.00000
32.97200	3108.00000
32.98900	3033.00000
33.00600	2973.00000
33.02300	3091.00000
33.04000	3144.00000
33.05700	3102.00000
33.07400	3067.00000
33.09100	3045.00000
33.10800	3114.00000
33.12500	3076.00000
33.14200	2995.00000
33.15900	3073.00000
33.17600	3099.00000
33.19300	3088.00000
33.21000	3213.00000
33.22700	3153.00000
33.24400	3158.00000
33.26100	3132.00000
33.27800	2937.00000
33.29500	2982.00000
33.31200	3088.00000
33.32900	3000.00000
33.34600	3074.00000
33.36300	3092.00000
33.38000	3120.00000
33.39700	3098.00000
33.41400	3077.00000
33.43100	3014.00000
33.44800	3093.00000
33.46500	3045.00000
33.48200	3120.00000
33.49900	3033.00000
33.51600	2973.00000
33.53300	3002.00000
33.55000	3037.00000
33.56700	3074.00000
33.58400	3080.00000
33.60100	3156.00000
33.61800	3125.00000
33.63500	2996.00000
33.65200	3004.00000
33.66900	3014.00000
33.68600	3017.00000
33.70300	3096.00000
33.72000	3100.00000
33.73700	3066.00000
33.75400	3065.00000
33.77100	3056.00000
33.78800	3061.00000
33.80500	3073.00000
33.82200	3072.00000
33.83900	3086.00000
33.85600	2994.00000
33.87300	3002.00000
33.89000	3157.00000
33.90700	3243.00000
33.92400	3226.00000
33.94100	3176.00000
33.95800	3140.00000
33.97500	3130.00000
33.99200	3108.00000
34.00900	3149.00000
34.02600	3070.00000
34.04300	3155.00000
34.06000	2955.00000
34.07700	2985.00000
34.09400	3081.00000
34.11100	3056.00000
34.12800	3000.00000
34.14500	3031.00000
34.16200	3083.00000
34.17900	2974.00000
34.19600	3092.00000
34.21300	3163.00000
34.23000	3094.00000
34.24700	3020.00000
34.26400	3061.00000
34.28100	3022.00000
34.29800	3093.00000
34.31500	3139.00000
34.33200	3160.00000
34.34900	3045.00000
34.36600	3142.00000
34.38300	3078.00000
34.40000	3136.00000
34.41700	3253.00000
34.43400	3125.00000
34.45100	3027.00000
34.46800	3027.00000
34.48500	3083.00000
34.50200	3123.00000
34.51900	3015.00000
34.53600	3038.00000
34.55300	3032.00000
34.57000	3022.00000
34.58700	3172.00000
34.60400	3112.00000
34.62100	3020.00000
34.63800	3003.00000
34.65500	3076.00000
34.67200	3078.00000
34.68900	3077.00000
34.70600	3071.00000
34.72300	3003.00000
34.74000	3030.00000
34.75700	2968.00000
34.77400	2977.00000
34.79100	3038.00000
34.80800	3020.00000
34.82500	2950.00000
34.84200	2933.00000
34.85900	2953.00000
34.87600	3008.00000
34.89300	2992.00000
34.91000	2980.00000
34.92700	2990.00000
34.94400	2985.00000
34.96100	3096.00000
34.97800	2965.00000
34.99500	2833.00000
35.01200	2905.00000
35.02900	2968.00000
35.04600	3016.00000
35.06300	3047.00000
35.08000	3020.00000
35.09700	3072.00000
35.11400	3021.00000
35.13100	2945.00000
35.14800	3031.00000
35.16500	3114.00000
35.18200	3036.00000
35.19900	2998.00000
35.21600	2942.00000
35.23300	3096.00000
35.25000	3115.00000
35.26700	3010.00000
35.28400	3005.00000
35.30100	2970.00000
35.31800	2879.00000
35.33500	2956.00000
35.35200	2967.00000
35.36900	3056.00000
35.38600	3083.00000
35.40300	3158.00000
35.42000	3116.00000
35.43700	3056.00000
35.45400	3011.00000
35.47100	2974.00000
35.48800	2920.00000
35.50500	3059.00000
35.52200	3187.00000
35.53900	3046.00000
35.55600	3046.00000
35.57300	2990.00000
35.59000	3039.00000
35.60700	2997.00000
35.62400	3057.00000
35.64100	3041.00000
35.65800	3072.00000
35.67500	2988.00000
35.69200	2966.00000
35.70900	3028.00000
35.72600	3057.00000
35.74300	3040.00000
35.76000	3022.00000
35.77700	2991.00000
35.79400	2996.00000
35.81100	2987.00000
35.82800	3010.00000
35.84500	3042.00000
35.86200	3029.00000
35.87900	2921.00000
35.89600	2945.00000
35.91300	2986.00000
35.93000	2969.00000
35.94700	3072.00000
35.96400	3062.00000
35.98100	3034.00000
35.99800	3040.00000
36.01500	3055.00000
36.03200	2996.00000
36.04900	3046.00000
36.06600	3070.00000
36.08300	2966.00000
36.10000	3053.00000
36.11700	3007.00000
36.13400	3114.00000
36.15100	3150.00000
36.16800	3184.00000
36.18500	2981.00000
36.20200	3056.00000
36.21900	3061.00000
36.23600	3129.00000
36.25300	2987.00000
36.27000	3059.00000
36.28700	3110.00000
36.30400	3070.00000
36.32100	3084.00000
36.33800	3007.00000
36.35500	3083.00000
36.37200	3137.00000
36.38900	3019.00000
36.40600	3135.00000
36.42300	3129.00000
36.44000	3138.00000
36.45700	3090.00000
36.47400	2980.00000
36.49100	3186.00000
36.50800	3085.00000
36.52500	3193.00000
36.54200	3210.00000
36.55900	3237.00000
36.57600	3192.00000
36.59300	3288.00000
36.61000	3331.00000
36.62700	3295.00000
36.64400	3374.00000
36.66100	3348.00000
36.67800	3372.00000
36.69500	3361.00000
36.71200	3375.00000
36.72900	3310.00000
36.74600	3374.00000
36.76300	3517.00000
36.78000	3556.00000
36.79700	3481.00000
36.81400	3490.00000
36.83100	3453.00000
36.84800	3352.00000
36.86500	3436.00000
36.88200	3417.00000
36.89900	3525.00000
36.91600	3565.00000
36.93300	3537.00000
36.95000	3633.00000
36.96700	3629.00000
36.98400	3626.00000
37.00100	3612.00000
37.01800	3681.00000
37.03500	3732.00000
37.05200	3705.00000
37.06900	3698.00000
37.08600	3753.00000
37.10300	3801.00000
37.12000	3999.00000
37.13700	4069.00000
37.15400	4120.00000
37.17100	4120.00000
37.18800	4192.00000
37.20500	4312.00000
37.22200	4450.00000
37.23900	4514.00000
37.25600	4786.00000
37.27300	4928.00000
37.29000	4954.00000
37.30700	5348.00000
37.32400	5595.00000
37.34100	6026.00000
37.35800	6523.00000
37.37500	6917.00000
37.39200	7707.00000
37.40900	8191.00000
37.42600	9140.00000
37.44300	10197.00000
37.46000	11930.00000
37.47700	14294.00000
37.49400	17604.00000
37.51100	21910.00000
37.52800	27920.00000
37.54500	34306.00000
37.56200	41160.00000
37.57900	48880.00000
37.59600	54304.00000
37.61300	56906.00000
37.63000	56762.00000
37.64700	52747.00000
37.66400	48430.00000
37.68100	43962.00000
37.69800	38604.00000
37.71500	33263.00000
37.73200	27634.00000
37.74900	22369.00000
37.76600	18034.00000
37.78300	14812.00000
37.80000	12475.00000
37.81700	10783.00000
37.83400	9330.00000
37.85100	8292.00000
37.86800	7439.00000
37.88500	6736.00000
37.90200	6277.00000
37.91900	5916.00000
37.93600	5554.00000
37.95300	5297.00000
37.97000	5022.00000
37.98700	4796.00000
38.00400	4596.00000
38.02100	4399.00000
38.03800	4242.00000
38.05500	4240.00000
38.07200	4065.00000
38.08900	4173.00000
38.10600	4205.00000
38.12300	4063.00000
38.14000	4011.00000
38.15700	3919.00000
38.17400	3864.00000
38.19100	3747.00000
38.20800	3688.00000
38.22500	3601.00000
38.24200	3673.00000
38.25900	3638.00000
38.27600	3546.00000
38.29300	3573.00000
38.31000	3516.00000
38.32700	3452.00000
38.34400	3477.00000
38.36100	3438.00000
38.37800	3478.00000
38.39500	3364.00000
38.41200	3369.00000
38.42900	3287.00000
38.44600	3300.00000
38.46300	3302.00000
38.48000	3314.00000
38.49700	3301.00000
38.51400	3487.00000
38.53100	3317.00000
38.54800	3364.00000
38.56500	3337.00000
38.58200	3324.00000
38.59900	3431.00000
38.61600	3342.00000
38.63300	3208.00000
38.65000	3273.00000
38.66700	3315.00000
38.68400	3127.00000
38.70100	3126.00000
38.71800	3161.00000
38.73500	3174.00000
38.75200	3205.00000
38.76900	3125.00000
38.78600	3172.00000
38.80300	3284.00000
38.82000	3275.00000
38.83700	3209.00000
38.85400	3287.00000
38.87100	3271.00000
38.88800	3163.00000
38.90500	3163.00000
38.92200	3178.00000
38.93900	3067.00000
38.95600	3156.00000
38.97300	3164.00000
38.99000	3016.00000
39.00700	3155.00000
39.02400	3179.00000
39.04100	3154.00000
39.05800	3036.00000
39.07500	3113.00000
39.09200	3169.00000
39.10900	3130.00000
39.12600	3155.00000
39.14300	3188.00000
39.16000	3231.00000
39.17700	3114.00000
39.19400	3086.00000
39.21100	3072.00000
39.22800	3179.00000
39.24500	3160.00000
39.26200	3310.00000
39.27900	3072.00000
39.29600	3191.00000
39.31300	3310.00000
39.33000	3152.00000
39.34700	3068.00000
39.36400	3088.00000
39.38100	3058.00000
39.39800	3060.00000
39.41500	3104.00000
39.43200	3096.00000
39.44900	3072.00000
39.46600	3036.00000
39.48300	3058.00000
39.50000	3016.00000
39.51700	2997.00000
39.53400	3066.00000
39.55100	3124.00000
39.56800	3153.00000
39.58500	3040.00000
39.60200	3072.00000
39.61900	3009.00000
39.63600	2965.00000
39.65300	3020.00000
39.67000	3024.00000
39.68700	3133.00000
39.70400	3076.00000
39.72100	3019.00000
39.73800	3076.00000
39.75500	3049.00000
39.77200	2975.00000
39.78900	3013.00000
39.80600	3052.00000
39.82300	3033.00000
39.84000	3081.00000
39.85700	3167.00000
39.87400	3075.00000
39.89100	3061.00000
39.90800	3027.00000
39.92500	3055.00000
39.94200	3109.00000
39.95900	3080.00000
39.97600	3058.00000
39.99300	3130.00000
40.01000	3146.00000
40.02700	3044.00000
40.04400	3002.00000
40.06100	3050.00000
40.07800	2943.00000
40.09500	2975.00000
40.11200	3087.00000
40.12900	3092.00000
40.14600	3020.00000
40.16300	3013.00000
40.18000	2961.00000
40.19700	3043.00000
40.21400	3001.00000
40.23100	3042.00000
40.24800	2981.00000
40.26500	3025.00000
40.28200	3032.00000
40.29900	3106.00000
40.31600	3078.00000
40.33300	3050.00000
40.35000	3103.00000
40.36700	3034.00000
40.38400	3007.00000
40.40100	2958.00000
40.41800	2996.00000
40.43500	3072.00000
40.45200	3037.00000
40.46900	2948.00000
40.48600	3148.00000
40.50300	3065.00000
40.52000	3016.00000
40.53700	3066.00000
40.55400	3055.00000
40.57100	3017.00000
40.58800	3022.00000
40.60500	3016.00000
40.62200	2966.00000
40.63900	2961.00000
40.65600	3008.00000
40.67300	3036.00000
40.69000	3024.00000
40.70700	3042.00000
40.72400	2982.00000
40.74100	3041.00000
40.75800	3129.00000
40.77500	3096.00000
40.79200	2985.00000
40.80900	3023.00000
40.82600	3025.00000
40.84300	2994.00000
40.86000	3008.00000
40.87700	2989.00000
40.89400	2999.00000
40.91100	3020.00000
40.92800	3058.00000
40.94500	2988.00000
40.96200	2959.00000
40.97900	2961.00000
40.99600	3005.00000
41.01300	3056.00000
41.03000	2860.00000
41.04700	2968.00000
41.06400	2948.00000
41.08100	2902.00000
41.09800	2918.00000
41.11500	3000.00000
41.13200	2858.00000
41.14900	2964.00000
41.16600	2992.00000
41.18300	2830.00000
41.20000	2969.00000
41.21700	2988.00000
41.23400	2948.00000
41.25100	2931.00000
41.26800	2972.00000
41.28500	2946.00000
41.30200	3024.00000
41.31900	2929.00000
41.33600	3010.00000
41.35300	2997.00000
41.37000	3019.00000
41.38700	3044.00000
41.40400	2970.00000
41.42100	2974.00000
41.43800	2903.00000
41.45500	2958.00000
41.47200	3007.00000
41.48900	2995.00000
41.50600	3066.00000
41.52300	2959.00000
41.54000	2951.00000
41.55700	2994.00000
41.57400	3001.00000
41.59100	2960.00000
41.60800	2994.00000
41.62500	3003.00000
41.64200	2946.00000
41.65900	2923.00000
41.67600	3035.00000
41.69300	3020.00000
41.71000	2893.00000
41.72700	2927.00000
41.74400	2970.00000
41.76100	2907.00000
41.77800	2955.00000
41.79500	2999.00000
41.81200	2957.00000
41.82900	3027.00000
41.84600	3101.00000
41.86300	2944.00000
41.88000	2908.00000
41.89700	2972.00000
41.91400	2923.00000
41.93100	2919.00000
41.94800	3028.00000
41.96500	2998.00000
41.98200	3016.00000
41.99900	3163.00000
42.01600	2930.00000
42.03300	2849.00000
42.05000	2879.00000
42.06700	3168.00000
42.08400	3020.00000
42.10100	3049.00000
42.11800	3010.00000
42.13500	2959.00000
42.15200	2985.00000
42.16900	3071.00000
42.18600	3136.00000
42.20300	3202.00000
42.22000	3125.00000
42.23700	3112.00000
42.25400	3147.00000
42.27100	3283.00000
42.28800	3030.00000
42.30500	3066.00000
42.32200	3032.00000
42.33900	3064.00000
42.35600	3019.00000
42.37300	3149.00000
42.39000	3024.00000
42.40700	2958.00000
42.42400	3051.00000
42.44100	3063.00000
42.45800	2903.00000
42.47500	2966.00000
42.49200	2923.00000
42.50900	2985.00000
42.52600	3013.00000
42.54300	2852.00000
42.56000	2849.00000
42.57700	2947.00000
42.59400	3006.00000
42.61100	2999.00000
42.62800	2995.00000
42.64500	3006.00000
42.66200	2984.00000
42.67900	2932.00000
42.69600	2956.00000
42.71300	2955.00000
42.73000	2980.00000
42.74700	3015.00000
42.76400	2975.00000
42.78100	2992.00000
42.79800	2972.00000
42.81500	3036.00000
42.83200	3108.00000
42.84900	3120.00000
42.86600	3047.00000
42.88300	3010.00000
42.90000	3079.00000
42.91700	3014.00000
42.93400	3037.00000
42.95100	3070.00000
42.96800	3071.00000
42.98500	3181.00000
43.00200	3098.00000
43.01900	3057.00000
43.03600	3067.00000
43.05300	3071.00000
43.07000	3114.00000
43.08700	3057.00000
43.10400	3005.00000
43.12100	3047.00000
43.13800	2964.00000
43.15500	3032.00000
43.17200	3042.00000
43.18900	3098.00000
43.20600	2911.00000
43.22300	2964.00000
43.24000	3004.00000
43.25700	3079.00000
43.27400	3012.00000
43.29100	3056.00000
43.30800	3150.00000
43.32500	3015.00000
43.34200	2989.00000
43.35900	2937.00000
43.37600	2936.00000
43.39300	3028.00000
43.41000	3065.00000
43.42700	3090.00000
43.44400	3075.00000
43.46100	3085.00000
43.47800	3107.00000
43.49500	2993.00000
43.51200	2977.00000
43.52900	2996.00000
43.54600	3003.00000
43.56300	2892.00000
43.58000	2989.00000
43.59700	3049.00000
43.61400	2876.00000
43.63100	2969.00000
43.64800	3034.00000
43.66500	3002.00000
43.68200	2945.00000
43.69900	3047.00000
43.71600	3034.00000
43.73300	2949.00000
43.75000	2976.00000
43.76700	2979.00000
43.78400	3005.00000
43.80100	2933.00000
43.81800	2951.00000
43.83500	3016.00000
43.85200	3015.00000
43.86900	3035.00000
43.88600	3037.00000
43.90300	3008.00000
43.92000	2978.00000
43.93700	3000.00000
43.95400	3030.00000
43.97100	2964.00000
43.98800	3035.00000
44.00500	2983.00000
44.02200	2989.00000
44.03900	3041.00000
44.05600	3037.00000
44.07300	3057.00000
44.09000	3147.00000
44.10700	3059.00000
44.12400	2975.00000
44.14100	3146.00000
44.15800	3106.00000
44.17500	3129.00000
44.19200	3145.00000
44.20900	3130.00000
44.22600	3052.00000
44.24300	3112.00000
44.26000	3078.00000
44.27700	3090.00000
44.29400	3057.00000
44.31100	3036.00000
44.32800	3145.00000
44.34500	3205.00000
44.36200	3136.00000
44.37900	3160.00000
44.39600	3175.00000
44.41300	3248.00000
44.43000	3231.00000
44.44700	3363.00000
44.46400	3371.00000
44.48100	3373.00000
44.49800	3290.00000
44.51500	3273.00000
44.53200	3279.00000
44.54900	3130.00000
44.56600	3134.00000
44.58300	3193.00000
44.60000	3217.00000
44.61700	3149.00000
44.63400	3145.00000
44.65100	3091.00000
44.66800	3084.00000
44.68500	3065.00000
44.70200	3051.00000
44.71900	3107.00000
44.73600	3056.00000
44.75300	3139.00000
44.77000	3168.00000
44.78700	3005.00000
44.80400	2916.00000
44.82100	2902.00000
44.83800	2976.00000
44.85500	2963.00000
44.87200	2987.00000
44.88900	3092.00000
44.90600	3163.00000
44.92300	3083.00000
44.94000	3009.00000
44.95700	3052.00000
44.97400	3103.00000
44.99100	3054.00000
45.00800	2943.00000
45.02500	3110.00000
45.04200	3067.00000
45.05900	3054.00000
45.07600	3011.00000
45.09300	3020.00000
45.11000	2883.00000
45.12700	2869.00000
45.14400	2890.00000
45.16100	2915.00000
45.17800	2939.00000
45.19500	2924.00000
45.21200	2948.00000
45.22900	2952.00000
45.24600	2891.00000
45.26300	2829.00000
45.28000	2964.00000
45.29700	2994.00000
45.31400	2981.00000
45.33100	2994.00000
45.34800	2949.00000
45.36500	3079.00000
45.38200	2892.00000
45.39900	2868.00000
45.41600	2863.00000
45.43300	2889.00000
45.45000	2875.00000
45.46700	2899.00000
45.48400	2940.00000
45.50100	2883.00000
45.51800	2926.00000
45.53500	3004.00000
45.55200	2924.00000
45.56900	2925.00000
45.58600	2983.00000
45.60300	3005.00000
45.62000	3035.00000
45.63700	3100.00000
45.65400	2999.00000
45.67100	2948.00000
45.68800	3071.00000
45.70500	3038.00000
45.72200	2951.00000
45.73900	3096.00000
45.75600	3066.00000
45.77300	3028.00000
45.79000	2967.00000
45.80700	2983.00000
45.82400	3008.00000
45.84100	3024.00000
45.85800	3034.00000
45.87500	3083.00000
45.89200	3069.00000
45.90900	3035.00000
45.92600	3112.00000
45.94300	3048.00000
45.96000	3102.00000
45.97700	2999.00000
45.99400	2983.00000
46.01100	3009.00000
46.02800	3161.00000
46.04500	3072.00000
46.06200	3071.00000
46.07900	3079.00000
46.09600	2994.00000
46.11300	2913.00000
46.13000	3044.00000
46.14700	2974.00000
46.16400	3134.00000
46.18100	2983.00000
46.19800	2875.00000
46.21500	2984.00000
46.23200	2992.00000
46.24900	2972.00000
46.26600	2997.00000
46.28300	3016.00000
46.30000	3141.00000
46.31700	3173.00000
46.33400	3145.00000
46.35100	3196.00000
46.36800	3139.00000
46.38500	3273.00000
46.40200	3311.00000
46.41900	3453.00000
46.43600	3552.00000
46.45300	3698.00000
46.47000	3837.00000
46.48700	3994.00000
46.50400	4131.00000
46.52100	4114.00000
46.53800	4056.00000
46.55500	4028.00000
46.57200	3982.00000
46.58900	3847.00000
46.60600	3843.00000
46.62300	3757.00000
46.64000	3587.00000
46.65700	3468.00000
46.67400	3395.00000
46.69100	3408.00000
46.70800	3271.00000
46.72500	3236.00000
46.74200	3274.00000
46.75900	3183.00000
46.77600	3101.00000
46.79300	3100.00000
46.81000	3067.00000
46.82700	3045.00000
46.84400	3094.00000
46.86100	2982.00000
46.87800	3016.00000
46.89500	3010.00000
46.91200	2952.00000
46.92900	3096.00000
46.94600	2952.00000
46.96300	3023.00000
46.98000	2998.00000
46.99700	3028.00000
47.01400	2975.00000
47.03100	2983.00000
47.04800	3111.00000
47.06500	3101.00000
47.08200	3082.00000
47.09900	3011.00000
47.11600	2999.00000
47.13300	2990.00000
47.15000	2941.00000
47.16700	2934.00000
47.18400	3074.00000
47.20100	2886.00000
47.21800	2996.00000
47.23500	3086.00000
47.25200	3117.00000
47.26900	2985.00000
47.28600	3001.00000
47.30300	2855.00000
47.32000	2761.00000
47.33700	2916.00000
47.35400	3055.00000
47.37100	2970.00000
47.38800	2960.00000
47.40500	2952.00000
47.42200	2968.00000
47.43900	2977.00000
47.45600	2969.00000
47.47300	2897.00000
47.49000	2856.00000
47.50700	2840.00000
47.52400	2844.00000
47.54100	2916.00000
47.55800	2930.00000
47.57500	2947.00000
47.59200	2958.00000
47.60900	3008.00000
47.62600	2953.00000
47.64300	2933.00000
47.66000	2991.00000
47.67700	3027.00000
47.69400	2916.00000
47.71100	2925.00000
47.72800	2986.00000
47.74500	2937.00000
47.76200	2984.00000
47.77900	2968.00000
47.79600	3000.00000
47.81300	2889.00000
47.83000	3024.00000
47.84700	3031.00000
47.86400	2891.00000
47.88100	2884.00000
47.89800	2958.00000
47.91500	2913.00000
47.93200	2891.00000
47.94900	2795.00000
47.96600	2938.00000
47.98300	3018.00000
48.00000	2796.00000
48.01700	2983.00000
48.03400	2950.00000
48.05100	2808.00000
48.06800	2923.00000
48.08500	2950.00000
48.10200	2861.00000
48.11900	2849.00000
48.13600	2802.00000
48.15300	2883.00000
48.17000	2943.00000
48.18700	2869.00000
48.20400	2899.00000
48.22100	2978.00000
48.23800	2969.00000
48.25500	3011.00000
48.27200	2936.00000
48.28900	2829.00000
48.30600	2843.00000
48.32300	2721.00000
48.34000	2921.00000
48.35700	2926.00000
48.37400	2896.00000
48.39100	2949.00000
48.40800	2924.00000
48.42500	2932.00000
48.44200	2920.00000
48.45900	2939.00000
48.47600	2912.00000
48.49300	2859.00000
48.51000	2830.00000
48.52700	2851.00000
48.54400	2921.00000
48.56100	2909.00000
48.57800	2947.00000
48.59500	2926.00000
48.61200	2855.00000
48.62900	2903.00000
48.64600	2929.00000
48.66300	2954.00000
48.68000	2869.00000
48.69700	2795.00000
48.71400	2896.00000
48.73100	2945.00000
48.74800	2923.00000
48.76500	2962.00000
48.78200	3003.00000
48.79900	3014.00000
48.81600	2981.00000
48.83300	2924.00000
48.85000	2922.00000
48.86700	2903.00000
48.88400	2910.00000
48.90100	2911.00000
48.91800	2932.00000
48.93500	2858.00000
48.95200	2937.00000
48.96900	2924.00000
48.98600	2976.00000
49.00300	2961.00000
49.02000	3017.00000
49.03700	2886.00000
49.05400	2964.00000
49.07100	2839.00000
49.08800	2922.00000
49.10500	2978.00000
49.12200	2861.00000
49.13900	2857.00000
49.15600	2962.00000
49.17300	2838.00000
49.19000	2898.00000
49.20700	2801.00000
49.22400	2921.00000
49.24100	3001.00000
49.25800	2973.00000
49.27500	2908.00000
49.29200	2976.00000
49.30900	2783.00000
49.32600	2827.00000
49.34300	2987.00000
49.36000	2955.00000
49.37700	2909.00000
49.39400	2859.00000
49.41100	2914.00000
49.42800	2893.00000
49.44500	2852.00000
49.46200	2912.00000
49.47900	2943.00000
49.49600	2909.00000
49.51300	2922.00000
49.53000	2951.00000
49.54700	2853.00000
49.56400	2921.00000
49.58100	2974.00000
49.59800	3012.00000
49.61500	2953.00000
49.63200	2968.00000
49.64900	2960.00000
49.66600	2970.00000
49.68300	2982.00000
49.70000	2896.00000
49.71700	2914.00000
49.73400	2949.00000
49.75100	2938.00000
49.76800	2979.00000
49.78500	2953.00000
49.80200	2928.00000
49.81900	2916.00000
49.83600	3015.00000
49.85300	2904.00000
49.87000	2922.00000
49.88700	2964.00000
49.90400	2943.00000
49.92100	2846.00000
49.93800	2857.00000
49.95500	2939.00000
49.97200	2820.00000
49.98900	2850.00000
50.00600	2849.00000
50.02300	2762.00000
50.04000	2933.00000
50.05700	2883.00000
50.07400	2850.00000
50.09100	2910.00000
50.10800	2961.00000
50.12500	2797.00000
50.14200	2899.00000
50.15900	2947.00000
50.17600	2960.00000
50.19300	2960.00000
50.21000	3040.00000
50.22700	2966.00000
50.24400	3002.00000
50.26100	2904.00000
50.27800	2964.00000
50.29500	2920.00000
50.31200	2946.00000
50.32900	2980.00000
50.34600	3010.00000
50.36300	2909.00000
50.38000	3049.00000
50.39700	3035.00000
50.41400	3082.00000
50.43100	2968.00000
50.44800	3044.00000
50.46500	3050.00000
50.48200	3001.00000
50.49900	3136.00000
50.51600	3121.00000
50.53300	3059.00000
50.55000	3107.00000
50.56700	3064.00000
50.58400	3074.00000
50.60100	3009.00000
50.61800	2977.00000
50.63500	2981.00000
50.65200	3090.00000
50.66900	3033.00000
50.68600	3048.00000
50.70300	3067.00000
50.72000	3024.00000
50.73700	3051.00000
50.75400	3019.00000
50.77100	3000.00000
50.78800	3015.00000
50.80500	2965.00000
50.82200	3027.00000
50.83900	2988.00000
50.85600	3004.00000
50.87300	2912.00000
50.89000	2880.00000
50.90700	3042.00000
50.92400	2930.00000
50.94100	2950.00000
50.95800	3000.00000
50.97500	2956.00000
50.99200	3029.00000
51.00900	3082.00000
51.02600	3038.00000
51.04300	2953.00000
51.06000	2943.00000
51.07700	2872.00000
51.09400	3032.00000
51.11100	2982.00000
51.12800	2973.00000
51.14500	2975.00000
51.16200	2933.00000
51.17900	2885.00000
51.19600	2911.00000
51.21300	3150.00000
51.23000	3043.00000
51.24700	2865.00000
51.26400	2899.00000
51.28100	2957.00000
51.29800	2928.00000
51.31500	2941.00000
51.33200	2835.00000
51.34900	2947.00000
51.36600	2921.00000
51.38300	2887.00000
51.40000	2931.00000
51.41700	2911.00000
51.43400	3014.00000
51.45100	2930.00000
51.46800	2969.00000
51.48500	2959.00000
51.50200	3008.00000
51.51900	2981.00000
51.53600	2956.00000
51.55300	2983.00000
51.57000	2996.00000
51.58700	2968.00000
51.60400	2904.00000
51.62100	2760.00000
51.63800	2853.00000
51.65500	2819.00000
51.67200	2853.00000
51.68900	2912.00000
51.70600	2855.00000
51.72300	2932.00000
51.74000	2995.00000
51.75700	2874.00000
51.77400	2891.00000
51.79100	2921.00000
51.80800	2942.00000
51.82500	2933.00000
51.84200	2967.00000
51.85900	2942.00000
51.87600	2946.00000
51.89300	2981.00000
51.91000	2945.00000
51.92700	2993.00000
51.94400	3020.00000
51.96100	2824.00000
51.97800	2872.00000
51.99500	3029.00000
52.01200	2933.00000
52.02900	2935.00000
52.04600	2956.00000
52.06300	2869.00000
52.08000	2882.00000
52.09700	2959.00000
52.11400	2997.00000
52.13100	2918.00000
52.14800	2791.00000
52.16500	2856.00000
52.18200	2924.00000
52.19900	3022.00000
52.21600	2803.00000
52.23300	2834.00000
52.25000	2906.00000
52.26700	2926.00000
52.28400	3022.00000
52.30100	2915.00000
52.31800	2947.00000
52.33500	3024.00000
52.35200	3052.00000
52.36900	2985.00000
52.38600	2933.00000
52.40300	2944.00000
52.42000	2925.00000
52.43700	2854.00000
52.45400	2894.00000
52.47100	2970.00000
52.48800	3064.00000
52.50500	2917.00000
52.52200	2991.00000
52.53900	2995.00000
52.55600	2894.00000
52.57300	2814.00000
52.59000	2900.00000
52.60700	3094.00000
52.62400	2996.00000
52.64100	2902.00000
52.65800	2998.00000
52.67500	2914.00000
52.69200	2863.00000
52.70900	2898.00000
52.72600	2944.00000
52.74300	2925.00000
52.76000	2892.00000
52.77700	2838.00000
52.79400	2884.00000
52.81100	2982.00000
52.82800	2908.00000
52.84500	2949.00000
52.86200	2950.00000
52.87900	3063.00000
52.89600	3105.00000
52.91300	3104.00000
52.93000	2994.00000
52.94700	3090.00000
52.96400	3085.00000
52.98100	3003.00000
52.99800	2987.00000
53.01500	2993.00000
53.03200	2994.00000
53.04900	3061.00000
53.06600	2860.00000
53.08300	3061.00000
53.10000	3140.00000
53.11700	2999.00000
53.13400	3171.00000
53.15100	2880.00000
53.16800	2858.00000
53.18500	3106.00000
53.20200	3142.00000
53.21900	3175.00000
53.23600	3061.00000
53.25300	3098.00000
53.27000	3046.00000
53.28700	3077.00000
53.30400	3073.00000
53.32100	3231.00000
53.33800	3093.00000
53.35500	3105.00000
53.37200	3050.00000
53.38900	3196.00000
53.40600	3204.00000
53.42300	3126.00000
53.44000	3126.00000
53.45700	3074.00000
53.47400	3205.00000
53.49100	3274.00000
53.50800	3204.00000
53.52500	3135.00000
53.54200	3173.00000
53.55900	3193.00000
53.57600	3177.00000
53.59300	3126.00000
53.61000	3252.00000
53.62700	3151.00000
53.64400	3208.00000
53.66100	3258.00000
53.67800	3185.00000
53.69500	3312.00000
53.71200	3310.00000
53.72900	3300.00000
53.74600	3444.00000
53.76300	3344.00000
53.78000	3377.00000
53.79700	3444.00000
53.81400	3383.00000
53.83100	3394.00000
53.84800	3582.00000
53.86500	3679.00000
53.88200	3770.00000
53.89900	3845.00000
53.91600	3953.00000
53.93300	4029.00000
53.95000	4131.00000
53.96700	4243.00000
53.98400	4400.00000
54.00100	4603.00000
54.01800	4955.00000
54.03500	5021.00000
54.05200	5333.00000
54.06900	5705.00000
54.08600	6079.00000
54.10300	6710.00000
54.12000	7454.00000
54.13700	8433.00000
54.15400	9609.00000
54.17100	11216.00000
54.18800	13193.00000
54.20500	15495.00000
54.22200	17354.00000
54.23900	18923.00000
54.25600	19802.00000
54.27300	19818.00000
54.29000	18959.00000
54.30700	18288.00000
54.32400	17348.00000
54.34100	16505.00000
54.35800	15980.00000
54.37500	15207.00000
54.39200	14169.00000
54.40900	12936.00000
54.42600	11696.00000
54.44300	10446.00000
54.46000	9213.00000
54.47700	8076.00000
54.49400	7013.00000
54.51100	6502.00000
54.52800	5965.00000
54.54500	5616.00000
54.56200	5209.00000
54.57900	4905.00000
54.59600	4751.00000
54.61300	4435.00000
54.63000	4352.00000
54.64700	4196.00000
54.66400	4077.00000
54.68100	3984.00000
54.69800	3843.00000
54.71500	3718.00000
54.73200	3670.00000
54.74900	3655.00000
54.76600	3457.00000
54.78300	3388.00000
54.80000	3444.00000
54.81700	3540.00000
54.83400	3470.00000
54.85100	3412.00000
54.86800	3326.00000
54.88500	3363.00000
54.90200	3244.00000
54.91900	3209.00000
54.93600	3262.00000
54.95300	3300.00000
54.97000	3339.00000
54.98700	3393.00000
55.00400	3322.00000
55.02100	3359.00000
55.03800	3374.00000
55.05500	3173.00000
55.07200	3102.00000
55.08900	3250.00000
55.10600	3190.00000
55.12300	3102.00000
55.14000	3046.00000
55.15700	3106.00000
55.17400	3126.00000
55.19100	3092.00000
55.20800	3108.00000
55.22500	3128.00000
55.24200	3189.00000
55.25900	2986.00000
55.27600	2994.00000
55.29300	3011.00000
55.31000	3075.00000
55.32700	3017.00000
55.34400	3039.00000
55.36100	2988.00000
55.37800	3139.00000
55.39500	3009.00000
55.41200	2908.00000
55.42900	2991.00000
55.44600	3073.00000
55.46300	3003.00000
55.48000	3007.00000
55.49700	3035.00000
55.51400	2968.00000
55.53100	3018.00000
55.54800	2950.00000
55.56500	2971.00000
55.58200	2952.00000
55.59900	2992.00000
55.61600	3015.00000
55.63300	2930.00000
55.65000	2930.00000
55.66700	2944.00000
55.68400	2939.00000
55.70100	2957.00000
55.71800	2993.00000
55.73500	3077.00000
55.75200	3035.00000
55.76900	2949.00000
55.78600	2892.00000
55.80300	2905.00000
55.82000	2896.00000
55.83700	3004.00000
55.85400	2833.00000
55.87100	2938.00000
55.88800	3007.00000
55.90500	3022.00000
55.92200	3060.00000
55.93900	3017.00000
55.95600	2967.00000
55.97300	2870.00000
55.99000	3025.00000
56.00700	2896.00000
56.02400	2962.00000
56.04100	2843.00000
56.05800	2894.00000
56.07500	2901.00000
56.09200	2922.00000
56.10900	3053.00000
56.12600	2970.00000
56.14300	3016.00000
56.16000	2951.00000
56.17700	2876.00000
56.19400	2902.00000
56.21100	2863.00000
56.22800	2893.00000
56.24500	2874.00000
56.26200	2862.00000
56.27900	2930.00000
56.29600	3061.00000
56.31300	2916.00000
56.33000	2917.00000
56.34700	3101.00000
56.36400	2987.00000
56.38100	2903.00000
56.39800	3008.00000
56.41500	3007.00000
56.43200	2970.00000
56.44900	3050.00000
56.46600	3008.00000
56.48300	2925.00000
56.50000	2907.00000
56.51700	2942.00000
56.53400	2899.00000
56.55100	2932.00000
56.56800	2899.00000
56.58500	2990.00000
56.60200	2975.00000
56.61900	2890.00000
56.63600	2957.00000
56.65300	2929.00000
56.67000	2916.00000
56.68700	2870.00000
56.70400	2961.00000
56.72100	2989.00000
56.73800	2952.00000
56.75500	2865.00000
56.77200	2877.00000
56.78900	2959.00000
56.80600	2948.00000
56.82300	2949.00000
56.84000	3093.00000
56.85700	2910.00000
56.87400	2913.00000
56.89100	3053.00000
56.90800	3023.00000
56.92500	2980.00000
56.94200	3068.00000
56.95900	3000.00000
56.97600	3004.00000
56.99300	2962.00000
57.01000	2909.00000
57.02700	2943.00000
57.04400	2968.00000
57.06100	2950.00000
57.07800	3054.00000
57.09500	2964.00000
57.11200	2896.00000
57.12900	2995.00000
57.14600	2994.00000
57.16300	2996.00000
57.18000	2938.00000
57.19700	2886.00000
57.21400	3024.00000
57.23100	3022.00000
57.24800	2923.00000
57.26500	2987.00000
57.28200	2964.00000
57.29900	2974.00000
57.31600	2970.00000
57.33300	2946.00000
57.35000	2829.00000
57.36700	2924.00000
57.38400	2975.00000
57.40100	2952.00000
57.41800	2968.00000
57.43500	2896.00000
57.45200	2754.00000
57.46900	2832.00000
57.48600	2935.00000
57.50300	2853.00000
57.52000	2883.00000
57.53700	2870.00000
57.55400	2895.00000
57.57100	3042.00000
57.58800	2933.00000
57.60500	2889.00000
57.62200	2939.00000
57.63900	2998.00000
57.65600	3061.00000
57.67300	2820.00000
57.69000	3010.00000
57.70700	3103.00000
57.72400	3048.00000
57.74100	2915.00000
57.75800	2915.00000
57.77500	2984.00000
57.79200	2831.00000
57.80900	2919.00000
57.82600	3143.00000
57.84300	3011.00000
57.86000	2938.00000
57.87700	2880.00000
57.89400	3095.00000
57.91100	3089.00000
57.92800	2917.00000
57.94500	2963.00000
57.96200	2935.00000
57.97900	2884.00000
57.99600	2904.00000
58.01300	2968.00000
58.03000	3084.00000
58.04700	2964.00000
58.06400	3094.00000
58.08100	3031.00000
58.09800	2847.00000
58.11500	2829.00000
58.13200	2888.00000
58.14900	2907.00000
58.16600	2906.00000
58.18300	2919.00000
58.20000	2957.00000
58.21700	2968.00000
58.23400	2983.00000
58.25100	3051.00000
58.26800	3032.00000
58.28500	3010.00000
58.30200	2973.00000
58.31900	2937.00000
58.33600	2918.00000
58.35300	2954.00000
58.37000	2886.00000
58.38700	2948.00000
58.40400	3000.00000
58.42100	3031.00000
58.43800	2949.00000
58.45500	2944.00000
58.47200	2973.00000
58.48900	3012.00000
58.50600	2985.00000
58.52300	2996.00000
58.54000	3038.00000
58.55700	2967.00000
58.57400	2946.00000
58.59100	3051.00000
58.60800	3051.00000
58.62500	3040.00000
58.64200	2947.00000
58.65900	2929.00000
58.67600	2895.00000
58.69300	2949.00000
58.71000	2810.00000
58.72700	2775.00000
58.74400	2883.00000
58.76100	2982.00000
58.77800	2967.00000
58.79500	2936.00000
58.81200	2918.00000
58.82900	2899.00000
58.84600	2954.00000
58.86300	2986.00000
58.88000	2865.00000
58.89700	2901.00000
58.91400	2993.00000
58.93100	3057.00000
58.94800	2956.00000
58.96500	2945.00000
58.98200	2932.00000
58.99900	2999.00000
59.01600	2988.00000
59.03300	2843.00000
59.05000	2964.00000
59.06700	3061.00000
59.08400	2998.00000
59.10100	3027.00000
59.11800	3047.00000
59.13500	2906.00000
59.15200	2881.00000
59.16900	2858.00000
59.18600	2915.00000
59.20300	2914.00000
59.22000	2909.00000
59.23700	2861.00000
59.25400	2992.00000
59.27100	2970.00000
59.28800	2938.00000
59.30500	2905.00000
59.32200	2942.00000
59.33900	2893.00000
59.35600	2955.00000
59.37300	2928.00000
59.39000	2933.00000
59.40700	2989.00000
59.42400	2966.00000
59.44100	3007.00000
59.45800	3002.00000
59.47500	2968.00000
59.49200	2906.00000
59.50900	2918.00000
59.52600	2911.00000
59.54300	2854.00000
59.56000	3063.00000
59.57700	3109.00000
59.59400	2985.00000
59.61100	2927.00000
59.62800	2916.00000
59.64500	3005.00000
59.66200	2998.00000
59.67900	3004.00000
59.69600	2940.00000
59.71300	3025.00000
59.73000	2969.00000
59.74700	2966.00000
59.76400	2940.00000
59.78100	2988.00000
59.79800	2955.00000
59.81500	3010.00000
59.83200	2980.00000
59.84900	3172.00000
59.86600	3063.00000
59.88300	3097.00000
59.90000	3009.00000
59.91700	3137.00000
59.93400	3045.00000
59.95100	3134.00000
59.96800	3050.00000
59.98500	3173.00000
60.00200	3094.00000
60.01900	3096.00000
60.03600	3051.00000
60.05300	3074.00000
60.07000	2995.00000
60.08700	3197.00000
60.10400	3168.00000
60.12100	3234.00000
60.13800	3126.00000
60.15500	3162.00000
60.17200	3040.00000
60.18900	3105.00000
60.20600	3144.00000
60.22300	3048.00000
60.24000	3148.00000
60.25700	3135.00000
60.27400	3032.00000
60.29100	3119.00000
60.30800	3114.00000
60.32500	3094.00000
60.34200	3148.00000
60.35900	3129.00000
60.37600	3147.00000
60.39300	3137.00000
60.41000	3105.00000
60.42700	3150.00000
60.44400	3067.00000
60.46100	3056.00000
60.47800	3169.00000
60.49500	3154.00000
60.51200	3088.00000
60.52900	3142.00000
60.54600	3168.00000
60.56300	3156.00000
60.58000	3138.00000
60.59700	3048.00000
60.61400	3119.00000
60.63100	3245.00000
60.64800	3132.00000
60.66500	3214.00000
60.68200	3257.00000
60.69900	3320.00000
60.71600	3336.00000
60.73300	3189.00000
60.75000	3192.00000
60.76700	3160.00000
60.78400	3216.00000
60.80100	3395.00000
60.81800	3479.00000
60.83500	3437.00000
60.85200	3464.00000
60.86900	3474.00000
60.88600	3498.00000
60.90300	3651.00000
60.92000	3601.00000
60.93700	3739.00000
60.95400	3778.00000
60.97100	3804.00000
60.98800	4041.00000
61.00500	4202.00000
61.02200	4180.00000
61.03900	4243.00000
61.05600	4403.00000
61.07300	4458.00000
61.09000	4596.00000
61.10700	4882.00000
61.12400	5215.00000
61.14100	5664.00000
61.15800	6250.00000
61.17500	6695.00000
61.19200	7568.00000
61.20900	8600.00000
61.22600	9840.00000
61.24300	11303.00000
61.26000	12821.00000
61.27700	14214.00000
61.29400	14944.00000
61.31100	15148.00000
61.32800	14973.00000
61.34500	14548.00000
61.36200	13803.00000
61.37900	13372.00000
61.39600	12875.00000
61.41300	12432.00000
61.43000	12034.00000
61.44700	11482.00000
61.46400	10858.00000
61.48100	9961.00000
61.49800	9091.00000
61.51500	8376.00000
61.53200	7427.00000
61.54900	6810.00000
61.56600	6272.00000
61.58300	5756.00000
61.60000	5239.00000
61.61700	4882.00000
61.63400	4648.00000
61.65100	4415.00000
61.66800	4187.00000
61.68500	4046.00000
61.70200	3921.00000
61.71900	3784.00000
61.73600	3502.00000
61.75300	3462.00000
61.77000	3514.00000
61.78700	3554.00000
61.80400	3538.00000
61.82100	3560.00000
61.83800	3358.00000
61.85500	3246.00000
61.87200	3249.00000
61.88900	3166.00000
61.90600	3172.00000
61.92300	3160.00000
61.94000	3164.00000
61.95700	3107.00000
61.97400	2935.00000
61.99100	3048.00000
62.00800	3136.00000
62.02500	3134.00000
62.04200	3016.00000
62.05900	2968.00000
62.07600	3094.00000
62.09300	3012.00000
62.11000	3018.00000
62.12700	3039.00000
62.14400	2946.00000
62.16100	2949.00000
62.17800	2991.00000
62.19500	2997.00000
62.21200	2972.00000
62.22900	2898.00000
62.24600	2902.00000
62.26300	2949.00000
62.28000	3093.00000
62.29700	2963.00000
62.31400	2937.00000
62.33100	2874.00000
62.34800	2883.00000
62.36500	2969.00000
62.38200	2963.00000
62.39900	2973.00000
62.41600	2938.00000
62.43300	2986.00000
62.45000	2991.00000
62.46700	2883.00000
62.48400	2852.00000
62.50100	2869.00000
62.51800	2865.00000
62.53500	2986.00000
62.55200	2913.00000
62.56900	2835.00000
62.58600	2889.00000
62.60300	2923.00000
62.62000	2872.00000
62.63700	2833.00000
62.65400	2898.00000
62.67100	2904.00000
62.68800	2841.00000
62.70500	2921.00000
62.72200	2812.00000
62.73900	2886.00000
62.75600	2952.00000
62.77300	2983.00000
62.79000	2951.00000
62.80700	2875.00000
62.82400	2817.00000
62.84100	2827.00000
62.85800	2825.00000
62.87500	2832.00000
62.89200	2849.00000
62.90900	2857.00000
62.92600	2838.00000
62.94300	2852.00000
62.96000	3022.00000
62.97700	2867.00000
62.99400	2956.00000
63.01100	2754.00000
63.02800	2858.00000
63.04500	2855.00000
63.06200	2870.00000
63.07900	2754.00000
63.09600	2857.00000
63.11300	2841.00000
63.13000	2941.00000
63.14700	2859.00000
63.16400	2841.00000
63.18100	2835.00000
63.19800	2829.00000
63.21500	2862.00000
63.23200	2663.00000
63.24900	2726.00000
63.26600	2762.00000
63.28300	2765.00000
63.30000	2750.00000
63.31700	2820.00000
63.33400	2896.00000
63.35100	2889.00000
63.36800	2799.00000
63.38500	2761.00000
63.40200	2770.00000
63.41900	2800.00000
63.43600	2844.00000
63.45300	2893.00000
63.47000	2788.00000
63.48700	2788.00000
63.50400	2918.00000
63.52100	2873.00000
63.53800	2818.00000
63.55500	2926.00000
63.57200	2866.00000
63.58900	2833.00000
63.60600	2883.00000
63.62300	2897.00000
63.64000	2891.00000
63.65700	2849.00000
63.67400	2739.00000
63.69100	2759.00000
63.70800	2787.00000
63.72500	2792.00000
63.74200	2893.00000
63.75900	2850.00000
63.77600	2865.00000
63.79300	2824.00000
63.81000	2792.00000
63.82700	2988.00000
63.84400	2894.00000
63.86100	2722.00000
63.87800	2759.00000
63.89500	2829.00000
63.91200	2836.00000
63.92900	2794.00000
63.94600	2824.00000
63.96300	2805.00000
63.98000	2880.00000
63.99700	2813.00000
64.01400	2819.00000
64.03100	2837.00000
64.04800	2782.00000
64.06500	2748.00000
64.08200	2744.00000
64.09900	2823.00000
64.11600	2812.00000
64.13300	2920.00000
64.15000	2923.00000
64.16700	2848.00000
64.18400	2842.00000
64.20100	2846.00000
64.21800	2825.00000
64.23500	2753.00000
64.25200	2754.00000
64.26900	2820.00000
64.28600	2835.00000
64.30300	2917.00000
64.32000	2883.00000
64.33700	2846.00000
64.35400	2818.00000
64.37100	2798.00000
64.38800	2874.00000
64.40500	2972.00000
64.42200	2964.00000
64.43900	2863.00000
64.45600	2868.00000
64.47300	2830.00000
64.49000	2820.00000
64.50700	2852.00000
64.52400	2846.00000
64.54100	2868.00000
64.55800	2857.00000
64.57500	2786.00000
64.59200	2715.00000
64.60900	2746.00000
64.62600	2866.00000
64.64300	2940.00000
64.66000	2888.00000
64.67700	2850.00000
64.69400	2842.00000
64.71100	2846.00000
64.72800	2829.00000
64.74500	2827.00000
64.76200	2856.00000
64.77900	2843.00000
64.79600	2768.00000
64.81300	2750.00000
64.83000	2783.00000
64.84700	2792.00000
64.86400	2838.00000
64.88100	2791.00000
64.89800	2880.00000
64.91500	2855.00000
64.93200	2895.00000
64.94900	2848.00000
64.96600	2911.00000
64.98300	2842.00000
65.00000	2898.00000
65.01700	2806.00000
65.03400	2930.00000
65.05100	2786.00000
65.06800	2909.00000
65.08500	2948.00000
65.10200	2952.00000
65.11900	2841.00000
65.13600	2800.00000
65.15300	2771.00000
65.17000	2791.00000
65.18700	2783.00000
65.20400	2952.00000
65.22100	2789.00000
65.23800	2781.00000
65.25500	2821.00000
65.27200	2800.00000
65.28900	2927.00000
65.30600	2939.00000
65.32300	2880.00000
65.34000	2895.00000
65.35700	2839.00000
65.37400	2806.00000
65.39100	2743.00000
65.40800	2813.00000
65.42500	2877.00000
65.44200	2794.00000
65.45900	2802.00000
65.47600	2821.00000
65.49300	2795.00000
65.51000	2804.00000
65.52700	2755.00000
65.54400	2793.00000
65.56100	2798.00000
65.57800	2824.00000
65.59500	2716.00000
65.61200	2821.00000
65.62900	2892.00000
65.64600	2813.00000
65.66300	2830.00000
65.68000	2872.00000
65.69700	2942.00000
65.71400	2904.00000
65.73100	2817.00000
65.74800	2831.00000
65.76500	2789.00000
65.78200	2863.00000
65.79900	2878.00000
65.81600	2927.00000
65.83300	2715.00000
65.85000	2804.00000
65.86700	2914.00000
65.88400	2780.00000
65.90100	2888.00000
65.91800	2809.00000
65.93500	2884.00000
65.95200	2862.00000
65.96900	2684.00000
65.98600	2810.00000
66.00300	2880.00000
66.02000	2824.00000
66.03700	2670.00000
66.05400	2768.00000
66.07100	2845.00000
66.08800	2831.00000
66.10500	2804.00000
66.12200	2826.00000
66.13900	2830.00000
66.15600	2788.00000
66.17300	2843.00000
66.19000	2810.00000
66.20700	2863.00000
66.22400	2878.00000
66.24100	2815.00000
66.25800	2844.00000
66.27500	2903.00000
66.29200	2921.00000
66.30900	2972.00000
66.32600	2885.00000
66.34300	2845.00000
66.36000	2891.00000
66.37700	2905.00000
66.39400	2870.00000
66.41100	2814.00000
66.42800	2890.00000
66.44500	2915.00000
66.46200	2959.00000
66.47900	2925.00000
66.49600	2770.00000
66.51300	2833.00000
66.53000	2859.00000
66.54700	2793.00000
66.56400	2933.00000
66.58100	2901.00000
66.59800	2780.00000
66.61500	2863.00000
66.63200	2832.00000
66.64900	2823.00000
66.66600	2789.00000
66.68300	2860.00000
66.70000	2928.00000
66.71700	2908.00000
66.73400	2872.00000
66.75100	2970.00000
66.76800	2916.00000
66.78500	2781.00000
66.80200	2851.00000
66.81900	2876.00000
66.83600	2870.00000
66.85300	2839.00000
66.87000	2931.00000
66.88700	3007.00000
66.90400	3026.00000
66.92100	3009.00000
66.93800	2848.00000
66.95500	2915.00000
66.97200	2882.00000
66.98900	2977.00000
67.00600	2877.00000
67.02300	2950.00000
67.04000	3056.00000
67.05700	3058.00000
67.07400	3036.00000
67.09100	2968.00000
67.10800	3049.00000
67.12500	3179.00000
67.14200	3089.00000
67.15900	3068.00000
67.17600	3118.00000
67.19300	3022.00000
67.21000	3035.00000
67.22700	3062.00000
67.24400	3181.00000
67.26100	3086.00000
67.27800	3060.00000
67.29500	3087.00000
67.31200	3112.00000
67.32900	3203.00000
67.34600	3218.00000
67.36300	3198.00000
67.38000	3317.00000
67.39700	3305.00000
67.41400	3295.00000
67.43100	3422.00000
67.44800	3490.00000
67.46500	3482.00000
67.48200	3472.00000
67.49900	3627.00000
67.51600	3661.00000
67.53300	3677.00000
67.55000	3794.00000
67.56700	3852.00000
67.58400	3855.00000
67.60100	3878.00000
67.61800	4035.00000
67.63500	4282.00000
67.65200	4358.00000
67.66900	4482.00000
67.68600	4877.00000
67.70300	5028.00000
67.72000	5409.00000
67.73700	5798.00000
67.75400	6057.00000
67.77100	6868.00000
67.78800	7720.00000
67.80500	8569.00000
67.82200	9799.00000
67.83900	11318.00000
67.85600	12898.00000
67.87300	14424.00000
67.89000	15520.00000
67.90700	15880.00000
67.92400	16073.00000
67.94100	15553.00000
67.95800	14892.00000
67.97500	14188.00000
67.99200	13518.00000
68.00900	13035.00000
68.02600	12866.00000
68.04300	12532.00000
68.06000	12198.00000
68.07700	11791.00000
68.09400	11363.00000
68.11100	10510.00000
68.12800	9506.00000
68.14500	8577.00000
68.16200	7872.00000
68.17900	6878.00000
68.19600	6437.00000
68.21300	6077.00000
68.23000	5603.00000
68.24700	5283.00000
68.26400	4914.00000
68.28100	4705.00000
68.29800	4496.00000
68.31500	4256.00000
68.33200	4194.00000
68.34900	4030.00000
68.36600	3816.00000
68.38300	3732.00000
68.40000	3677.00000
68.41700	3637.00000
68.43400	3584.00000
68.45100	3514.00000
68.46800	3483.00000
68.48500	3404.00000
68.50200	3542.00000
68.51900	3334.00000
68.53600	3310.00000
68.55300	3298.00000
68.57000	3212.00000
68.58700	3201.00000
68.60400	3193.00000
68.62100	3131.00000
68.63800	3068.00000
68.65500	3141.00000
68.67200	3173.00000
68.68900	3146.00000
68.70600	3127.00000
68.72300	3086.00000
68.74000	3016.00000
68.75700	3040.00000
68.77400	3075.00000
68.79100	3164.00000
68.80800	3095.00000
68.82500	2948.00000
68.84200	3068.00000
68.85900	3037.00000
68.87600	3067.00000
68.89300	3095.00000
68.91000	3101.00000
68.92700	2915.00000
68.94400	2933.00000
68.96100	3037.00000
68.97800	2933.00000
68.99500	2940.00000
69.01200	3008.00000
69.02900	3062.00000
69.04600	2931.00000
69.06300	2885.00000
69.08000	2898.00000
69.09700	2987.00000
69.11400	2883.00000
69.13100	2945.00000
69.14800	2872.00000
69.16500	2857.00000
69.18200	2968.00000
69.19900	2971.00000
69.21600	2976.00000
69.23300	2951.00000
69.25000	2914.00000
69.26700	2843.00000
69.28400	2794.00000
69.30100	2763.00000
69.31800	2796.00000
69.33500	2836.00000
69.35200	2892.00000
69.36900	2860.00000
69.38600	2885.00000
69.40300	2880.00000
69.42000	2849.00000
69.43700	2833.00000
69.45400	2900.00000
69.47100	2902.00000
69.48800	2817.00000
69.50500	2801.00000
69.52200	2859.00000
69.53900	2930.00000
69.55600	2821.00000
69.57300	2792.00000
69.59000	2891.00000
69.60700	2901.00000
69.62400	2857.00000
69.64100	2759.00000
69.65800	2723.00000
69.67500	2692.00000
69.69200	2872.00000
69.70900	2839.00000
69.72600	2738.00000
69.74300	2695.00000
69.76000	2870.00000
69.77700	2800.00000
69.79400	2775.00000
69.81100	2877.00000
69.82800	2879.00000
69.84500	2798.00000
69.86200	2887.00000
69.87900	2762.00000
69.89600	2841.00000
69.91300	2766.00000
69.93000	2825.00000
69.94700	2907.00000
69.96400	2812.00000
69.98100	2783.00000
69.99800	2862.00000
70.01500	2837.00000
70.03200	2747.00000
70.04900	2759.00000
70.06600	2804.00000
70.08300	2769.00000
70.10000	2883.00000
70.11700	2830.00000
70.13400	2823.00000
70.15100	2769.00000
70.16800	2829.00000
70.18500	2865.00000
70.20200	2758.00000
70.21900	2870.00000
70.23600	2840.00000
70.25300	2734.00000
70.27000	2868.00000
70.28700	2849.00000
70.30400	2791.00000
70.32100	2876.00000
70.33800	2865.00000
70.35500	2841.00000
70.37200	2680.00000
70.38900	2725.00000
70.40600	2770.00000
70.42300	2767.00000
70.44000	2913.00000
70.45700	2810.00000
70.47400	2710.00000
70.49100	2810.00000
70.50800	2724.00000
70.52500	2750.00000
70.54200	2780.00000
70.55900	2889.00000
70.57600	2893.00000
70.59300	2837.00000
70.61000	2809.00000
70.62700	2798.00000
70.64400	2792.00000
70.66100	2911.00000
70.67800	2871.00000
70.69500	2882.00000
70.71200	2836.00000
70.72900	2806.00000
70.74600	2781.00000
70.76300	2870.00000
70.78000	2746.00000
70.79700	2790.00000
70.81400	2817.00000
70.83100	2787.00000
70.84800	2705.00000
70.86500	2797.00000
70.88200	2776.00000
70.89900	2778.00000
70.91600	2727.00000
70.93300	2760.00000
70.95000	2827.00000
70.96700	2759.00000
70.98400	2742.00000
71.00100	2710.00000
71.01800	2747.00000
71.03500	2760.00000
71.05200	2811.00000
71.06900	2847.00000
71.08600	2938.00000
71.10300	2816.00000
71.12000	2755.00000
71.13700	2727.00000
71.15400	2711.00000
71.17100	2781.00000
71.18800	2730.00000
71.20500	2757.00000
71.22200	2763.00000
71.23900	2808.00000
71.25600	2785.00000
71.27300	2758.00000
71.29000	2870.00000
71.30700	2727.00000
71.32400	2677.00000
71.34100	2824.00000
71.35800	2778.00000
71.37500	2817.00000
71.39200	2733.00000
71.40900	2798.00000
71.42600	2787.00000
71.44300	2642.00000
71.46000	2723.00000
71.47700	2687.00000
71.49400	2759.00000
71.51100	2779.00000
71.52800	2745.00000
71.54500	2770.00000
71.56200	2709.00000
71.57900	2698.00000
71.59600	2839.00000
71.61300	2726.00000
71.63000	2711.00000
71.64700	2681.00000
71.66400	2611.00000
71.68100	2732.00000
71.69800	2760.00000
71.71500	2726.00000
71.73200	2762.00000
71.74900	2885.00000
71.76600	2763.00000
71.78300	2838.00000
71.80000	2815.00000
71.81700	2753.00000
71.83400	2780.00000
71.85100	2712.00000
71.86800	2694.00000
71.88500	2750.00000
71.90200	2788.00000
71.91900	2859.00000
71.93600	2964.00000
71.95300	2774.00000
71.97000	2804.00000
71.98700	2852.00000
72.00400	2771.00000
72.02100	2824.00000
72.03800	2784.00000
72.05500	2748.00000
72.07200	2804.00000
72.08900	2785.00000
72.10600	2764.00000
72.12300	2822.00000
72.14000	2813.00000
72.15700	2808.00000
72.17400	2771.00000
72.19100	2790.00000
72.20800	2818.00000
72.22500	2792.00000
72.24200	2836.00000
72.25900	2800.00000
72.27600	2722.00000
72.29300	2784.00000
72.31000	2758.00000
72.32700	2762.00000
72.34400	2775.00000
72.36100	2766.00000
72.37800	2829.00000
72.39500	2856.00000
72.41200	2866.00000
72.42900	2915.00000
72.44600	2823.00000
72.46300	2821.00000
72.48000	2772.00000
72.49700	2790.00000
72.51400	2653.00000
72.53100	2842.00000
72.54800	2905.00000
72.56500	2806.00000
72.58200	2771.00000
72.59900	2802.00000
72.61600	2815.00000
72.63300	2778.00000
72.65000	2792.00000
72.66700	2847.00000
72.68400	2860.00000
72.70100	2815.00000
72.71800	2802.00000
72.73500	2936.00000
72.75200	2804.00000
72.76900	2764.00000
72.78600	2897.00000
72.80300	2814.00000
72.82000	2775.00000
72.83700	2743.00000
72.85400	2848.00000
72.87100	2757.00000
72.88800	2772.00000
72.90500	2849.00000
72.92200	2749.00000
72.93900	2703.00000
72.95600	2793.00000
72.97300	2820.00000
72.99000	2774.00000
73.00700	2692.00000
73.02400	2741.00000
73.04100	2723.00000
73.05800	2826.00000
73.07500	2770.00000
73.09200	2736.00000
73.10900	2757.00000
73.12600	2755.00000
73.14300	2771.00000
73.16000	2769.00000
73.17700	2874.00000
73.19400	2862.00000
73.21100	2827.00000
73.22800	2873.00000
73.24500	2830.00000
73.26200	2866.00000
73.27900	2793.00000
73.29600	2735.00000
73.31300	2782.00000
73.33000	2783.00000
73.34700	2743.00000
73.36400	2718.00000
73.38100	2707.00000
73.39800	2757.00000
73.41500	2756.00000
73.43200	2743.00000
73.44900	2780.00000
73.46600	2750.00000
73.48300	2778.00000
73.50000	2871.00000
73.51700	2881.00000
73.53400	2803.00000
73.55100	2788.00000
73.56800	2880.00000
73.58500	2837.00000
73.60200	2606.00000
73.61900	2727.00000
73.63600	2752.00000
73.65300	2781.00000
73.67000	2720.00000
73.68700	2776.00000
73.70400	2788.00000
73.72100	2786.00000
73.73800	2758.00000
73.75500	2782.00000
73.77200	2771.00000
73.78900	2786.00000
73.80600	2782.00000
73.82300	2662.00000
73.84000	2708.00000
73.85700	2847.00000
73.87400	2717.00000
73.89100	2738.00000
73.90800	2818.00000
73.92500	2728.00000
73.94200	2661.00000
73.95900	2745.00000
73.97600	2707.00000
73.99300	2822.00000
74.01000	2651.00000
74.02700	2789.00000
74.04400	2693.00000
74.06100	2751.00000
74.07800	2740.00000
74.09500	2670.00000
74.11200	2756.00000
74.12900	2795.00000
74.14600	2760.00000
74.16300	2734.00000
74.18000	2778.00000
74.19700	2670.00000
74.21400	2704.00000
74.23100	2773.00000
74.24800	2856.00000
74.26500	2865.00000
74.28200	2769.00000
74.29900	2737.00000
74.31600	2760.00000
74.33300	2833.00000
74.35000	2772.00000
74.36700	2724.00000
74.38400	2806.00000
74.40100	2876.00000
74.41800	2900.00000
74.43500	2853.00000
74.45200	2770.00000
74.46900	2747.00000
74.48600	2675.00000
74.50300	2683.00000
74.52000	2789.00000
74.53700	2759.00000
74.55400	2770.00000
74.57100	2716.00000
74.58800	2799.00000
74.60500	2772.00000
74.62200	2867.00000
74.63900	2816.00000
74.65600	2822.00000
74.67300	2810.00000
74.69000	2744.00000
74.70700	2759.00000
74.72400	2825.00000
74.74100	2803.00000
74.75800	2682.00000
74.77500	2699.00000
74.79200	2764.00000
74.80900	2736.00000
74.82600	2790.00000
74.84300	2723.00000
74.86000	2802.00000
74.87700	2759.00000
74.89400	2751.00000
74.91100	2851.00000
74.92800	2718.00000
74.94500	2716.00000
