5.01637	1166.00000
5.03312	1149.00000
5.04986	1162.00000
5.06661	1147.00000
5.08335	1158.00000
5.10010	1162.00000
5.11685	1143.00000
5.13359	1109.00000
5.15034	1130.00000
5.16708	1128.00000
5.18383	1128.00000
5.20058	1105.00000
5.21732	1113.00000
5.23407	1111.00000
5.25081	1117.00000
5.26756	1086.00000
5.28431	1088.00000
5.30105	1094.00000
5.31780	1067.00000
5.33454	1069.00000
5.35129	1075.00000
5.36804	1077.00000
5.38478	1055.00000
5.40153	1057.00000
5.41827	1042.00000
5.43502	1057.00000
5.45177	1044.00000
5.46851	1042.00000
5.48526	1026.00000
5.50200	1024.00000
5.51875	1010.00000
5.53550	1020.00000
5.55224	1028.00000
5.56899	1014.00000
5.58573	1018.00000
5.60248	1012.00000
5.61923	1008.00000
5.63597	1000.00000
5.65272	1014.00000
5.66946	1014.00000
5.68621	986.00000
5.70296	988.00000
5.71970	1008.00000
5.73645	988.00000
5.75319	988.00000
5.76994	968.00000
5.78669	992.00000
5.80343	980.00000
5.82018	966.00000
5.83692	956.00000
5.85367	966.00000
5.87042	974.00000
5.88716	964.00000
5.90391	955.00000
5.92065	931.00000
5.93740	941.00000
5.95415	941.00000
5.97089	949.00000
5.98764	924.00000
6.00438	937.00000
6.02113	939.00000
6.03788	935.00000
6.05462	943.00000
6.07137	918.00000
6.08811	929.00000
6.10486	937.00000
6.12161	935.00000
6.13835	916.00000
6.15510	918.00000
6.17184	889.00000
6.18859	893.00000
6.20534	910.00000
6.22208	922.00000
6.23883	920.00000
6.25557	931.00000
6.27232	897.00000
6.28907	876.00000
6.30581	908.00000
6.32256	908.00000
6.33930	893.00000
6.35605	897.00000
6.37280	916.00000
6.38954	920.00000
6.40629	893.00000
6.42303	891.00000
6.43978	899.00000
6.45653	891.00000
6.47327	887.00000
6.49002	891.00000
6.50676	893.00000
6.52351	910.00000
6.54026	916.00000
6.55700	924.00000
6.57375	910.00000
6.59049	925.00000
6.60724	947.00000
6.62399	962.00000
6.64073	982.00000
6.65748	1008.00000
6.67422	1024.00000
6.69097	1042.00000
6.70772	1090.00000
6.72446	1107.00000
6.74121	1143.00000
6.75795	1212.00000
6.77470	1261.00000
6.79145	1293.00000
6.80819	1376.00000
6.82494	1467.00000
6.84168	1560.00000
6.85843	1656.00000
6.87518	1788.00000
6.89192	1880.00000
6.90867	1982.00000
6.92541	2088.00000
6.94216	2173.00000
6.95891	2208.00000
6.97565	2220.00000
6.99240	2179.00000
7.00914	2088.00000
7.02589	1999.00000
7.04264	1882.00000
7.05938	1740.00000
7.07613	1644.00000
7.09287	1518.00000
7.10962	1397.00000
7.12637	1279.00000
7.14311	1166.00000
7.15986	1086.00000
7.17660	1022.00000
7.19335	976.00000
7.21010	945.00000
7.22684	893.00000
7.24359	865.00000
7.26033	850.00000
7.27708	830.00000
7.29383	810.00000
7.31057	794.00000
7.32732	774.00000
7.34406	785.00000
7.36081	771.00000
7.37756	787.00000
7.39430	755.00000
7.41105	759.00000
7.42779	741.00000
7.44454	759.00000
7.46129	748.00000
7.47803	755.00000
7.49478	734.00000
7.51152	740.00000
7.52827	745.00000
7.54502	719.00000
7.56176	712.00000
7.57851	711.00000
7.59525	729.00000
7.61200	701.00000
7.62875	697.00000
7.64549	714.00000
7.66224	707.00000
7.67898	712.00000
7.69573	711.00000
7.71248	724.00000
7.72922	707.00000
7.74597	689.00000
7.76271	682.00000
7.77946	684.00000
7.79621	691.00000
7.81295	691.00000
7.82970	689.00000
7.84644	694.00000
7.86319	686.00000
7.87994	669.00000
7.89668	669.00000
7.91343	664.00000
7.93017	667.00000
7.94692	679.00000
7.96367	674.00000
7.98041	676.00000
7.99716	667.00000
8.01390	664.00000
8.03065	663.00000
8.04740	658.00000
8.06414	658.00000
8.08089	654.00000
8.09763	634.00000
8.11438	643.00000
8.13113	648.00000
8.14787	659.00000
8.16462	640.00000
8.18136	640.00000
8.19811	643.00000
8.21486	646.00000
8.23160	637.00000
8.24835	643.00000
8.26509	642.00000
8.28184	645.00000
8.29859	635.00000
8.31533	640.00000
8.33208	630.00000
8.34882	635.00000
8.36557	618.00000
8.38232	635.00000
8.39906	632.00000
8.41581	626.00000
8.43255	623.00000
8.44930	632.00000
8.46605	637.00000
8.48279	630.00000
8.49954	635.00000
8.51628	638.00000
8.53303	627.00000
8.54978	626.00000
8.56652	642.00000
8.58327	629.00000
8.60001	624.00000
8.61676	619.00000
8.63351	640.00000
8.65025	616.00000
8.66700	623.00000
8.68374	626.00000
8.70049	618.00000
8.71724	619.00000
8.73398	618.00000
8.75073	623.00000
8.76747	618.00000
8.78422	608.00000
8.80097	618.00000
8.81771	604.00000
8.83446	612.00000
8.85120	619.00000
8.86795	612.00000
8.88470	626.00000
8.90144	619.00000
8.91819	615.00000
8.93493	618.00000
8.95168	610.00000
8.96843	623.00000
8.98517	612.00000
9.00192	613.00000
9.01866	610.00000
9.03541	621.00000
9.05216	590.00000
9.06890	621.00000
9.08565	613.00000
9.10239	605.00000
9.11914	607.00000
9.13589	608.00000
9.15263	610.00000
9.16938	607.00000
9.18612	624.00000
9.20287	607.00000
9.21962	623.00000
9.23636	615.00000
9.25311	610.00000
9.26985	602.00000
9.28660	616.00000
9.30335	618.00000
9.32009	618.00000
9.33684	618.00000
9.35358	616.00000
9.37033	624.00000
9.38708	608.00000
9.40382	621.00000
9.42057	616.00000
9.43731	599.00000
9.45406	605.00000
9.47081	605.00000
9.48755	613.00000
9.50430	610.00000
9.52104	613.00000
9.53779	607.00000
9.55454	607.00000
9.57128	599.00000
9.58803	604.00000
9.60477	605.00000
9.62152	619.00000
9.63827	602.00000
9.65501	608.00000
9.67176	598.00000
9.68850	612.00000
9.70525	601.00000
9.72200	604.00000
9.73874	599.00000
9.75549	602.00000
9.77223	604.00000
9.78898	604.00000
9.80573	612.00000
9.82247	594.00000
9.83922	612.00000
9.85596	604.00000
9.87271	598.00000
9.88946	608.00000
9.90620	591.00000
9.92295	610.00000
9.93969	601.00000
9.95644	612.00000
9.97319	616.00000
9.98993	605.00000
10.00668	602.00000
10.02342	604.00000
10.04017	604.00000
10.05692	593.00000
10.07366	607.00000
10.09041	610.00000
10.10715	604.00000
10.12390	588.00000
10.14065	607.00000
10.15739	615.00000
10.17414	594.00000
10.19088	612.00000
10.20763	590.00000
10.22438	588.00000
10.24112	604.00000
10.25787	604.00000
10.27461	594.00000
10.29136	596.00000
10.30811	601.00000
10.32485	588.00000
10.34160	605.00000
10.35834	602.00000
10.37509	582.00000
10.39184	590.00000
10.40858	601.00000
10.42533	599.00000
10.44207	596.00000
10.45882	593.00000
10.47557	585.00000
10.49231	578.00000
10.50906	594.00000
10.52580	602.00000
10.54255	604.00000
10.55930	601.00000
10.57604	608.00000
10.59279	623.00000
10.60953	618.00000
10.62628	618.00000
10.64303	627.00000
10.65977	632.00000
10.67652	635.00000
10.69326	645.00000
10.71001	653.00000
10.72676	667.00000
10.74350	684.00000
10.76025	699.00000
10.77699	728.00000
10.79374	755.00000
10.81049	778.00000
10.82723	841.00000
10.84398	895.00000
10.86072	972.00000
10.87747	1040.00000
10.89422	1153.00000
10.91096	1257.00000
10.92771	1371.00000
10.94445	1447.00000
10.96120	1528.00000
10.97795	1501.00000
10.99469	1454.00000
11.01144	1378.00000
11.02818	1300.00000
11.04493	1199.00000
11.06168	1096.00000
11.07842	1038.00000
11.09517	972.00000
11.11191	874.00000
11.12866	841.00000
11.14541	766.00000
11.16215	736.00000
11.17890	704.00000
11.19564	663.00000
11.21239	650.00000
11.22914	624.00000
11.24588	612.00000
11.26263	616.00000
11.27937	613.00000
11.29612	598.00000
11.31287	584.00000
11.32961	581.00000
11.34636	582.00000
11.36310	582.00000
11.37985	590.00000
11.39660	585.00000
11.41334	593.00000
11.43009	578.00000
11.44683	579.00000
11.46358	561.00000
11.48033	575.00000
11.49707	566.00000
11.51382	563.00000
11.53056	563.00000
11.54731	567.00000
11.56406	558.00000
11.58080	570.00000
11.59755	575.00000
11.61429	575.00000
11.63104	561.00000
11.64779	554.00000
11.66453	576.00000
11.68128	561.00000
11.69802	575.00000
11.71477	567.00000
11.73152	563.00000
11.74826	569.00000
11.76501	585.00000
11.78175	582.00000
11.79850	578.00000
11.81525	575.00000
11.83199	581.00000
11.84874	590.00000
11.86548	587.00000
11.88223	581.00000
11.89898	593.00000
11.91572	594.00000
11.93247	590.00000
11.94921	624.00000
11.96596	630.00000
11.98271	648.00000
11.99945	677.00000
12.01620	699.00000
12.03294	741.00000
12.04969	781.00000
12.06644	837.00000
12.08318	908.00000
12.09993	1020.00000
12.11667	1138.00000
12.13342	1284.00000
12.15017	1445.00000
12.16691	1685.00000
12.18366	1904.00000
12.20040	2152.00000
12.21715	2335.00000
12.23390	2387.00000
12.25064	2338.00000
12.26739	2184.00000
12.28413	2014.00000
12.30088	1798.00000
12.31763	1646.00000
12.33437	1462.00000
12.35112	1323.00000
12.36786	1184.00000
12.38461	1042.00000
12.40136	955.00000
12.41810	830.00000
12.43485	752.00000
12.45159	697.00000
12.46834	634.00000
12.48509	616.00000
12.50183	598.00000
12.51858	587.00000
12.53532	575.00000
12.55207	564.00000
12.56882	557.00000
12.58556	551.00000
12.60231	549.00000
12.61905	545.00000
12.63580	551.00000
12.65255	536.00000
12.66929	560.00000
12.68604	534.00000
12.70278	543.00000
12.71953	545.00000
12.73628	542.00000
12.75302	514.00000
12.76977	530.00000
12.78651	531.00000
12.80326	523.00000
12.82001	533.00000
12.83675	523.00000
12.85350	529.00000
12.87024	531.00000
12.88699	513.00000
12.90374	521.00000
12.92048	524.00000
12.93723	517.00000
12.95397	521.00000
12.97072	523.00000
12.98747	520.00000
13.00421	527.00000
13.02096	514.00000
13.03770	504.00000
13.05445	508.00000
13.07120	511.00000
13.08794	494.00000
13.10469	520.00000
13.12143	517.00000
13.13818	506.00000
13.15493	513.00000
13.17167	510.00000
13.18842	500.00000
13.20516	503.00000
13.22191	516.00000
13.23866	501.00000
13.25540	510.00000
13.27215	510.00000
13.28889	514.00000
13.30564	514.00000
13.32239	496.00000
13.33913	510.00000
13.35588	510.00000
13.37262	500.00000
13.38937	493.00000
13.40612	504.00000
13.42286	491.00000
13.43961	514.00000
13.45635	521.00000
13.47310	520.00000
13.48985	523.00000
13.50659	510.00000
13.52334	513.00000
13.54008	527.00000
13.55683	529.00000
13.57358	530.00000
13.59032	539.00000
13.60707	521.00000
13.62381	545.00000
13.64056	560.00000
13.65731	560.00000
13.67405	573.00000
13.69080	594.00000
13.70754	590.00000
13.72429	623.00000
13.74104	604.00000
13.75778	638.00000
13.77453	658.00000
13.79127	659.00000
13.80802	696.00000
13.82477	701.00000
13.84151	731.00000
13.85826	764.00000
13.87500	778.00000
13.89175	803.00000
13.90850	819.00000
13.92524	841.00000
13.94199	850.00000
13.95873	850.00000
13.97548	846.00000
13.99223	794.00000
14.00897	785.00000
14.02572	757.00000
14.04246	729.00000
14.05921	687.00000
14.07596	681.00000
14.09270	627.00000
14.10945	612.00000
14.12619	599.00000
14.14294	578.00000
14.15969	545.00000
14.17643	542.00000
14.19318	526.00000
14.20992	510.00000
14.22667	491.00000
14.24342	506.00000
14.26016	504.00000
14.27691	490.00000
14.29365	486.00000
14.31040	477.00000
14.32715	479.00000
14.34389	477.00000
14.36064	486.00000
14.37738	468.00000
14.39413	479.00000
14.41088	466.00000
14.42762	461.00000
14.44437	458.00000
14.46111	469.00000
14.47786	453.00000
14.49461	468.00000
14.51135	465.00000
14.52810	457.00000
14.54484	450.00000
14.56159	464.00000
14.57834	460.00000
14.59508	473.00000
14.61183	465.00000
14.62857	450.00000
14.64532	454.00000
14.66207	462.00000
14.67881	448.00000
14.69556	456.00000
14.71230	454.00000
14.72905	449.00000
14.74580	456.00000
14.76254	456.00000
14.77929	450.00000
14.79603	450.00000
14.81278	457.00000
14.82953	448.00000
14.84627	440.00000
14.86302	440.00000
14.87976	437.00000
14.89651	444.00000
14.91326	432.00000
14.93000	457.00000
14.94675	449.00000
14.96349	441.00000
14.98024	445.00000
14.99699	444.00000
15.01373	448.00000
15.03048	445.00000
15.04722	441.00000
15.06397	438.00000
15.08072	438.00000
15.09746	448.00000
15.11421	442.00000
15.13095	434.00000
15.14770	438.00000
15.16445	445.00000
15.18119	430.00000
15.19794	429.00000
15.21468	437.00000
15.23143	441.00000
15.24818	441.00000
15.26492	442.00000
15.28167	446.00000
15.29841	434.00000
15.31516	433.00000
15.33191	433.00000
15.34865	438.00000
15.36540	432.00000
15.38214	441.00000
15.39889	416.00000
15.41564	419.00000
15.43238	425.00000
15.44913	430.00000
15.46587	432.00000
15.48262	430.00000
15.49937	444.00000
15.51611	438.00000
15.53286	440.00000
15.54960	432.00000
15.56635	432.00000
15.58310	428.00000
15.59984	432.00000
15.61659	434.00000
15.63333	425.00000
15.65008	426.00000
15.66683	440.00000
15.68357	429.00000
15.70032	419.00000
15.71706	423.00000
15.73381	429.00000
15.75056	425.00000
15.76730	421.00000
15.78405	426.00000
15.80079	426.00000
15.81754	426.00000
15.83429	434.00000
15.85103	424.00000
15.86778	423.00000
15.88452	419.00000
15.90127	421.00000
15.91802	419.00000
15.93476	433.00000
15.95151	424.00000
15.96825	421.00000
15.98500	429.00000
16.00175	423.00000
16.01849	423.00000
16.03524	413.00000
16.05198	420.00000
16.06873	425.00000
16.08548	437.00000
16.10222	407.00000
16.11897	423.00000
16.13571	421.00000
16.15246	421.00000
16.16921	417.00000
16.18595	413.00000
16.20270	421.00000
16.21944	424.00000
16.23619	426.00000
16.25294	436.00000
16.26968	438.00000
16.28643	430.00000
16.30317	420.00000
16.31992	428.00000
16.33667	421.00000
16.35341	437.00000
16.37016	426.00000
16.38690	432.00000
16.40365	438.00000
16.42040	464.00000
16.43714	461.00000
16.45389	477.00000
16.47063	489.00000
16.48738	506.00000
16.50413	526.00000
16.52087	557.00000
16.53762	567.00000
16.55436	598.00000
16.57111	634.00000
16.58786	661.00000
16.60460	671.00000
16.62135	686.00000
16.63809	676.00000
16.65484	676.00000
16.67159	659.00000
16.68833	646.00000
16.70508	604.00000
16.72182	594.00000
16.73857	560.00000
16.75532	546.00000
16.77206	500.00000
16.78881	491.00000
16.80555	473.00000
16.82230	471.00000
16.83905	462.00000
16.85579	449.00000
16.87254	454.00000
16.88928	436.00000
16.90603	432.00000
16.92278	434.00000
16.93952	438.00000
16.95627	417.00000
16.97301	426.00000
16.98976	416.00000
17.00651	419.00000
17.02325	432.00000
17.04000	421.00000
17.05674	426.00000
17.07349	419.00000
17.09024	425.00000
17.10698	420.00000
17.12373	417.00000
17.14047	419.00000
17.15722	425.00000
17.17397	429.00000
17.19071	442.00000
17.20746	441.00000
17.22420	445.00000
17.24095	461.00000
17.25770	460.00000
17.27444	476.00000
17.29119	490.00000
17.30793	521.00000
17.32468	557.00000
17.34143	576.00000
17.35817	624.00000
17.37492	679.00000
17.39166	740.00000
17.40841	792.00000
17.42516	884.00000
17.44190	931.00000
17.45865	998.00000
17.47539	1012.00000
17.49214	1006.00000
17.50889	988.00000
17.52563	958.00000
17.54238	906.00000
17.55912	850.00000
17.57587	806.00000
17.59262	750.00000
17.60936	721.00000
17.62611	650.00000
17.64285	616.00000
17.65960	578.00000
17.67635	552.00000
17.69309	527.00000
17.70984	503.00000
17.72658	477.00000
17.74333	468.00000
17.76008	458.00000
17.77682	468.00000
17.79357	456.00000
17.81031	442.00000
17.82706	450.00000
17.84381	464.00000
17.86055	480.00000
17.87730	468.00000
17.89404	464.00000
17.91079	466.00000
17.92754	465.00000
17.94428	453.00000
17.96103	456.00000
17.97777	442.00000
17.99452	444.00000
18.01127	436.00000
18.02801	434.00000
18.04476	430.00000
18.06150	421.00000
18.07825	420.00000
18.09500	411.00000
18.11174	403.00000
18.12849	420.00000
18.14523	402.00000
18.16198	401.00000
18.17873	411.00000
18.19547	412.00000
18.21222	417.00000
18.22896	410.00000
18.24571	401.00000
18.26246	401.00000
18.27920	398.00000
18.29595	406.00000
18.31269	407.00000
18.32944	411.00000
18.34619	412.00000
18.36293	412.00000
18.37968	397.00000
18.39642	428.00000
18.41317	401.00000
18.42992	407.00000
18.44666	428.00000
18.46341	423.00000
18.48015	430.00000
18.49690	429.00000
18.51365	449.00000
18.53039	456.00000
18.54714	458.00000
18.56388	468.00000
18.58063	500.00000
18.59738	511.00000
18.61412	554.00000
18.63087	569.00000
18.64761	629.00000
18.66436	638.00000
18.68111	702.00000
18.69785	747.00000
18.71460	781.00000
18.73134	834.00000
18.74809	869.00000
18.76484	895.00000
18.78158	884.00000
18.79833	889.00000
18.81507	863.00000
18.83182	848.00000
18.84857	796.00000
18.86531	762.00000
18.88206	719.00000
18.89880	686.00000
18.91555	635.00000
18.93230	616.00000
18.94904	576.00000
18.96579	536.00000
18.98253	510.00000
18.99928	504.00000
19.01603	480.00000
19.03277	461.00000
19.04952	460.00000
19.06626	438.00000
19.08301	448.00000
19.09976	424.00000
19.11650	423.00000
19.13325	419.00000
19.14999	434.00000
19.16674	423.00000
19.18349	417.00000
19.20023	412.00000
19.21698	398.00000
19.23372	425.00000
19.25047	412.00000
19.26722	408.00000
19.28396	416.00000
19.30071	413.00000
19.31745	415.00000
19.33420	405.00000
19.35095	405.00000
19.36769	424.00000
19.38444	429.00000
19.40118	429.00000
19.41793	437.00000
19.43468	430.00000
19.45142	444.00000
19.46817	465.00000
19.48491	479.00000
19.50166	490.00000
19.51841	510.00000
19.53515	533.00000
19.55190	551.00000
19.56864	579.00000
19.58539	616.00000
19.60214	648.00000
19.61888	696.00000
19.63563	748.00000
19.65237	771.00000
19.66912	815.00000
19.68587	848.00000
19.70261	834.00000
19.71936	856.00000
19.73610	834.00000
19.75285	803.00000
19.76960	769.00000
19.78634	719.00000
19.80309	687.00000
19.81983	637.00000
19.83658	615.00000
19.85333	560.00000
19.87007	543.00000
19.88682	508.00000
19.90356	487.00000
19.92031	461.00000
19.93706	437.00000
19.95380	438.00000
19.97055	424.00000
19.98729	426.00000
20.00404	421.00000
20.02079	426.00000
20.03753	424.00000
20.05428	399.00000
20.07102	406.00000
20.08777	411.00000
20.10452	408.00000
20.12126	398.00000
20.13801	393.00000
20.15475	403.00000
20.17150	405.00000
20.18825	413.00000
20.20499	393.00000
20.22174	407.00000
20.23848	407.00000
20.25523	399.00000
20.27198	411.00000
20.28872	417.00000
20.30547	430.00000
20.32221	413.00000
20.33896	417.00000
20.35571	425.00000
20.37245	440.00000
20.38920	446.00000
20.40594	445.00000
20.42269	449.00000
20.43944	456.00000
20.45618	442.00000
20.47293	453.00000
20.48967	452.00000
20.50642	464.00000
20.52317	473.00000
20.53991	486.00000
20.55666	484.00000
20.57340	501.00000
20.59015	510.00000
20.60690	511.00000
20.62364	527.00000
20.64039	530.00000
20.65713	555.00000
20.67388	552.00000
20.69063	578.00000
20.70737	585.00000
20.72412	642.00000
20.74086	651.00000
20.75761	696.00000
20.77436	723.00000
20.79110	743.00000
20.80785	778.00000
20.82459	808.00000
20.84134	837.00000
20.85809	876.00000
20.87483	916.00000
20.89158	931.00000
20.90832	1002.00000
20.92507	1014.00000
20.94182	1047.00000
20.95856	1036.00000
20.97531	1063.00000
20.99205	1036.00000
21.00880	1002.00000
21.02555	955.00000
21.04229	920.00000
21.05904	889.00000
21.07578	832.00000
21.09253	776.00000
21.10928	731.00000
21.12602	686.00000
21.14277	642.00000
21.15951	612.00000
21.17626	563.00000
21.19301	546.00000
21.20975	523.00000
21.22650	493.00000
21.24324	473.00000
21.25999	453.00000
21.27674	454.00000
21.29348	445.00000
21.31023	437.00000
21.32697	412.00000
21.34372	432.00000
21.36047	411.00000
21.37721	419.00000
21.39396	415.00000
21.41070	423.00000
21.42745	403.00000
21.44420	407.00000
21.46094	405.00000
21.47769	406.00000
21.49443	398.00000
21.51118	401.00000
21.52793	386.00000
21.54467	394.00000
21.56142	403.00000
21.57816	402.00000
21.59491	386.00000
21.61166	399.00000
21.62840	406.00000
21.64515	397.00000
21.66189	392.00000
21.67864	402.00000
21.69539	398.00000
21.71213	401.00000
21.72888	403.00000
21.74562	405.00000
21.76237	426.00000
21.77912	419.00000
21.79586	429.00000
21.81261	441.00000
21.82935	452.00000
21.84610	469.00000
21.86285	480.00000
21.87959	517.00000
21.89634	536.00000
21.91308	563.00000
21.92983	601.00000
21.94658	630.00000
21.96332	676.00000
21.98007	692.00000
21.99681	716.00000
22.01356	721.00000
22.03031	717.00000
22.04705	689.00000
22.06380	699.00000
22.08054	661.00000
22.09729	627.00000
22.11404	593.00000
22.13078	584.00000
22.14753	557.00000
22.16427	545.00000
22.18102	521.00000
22.19777	516.00000
22.21451	504.00000
22.23126	506.00000
22.24800	507.00000
22.26475	514.00000
22.28150	521.00000
22.29824	533.00000
22.31499	555.00000
22.33173	566.00000
22.34848	582.00000
22.36523	599.00000
22.38197	627.00000
22.39872	632.00000
22.41546	654.00000
22.43221	659.00000
22.44896	635.00000
22.46570	645.00000
22.48245	629.00000
22.49919	607.00000
22.51594	581.00000
22.53269	566.00000
22.54943	539.00000
22.56618	529.00000
22.58292	516.00000
22.59967	498.00000
22.61642	483.00000
22.63316	493.00000
22.64991	477.00000
22.66665	487.00000
22.68340	483.00000
22.70015	487.00000
22.71689	504.00000
22.73364	506.00000
22.75038	523.00000
22.76713	514.00000
22.78388	534.00000
22.80062	524.00000
22.81737	514.00000
22.83411	510.00000
22.85086	511.00000
22.86761	507.00000
22.88435	487.00000
22.90110	476.00000
22.91784	466.00000
22.93459	444.00000
22.95134	441.00000
22.96808	440.00000
22.98483	412.00000
23.00157	421.00000
23.01832	416.00000
23.03507	415.00000
23.05181	407.00000
23.06856	394.00000
23.08530	386.00000
23.10205	397.00000
23.11880	394.00000
23.13554	392.00000
23.15229	401.00000
23.16903	394.00000
23.18578	394.00000
23.20253	398.00000
23.21927	376.00000
23.23602	391.00000
23.25276	387.00000
23.26951	387.00000
23.28626	392.00000
23.30300	401.00000
23.31975	382.00000
23.33649	392.00000
23.35324	399.00000
23.36999	389.00000
23.38673	401.00000
23.40348	393.00000
23.42022	384.00000
23.43697	392.00000
23.45372	410.00000
23.47046	392.00000
23.48721	383.00000
23.50395	402.00000
23.52070	405.00000
23.53745	410.00000
23.55419	398.00000
23.57094	407.00000
23.58768	423.00000
23.60443	411.00000
23.62118	413.00000
23.63792	416.00000
23.65467	421.00000
23.67141	434.00000
23.68816	444.00000
23.70491	457.00000
23.72165	476.00000
23.73840	479.00000
23.75514	516.00000
23.77189	545.00000
23.78864	576.00000
23.80538	599.00000
23.82213	634.00000
23.83887	692.00000
23.85562	738.00000
23.87237	781.00000
23.88911	834.00000
23.90586	841.00000
23.92260	874.00000
23.93935	887.00000
23.95610	910.00000
23.97284	869.00000
23.98959	857.00000
24.00633	846.00000
24.02308	830.00000
24.03983	790.00000
24.05657	792.00000
24.07332	764.00000
24.09006	702.00000
24.10681	672.00000
24.12356	661.00000
24.14030	638.00000
24.15705	613.00000
24.17379	605.00000
24.19054	578.00000
24.20729	588.00000
24.22403	599.00000
24.24078	596.00000
24.25752	616.00000
24.27427	619.00000
24.29102	646.00000
24.30776	646.00000
24.32451	654.00000
24.34125	669.00000
24.35800	664.00000
24.37475	638.00000
24.39149	642.00000
24.40824	624.00000
24.42498	594.00000
24.44173	607.00000
24.45848	598.00000
24.47522	591.00000
24.49197	591.00000
24.50871	582.00000
24.52546	578.00000
24.54221	585.00000
24.55895	612.00000
24.57570	615.00000
24.59244	621.00000
24.60919	642.00000
24.62594	642.00000
24.64268	632.00000
24.65943	640.00000
24.67617	643.00000
24.69292	642.00000
24.70967	624.00000
24.72641	612.00000
24.74316	605.00000
24.75990	590.00000
24.77665	573.00000
24.79340	567.00000
24.81014	567.00000
24.82689	563.00000
24.84363	560.00000
24.86038	569.00000
24.87713	572.00000
24.89387	569.00000
24.91062	573.00000
24.92736	575.00000
24.94411	576.00000
24.96086	566.00000
24.97760	558.00000
24.99435	560.00000
25.01109	548.00000
25.02784	543.00000
25.04459	514.00000
25.06133	530.00000
25.07808	521.00000
25.09482	508.00000
25.11157	514.00000
25.12832	516.00000
25.14506	529.00000
25.16181	542.00000
25.17855	521.00000
25.19530	546.00000
25.21205	578.00000
25.22879	599.00000
25.24554	618.00000
25.26228	651.00000
25.27903	701.00000
25.29578	719.00000
25.31252	767.00000
25.32927	792.00000
25.34601	843.00000
25.36276	865.00000
25.37951	876.00000
25.39625	920.00000
25.41300	914.00000
25.42974	903.00000
25.44649	899.00000
25.46324	852.00000
25.47998	837.00000
25.49673	789.00000
25.51347	771.00000
25.53022	747.00000
25.54697	699.00000
25.56371	650.00000
25.58046	623.00000
25.59720	582.00000
25.61395	549.00000
25.63070	540.00000
25.64744	526.00000
25.66419	513.00000
25.68093	476.00000
25.69768	476.00000
25.71443	461.00000
25.73117	457.00000
25.74792	458.00000
25.76466	444.00000
25.78141	442.00000
25.79816	425.00000
25.81490	425.00000
25.83165	428.00000
25.84839	412.00000
25.86514	408.00000
25.88189	410.00000
25.89863	411.00000
25.91538	406.00000
25.93212	415.00000
25.94887	410.00000
25.96562	412.00000
25.98236	415.00000
25.99911	412.00000
26.01585	421.00000
26.03260	412.00000
26.04935	416.00000
26.06609	424.00000
26.08284	421.00000
26.09958	426.00000
26.11633	429.00000
26.13308	415.00000
26.14982	426.00000
26.16657	432.00000
26.18331	425.00000
26.20006	430.00000
26.21681	432.00000
26.23355	444.00000
26.25030	461.00000
26.26704	449.00000
26.28379	464.00000
26.30054	476.00000
26.31728	484.00000
26.33403	482.00000
26.35077	524.00000
26.36752	517.00000
26.38427	523.00000
26.40101	536.00000
26.41776	533.00000
26.43450	524.00000
26.45125	542.00000
26.46800	545.00000
26.48474	534.00000
26.50149	546.00000
26.51823	540.00000
26.53498	526.00000
26.55173	513.00000
26.56847	514.00000
26.58522	517.00000
26.60196	504.00000
26.61871	496.00000
26.63546	517.00000
26.65220	497.00000
26.66895	491.00000
26.68569	483.00000
26.70244	487.00000
26.71919	483.00000
26.73593	486.00000
26.75268	494.00000
26.76942	494.00000
26.78617	498.00000
26.80292	476.00000
26.81966	506.00000
26.83641	507.00000
26.85315	497.00000
26.86990	514.00000
26.88665	511.00000
26.90339	520.00000
26.92014	518.00000
26.93688	548.00000
26.95363	545.00000
26.97038	561.00000
26.98712	581.00000
27.00387	593.00000
27.02061	599.00000
27.03736	619.00000
27.05411	653.00000
27.07085	674.00000
27.08760	731.00000
27.10434	769.00000
27.12109	826.00000
27.13784	904.00000
27.15458	1022.00000
27.17133	1113.00000
27.18807	1234.00000
27.20482	1414.00000
27.22157	1626.00000
27.23831	1869.00000
27.25506	2176.00000
27.27180	2525.00000
27.28855	2904.00000
27.30530	3390.00000
27.32204	3910.00000
27.33879	4390.00000
27.35553	4950.00000
27.37228	5480.00000
27.38903	5980.00000
27.40577	6380.00000
27.42252	6630.00000
27.43926	6690.00000
27.45601	6580.00000
27.47276	6400.00000
27.48950	5970.00000
27.50625	5530.00000
27.52299	5020.00000
27.53974	4500.00000
27.55649	3930.00000
27.57323	3380.00000
27.58998	2917.00000
27.60672	2496.00000
27.62347	2137.00000
27.64022	1831.00000
27.65696	1580.00000
27.67371	1360.00000
27.69045	1184.00000
27.70720	1055.00000
27.72395	943.00000
27.74069	859.00000
27.75744	803.00000
27.77418	753.00000
27.79093	716.00000
27.80768	687.00000
27.82442	666.00000
27.84117	651.00000
27.85791	634.00000
27.87466	626.00000
27.89141	615.00000
27.90815	624.00000
27.92490	615.00000
27.94164	623.00000
27.95839	630.00000
27.97514	629.00000
27.99188	623.00000
28.00863	643.00000
28.02537	654.00000
28.04212	650.00000
28.05887	650.00000
28.07561	640.00000
28.09236	642.00000
28.10910	640.00000
28.12585	630.00000
28.14260	608.00000
28.15934	612.00000
28.17609	605.00000
28.19283	591.00000
28.20958	588.00000
28.22633	596.00000
28.24307	599.00000
28.25982	608.00000
28.27656	602.00000
28.29331	618.00000
28.31006	635.00000
28.32680	658.00000
28.34355	674.00000
28.36029	696.00000
28.37704	717.00000
28.39379	760.00000
28.41053	781.00000
28.42728	821.00000
28.44402	848.00000
28.46077	874.00000
28.47752	901.00000
28.49426	914.00000
28.51101	908.00000
28.52775	899.00000
28.54450	876.00000
28.56125	869.00000
28.57799	821.00000
28.59474	778.00000
28.61148	743.00000
28.62823	707.00000
28.64498	656.00000
28.66172	635.00000
28.67847	599.00000
28.69521	576.00000
28.71196	554.00000
28.72871	526.00000
28.74545	539.00000
28.76220	514.00000
28.77894	521.00000
28.79569	517.00000
28.81244	514.00000
28.82918	526.00000
28.84593	518.00000
28.86267	536.00000
28.87942	537.00000
28.89617	530.00000
28.91291	526.00000
28.92966	540.00000
28.94640	545.00000
28.96315	555.00000
28.97990	545.00000
28.99664	558.00000
29.01339	561.00000
29.03013	563.00000
29.04688	585.00000
29.06363	608.00000
29.08037	612.00000
29.09712	624.00000
29.11386	643.00000
29.13061	681.00000
29.14736	699.00000
29.16410	716.00000
29.18085	753.00000
29.19759	747.00000
29.21434	753.00000
29.23109	747.00000
29.24783	757.00000
29.26458	741.00000
29.28132	726.00000
29.29807	689.00000
29.31482	667.00000
29.33156	640.00000
29.34831	599.00000
29.36505	585.00000
29.38180	555.00000
29.39855	521.00000
29.41529	511.00000
29.43204	479.00000
29.44878	458.00000
29.46553	442.00000
29.48228	428.00000
29.49902	430.00000
29.51577	415.00000
29.53251	403.00000
29.54926	406.00000
29.56601	393.00000
29.58275	392.00000
29.59950	371.00000
29.61624	382.00000
29.63299	379.00000
29.64974	383.00000
29.66648	366.00000
29.68323	366.00000
29.69997	370.00000
29.71672	366.00000
29.73347	375.00000
29.75021	372.00000
29.76696	370.00000
29.78370	365.00000
29.80045	358.00000
29.81720	361.00000
29.83394	361.00000
29.85069	364.00000
29.86743	376.00000
29.88418	367.00000
29.90093	362.00000
29.91767	366.00000
29.93442	360.00000
29.95116	354.00000
29.96791	359.00000
29.98466	355.00000
30.00140	347.00000
30.01815	355.00000
30.03489	350.00000
30.05164	359.00000
30.06839	348.00000
30.08513	352.00000
30.10188	352.00000
30.11862	347.00000
30.13537	352.00000
30.15212	349.00000
30.16886	349.00000
30.18561	348.00000
30.20235	361.00000
30.21910	339.00000
30.23585	349.00000
30.25259	346.00000
30.26934	349.00000
30.28608	350.00000
30.30283	350.00000
30.31958	349.00000
30.33632	345.00000
30.35307	352.00000
30.36981	356.00000
30.38656	346.00000
30.40331	352.00000
30.42005	352.00000
30.43680	353.00000
30.45354	355.00000
30.47029	345.00000
30.48704	359.00000
30.50378	354.00000
30.52053	358.00000
30.53727	356.00000
30.55402	352.00000
30.57077	361.00000
30.58751	387.00000
30.60426	378.00000
30.62100	398.00000
30.63775	413.00000
30.65450	411.00000
30.67124	433.00000
30.68799	465.00000
30.70473	487.00000
30.72148	508.00000
30.73823	573.00000
30.75497	601.00000
30.77172	672.00000
30.78846	691.00000
30.80521	729.00000
30.82196	757.00000
30.83870	766.00000
30.85545	736.00000
30.87219	776.00000
30.88894	745.00000
30.90569	741.00000
30.92243	731.00000
30.93918	694.00000
30.95592	654.00000
30.97267	648.00000
30.98942	602.00000
31.00616	591.00000
31.02291	596.00000
31.03965	564.00000
31.05640	551.00000
31.07315	536.00000
31.08989	521.00000
31.10664	498.00000
31.12338	483.00000
31.14013	479.00000
31.15688	445.00000
31.17362	444.00000
31.19037	432.00000
31.20711	416.00000
31.22386	419.00000
31.24061	398.00000
31.25735	397.00000
31.27410	384.00000
31.29084	375.00000
31.30759	383.00000
31.32434	372.00000
31.34108	361.00000
31.35783	364.00000
31.37457	360.00000
31.39132	371.00000
31.40807	371.00000
31.42481	372.00000
31.44156	371.00000
31.45830	378.00000
31.47505	373.00000
31.49180	366.00000
31.50854	384.00000
31.52529	378.00000
31.54203	383.00000
31.55878	391.00000
31.57553	378.00000
31.59227	377.00000
31.60902	375.00000
31.62576	387.00000
31.64251	375.00000
31.65926	384.00000
31.67600	366.00000
31.69275	354.00000
31.70949	370.00000
31.72624	365.00000
31.74299	339.00000
31.75973	346.00000
31.77648	341.00000
31.79322	349.00000
31.80997	329.00000
31.82672	328.00000
31.84346	335.00000
31.86021	316.00000
31.87695	314.00000
31.89370	316.00000
31.91045	307.00000
31.92719	305.00000
31.94394	305.00000
31.96068	314.00000
31.97743	300.00000
31.99418	297.00000
32.01092	293.00000
32.02767	300.00000
32.04441	297.00000
32.06116	303.00000
32.07791	296.00000
32.09465	303.00000
32.11140	309.00000
32.12814	295.00000
32.14489	307.00000
32.16164	300.00000
32.17838	296.00000
32.19513	299.00000
32.21187	296.00000
32.22862	299.00000
32.24537	298.00000
32.26211	296.00000
32.27886	303.00000
32.29560	301.00000
32.31235	295.00000
32.32910	298.00000
32.34584	296.00000
32.36259	295.00000
32.37933	307.00000
32.39608	291.00000
32.41283	305.00000
32.42957	291.00000
32.44632	294.00000
32.46306	300.00000
32.47981	299.00000
32.49656	300.00000
32.51330	300.00000
32.53005	291.00000
32.54679	305.00000
32.56354	295.00000
32.58029	298.00000
32.59703	296.00000
32.61378	304.00000
32.63052	293.00000
32.64727	304.00000
32.66402	311.00000
32.68076	299.00000
32.69751	294.00000
32.71425	285.00000
32.73100	301.00000
32.74775	298.00000
32.76449	308.00000
32.78124	304.00000
32.79798	320.00000
32.81473	312.00000
32.83148	317.00000
32.84822	320.00000
32.86497	325.00000
32.88171	334.00000
32.89846	338.00000
32.91521	332.00000
32.93195	326.00000
32.94870	352.00000
32.96544	340.00000
32.98219	354.00000
32.99894	358.00000
33.01568	376.00000
33.03243	376.00000
33.04917	377.00000
33.06592	373.00000
33.08267	388.00000
33.09941	394.00000
33.11616	387.00000
33.13290	391.00000
33.14965	408.00000
33.16640	415.00000
33.18314	424.00000
33.19989	429.00000
33.21663	420.00000
33.23338	441.00000
33.25013	437.00000
33.26687	452.00000
33.28362	450.00000
33.30036	446.00000
33.31711	453.00000
33.33386	457.00000
33.35060	465.00000
33.36735	482.00000
33.38409	480.00000
33.40084	471.00000
33.41759	483.00000
33.43433	496.00000
33.45108	494.00000
33.46782	493.00000
33.48457	484.00000
33.50132	491.00000
33.51806	471.00000
33.53481	466.00000
33.55155	464.00000
33.56830	452.00000
33.58505	456.00000
33.60179	448.00000
33.61854	419.00000
33.63528	406.00000
33.65203	379.00000
33.66878	365.00000
33.68552	358.00000
33.70227	342.00000
33.71901	339.00000
33.73576	319.00000
33.75251	314.00000
33.76925	307.00000
33.78600	297.00000
33.80274	286.00000
33.81949	281.00000
33.83624	291.00000
33.85298	277.00000
33.86973	269.00000
33.88647	272.00000
33.90322	269.00000
33.91997	277.00000
33.93671	270.00000
33.95346	267.00000
33.97020	267.00000
33.98695	264.00000
34.00370	274.00000
34.02044	267.00000
34.03719	266.00000
34.05393	276.00000
34.07068	272.00000
34.08743	272.00000
34.10417	278.00000
34.12092	281.00000
34.13766	266.00000
34.15441	286.00000
34.17116	286.00000
34.18790	270.00000
34.20465	284.00000
34.22139	306.00000
34.23814	305.00000
34.25489	308.00000
34.27163	309.00000
34.28838	316.00000
34.30512	325.00000
34.32187	325.00000
34.33862	325.00000
34.35536	339.00000
34.37211	347.00000
34.38885	343.00000
34.40560	333.00000
34.42235	346.00000
34.43909	338.00000
34.45584	335.00000
34.47258	340.00000
34.48933	323.00000
34.50608	331.00000
34.52282	326.00000
34.53957	318.00000
34.55631	318.00000
34.57306	318.00000
34.58981	320.00000
34.60655	311.00000
34.62330	308.00000
34.64004	318.00000
34.65679	305.00000
34.67354	307.00000
34.69028	316.00000
34.70703	314.00000
34.72377	316.00000
34.74052	324.00000
34.75727	329.00000
34.77401	339.00000
34.79076	346.00000
34.80750	373.00000
34.82425	366.00000
34.84100	377.00000
34.85774	386.00000
34.87449	406.00000
34.89123	412.00000
34.90798	408.00000
34.92473	437.00000
34.94147	430.00000
34.95822	454.00000
34.97496	448.00000
34.99171	448.00000
35.00846	471.00000
35.02520	480.00000
35.04195	490.00000
35.05869	486.00000
35.07544	501.00000
35.09219	493.00000
35.10893	506.00000
35.12568	503.00000
35.14242	518.00000
35.15917	529.00000
35.17592	520.00000
35.19266	534.00000
35.20941	561.00000
35.22616	566.00000
35.24290	588.00000
35.25965	594.00000
35.27639	612.00000
35.29314	626.00000
35.30989	627.00000
35.32663	637.00000
35.34338	653.00000
35.36012	637.00000
35.37687	632.00000
35.39362	615.00000
35.41036	582.00000
35.42711	578.00000
35.44385	563.00000
35.46060	520.00000
35.47735	510.00000
35.49409	476.00000
35.51084	462.00000
35.52758	441.00000
35.54433	413.00000
35.56108	401.00000
35.57782	384.00000
35.59457	367.00000
35.61131	343.00000
35.62806	339.00000
35.64481	331.00000
35.66155	316.00000
35.67830	314.00000
35.69504	309.00000
35.71179	300.00000
35.72854	293.00000
35.74528	279.00000
35.76203	282.00000
35.77877	275.00000
35.79552	284.00000
35.81227	262.00000
35.82901	281.00000
35.84576	271.00000
35.86250	268.00000
35.87925	258.00000
35.89600	256.00000
35.91274	259.00000
35.92949	260.00000
35.94623	266.00000
35.96298	258.00000
35.97973	270.00000
35.99647	274.00000
36.01322	262.00000
36.02996	274.00000
36.04671	279.00000
36.06346	284.00000
36.08020	287.00000
36.09695	288.00000
36.11369	297.00000
36.13044	319.00000
36.14719	319.00000
36.16393	320.00000
36.18068	334.00000
36.19742	339.00000
36.21417	353.00000
36.23092	356.00000
36.24766	362.00000
36.26441	373.00000
36.28115	386.00000
36.29790	382.00000
36.31465	389.00000
36.33139	403.00000
36.34814	410.00000
36.36488	386.00000
36.38163	403.00000
36.39838	384.00000
36.41512	377.00000
36.43187	375.00000
36.44861	366.00000
36.46536	348.00000
36.48211	336.00000
36.49885	320.00000
36.51560	310.00000
36.53234	299.00000
36.54909	308.00000
36.56584	286.00000
36.58258	272.00000
36.59933	272.00000
36.61607	274.00000
36.63282	260.00000
36.64957	256.00000
36.66631	250.00000
36.68306	249.00000
36.69980	244.00000
36.71655	251.00000
36.73330	247.00000
36.75004	236.00000
36.76679	240.00000
36.78353	243.00000
36.80028	226.00000
36.81703	241.00000
36.83377	244.00000
36.85052	244.00000
36.86726	241.00000
36.88401	248.00000
36.90076	252.00000
36.91750	266.00000
36.93425	261.00000
36.95099	269.00000
36.96774	270.00000
36.98449	274.00000
37.00123	282.00000
37.01798	287.00000
37.03472	292.00000
37.05147	296.00000
37.06822	289.00000
37.08496	309.00000
37.10171	307.00000
37.11845	312.00000
37.13520	309.00000
37.15195	305.00000
37.16869	300.00000
37.18544	304.00000
37.20218	298.00000
37.21893	288.00000
37.23568	287.00000
37.25242	268.00000
37.26917	271.00000
37.28591	272.00000
37.30266	262.00000
37.31941	257.00000
37.33615	254.00000
37.35290	247.00000
37.36964	239.00000
37.38639	237.00000
37.40314	233.00000
37.41988	228.00000
37.43663	229.00000
37.45337	228.00000
37.47012	231.00000
37.48687	231.00000
37.50361	232.00000
37.52036	228.00000
37.53710	225.00000
37.55385	227.00000
37.57060	234.00000
37.58734	234.00000
37.60409	228.00000
37.62083	240.00000
37.63758	234.00000
37.65433	237.00000
37.67107	233.00000
37.68782	244.00000
37.70456	248.00000
37.72131	252.00000
37.73806	251.00000
37.75480	258.00000
37.77155	266.00000
37.78829	271.00000
37.80504	269.00000
37.82179	287.00000
37.83853	294.00000
37.85528	309.00000
37.87202	310.00000
37.88877	308.00000
37.90552	315.00000
37.92226	316.00000
37.93901	318.00000
37.95575	328.00000
37.97250	323.00000
37.98925	321.00000
38.00599	310.00000
38.02274	305.00000
38.03948	297.00000
38.05623	308.00000
38.07298	289.00000
38.08972	285.00000
38.10647	284.00000
38.12321	291.00000
38.13996	285.00000
38.15671	295.00000
38.17345	286.00000
38.19020	288.00000
38.20694	275.00000
38.22369	279.00000
38.24044	282.00000
38.25718	283.00000
38.27393	278.00000
38.29067	278.00000
38.30742	269.00000
38.32417	277.00000
38.34091	272.00000
38.35766	271.00000
38.37440	263.00000
38.39115	277.00000
38.40790	261.00000
38.42464	255.00000
38.44139	268.00000
38.45813	263.00000
38.47488	256.00000
38.49163	247.00000
38.50837	260.00000
38.52512	250.00000
38.54186	250.00000
38.55861	253.00000
38.57536	243.00000
38.59210	248.00000
38.60885	253.00000
38.62559	245.00000
38.64234	238.00000
38.65909	245.00000
38.67583	248.00000
38.69258	245.00000
38.70932	238.00000
38.72607	245.00000
38.74282	248.00000
38.75956	247.00000
38.77631	253.00000
38.79305	243.00000
38.80980	248.00000
38.82655	252.00000
38.84329	263.00000
38.86004	258.00000
38.87678	260.00000
38.89353	272.00000
38.91028	277.00000
38.92702	284.00000
38.94377	286.00000
38.96051	295.00000
38.97726	297.00000
38.99401	335.00000
39.01075	335.00000
39.02750	334.00000
39.04424	349.00000
39.06099	372.00000
39.07774	382.00000
39.09448	398.00000
39.11123	405.00000
39.12797	413.00000
39.14472	416.00000
39.16147	412.00000
39.17821	421.00000
39.19496	421.00000
39.21170	399.00000
39.22845	396.00000
39.24520	392.00000
39.26194	378.00000
39.27869	371.00000
39.29543	356.00000
39.31218	348.00000
39.32893	334.00000
39.34567	329.00000
39.36242	301.00000
39.37916	298.00000
39.39591	280.00000
39.41266	270.00000
39.42940	270.00000
39.44615	261.00000
39.46289	249.00000
39.47964	253.00000
39.49639	241.00000
39.51313	244.00000
39.52988	248.00000
39.54662	234.00000
39.56337	236.00000
39.58012	236.00000
39.59686	236.00000
39.61361	238.00000
39.63035	239.00000
39.64710	241.00000
39.66385	250.00000
39.68059	256.00000
39.69734	266.00000
39.71408	260.00000
39.73083	272.00000
39.74758	257.00000
39.76432	274.00000
39.78107	261.00000
39.79781	270.00000
39.81456	255.00000
39.83131	250.00000
39.84805	252.00000
39.86480	248.00000
39.88154	241.00000
39.89829	236.00000
39.91504	232.00000
39.93178	232.00000
39.94853	222.00000
39.96527	227.00000
39.98202	227.00000
39.99877	205.00000
40.01551	216.00000
40.03226	218.00000
40.04900	211.00000
40.06575	210.00000
40.08250	218.00000
40.09924	211.00000
40.11599	213.00000
40.13273	213.00000
40.14948	216.00000
40.16623	220.00000
40.18297	226.00000
40.19972	215.00000
40.21646	221.00000
40.23321	213.00000
40.24996	226.00000
40.26670	227.00000
40.28345	228.00000
40.30019	225.00000
40.31694	222.00000
40.33369	224.00000
40.35043	216.00000
40.36718	209.00000
40.38392	217.00000
40.40067	215.00000
40.41742	206.00000
40.43416	211.00000
40.45091	213.00000
40.46765	214.00000
40.48440	213.00000
40.50115	209.00000
40.51789	212.00000
40.53464	213.00000
40.55138	215.00000
40.56813	218.00000
40.58488	211.00000
40.60162	218.00000
40.61837	220.00000
40.63511	204.00000
40.65186	213.00000
40.66861	216.00000
40.68535	213.00000
40.70210	212.00000
40.71884	214.00000
40.73559	216.00000
40.75234	212.00000
40.76908	211.00000
40.78583	222.00000
40.80257	228.00000
40.81932	219.00000
40.83607	221.00000
40.85281	237.00000
40.86956	243.00000
40.88630	251.00000
40.90305	252.00000
40.91980	253.00000
40.93654	265.00000
40.95329	275.00000
40.97003	282.00000
40.98678	285.00000
41.00353	265.00000
41.02027	281.00000
41.03702	274.00000
41.05376	276.00000
41.07051	281.00000
41.08726	265.00000
41.10400	263.00000
41.12075	254.00000
41.13749	252.00000
41.15424	254.00000
41.17099	242.00000
41.18773	242.00000
41.20448	245.00000
41.22122	238.00000
41.23797	232.00000
41.25472	236.00000
41.27146	231.00000
41.28821	235.00000
41.30495	242.00000
41.32170	238.00000
41.33845	233.00000
41.35519	237.00000
41.37194	255.00000
41.38868	258.00000
41.40543	261.00000
41.42218	269.00000
41.43892	271.00000
41.45567	271.00000
41.47241	270.00000
41.48916	284.00000
41.50591	283.00000
41.52265	293.00000
41.53940	295.00000
41.55614	293.00000
41.57289	287.00000
41.58964	295.00000
41.60638	308.00000
41.62313	306.00000
41.63987	301.00000
41.65662	299.00000
41.67337	307.00000
41.69011	299.00000
41.70686	298.00000
41.72360	299.00000
41.74035	307.00000
41.75710	307.00000
41.77384	308.00000
41.79059	308.00000
41.80733	309.00000
41.82408	310.00000
41.84083	305.00000
41.85757	315.00000
41.87432	314.00000
41.89106	310.00000
41.90781	304.00000
41.92456	312.00000
41.94130	297.00000
41.95805	300.00000
41.97479	297.00000
41.99154	297.00000
42.00829	292.00000
42.02503	289.00000
42.04178	264.00000
42.05852	264.00000
42.07527	256.00000
42.09202	258.00000
42.10876	247.00000
42.12551	232.00000
42.14225	232.00000
42.15900	223.00000
42.17575	222.00000
42.19249	224.00000
42.20924	219.00000
42.22598	214.00000
42.24273	219.00000
42.25948	213.00000
42.27622	208.00000
42.29297	205.00000
42.30971	209.00000
42.32646	205.00000
42.34321	200.00000
42.35995	206.00000
42.37670	205.00000
42.39344	203.00000
42.41019	195.00000
42.42694	205.00000
42.44368	202.00000
42.46043	204.00000
42.47717	206.00000
42.49392	203.00000
42.51067	218.00000
42.52741	212.00000
42.54416	220.00000
42.56090	224.00000
42.57765	217.00000
42.59440	219.00000
42.61114	227.00000
42.62789	228.00000
42.64463	223.00000
42.66138	230.00000
42.67813	233.00000
42.69487	239.00000
42.71162	232.00000
42.72836	233.00000
42.74511	233.00000
42.76186	231.00000
42.77860	223.00000
42.79535	223.00000
42.81209	226.00000
42.82884	229.00000
42.84559	228.00000
42.86233	222.00000
42.87908	234.00000
42.89582	221.00000
42.91257	230.00000
42.92932	215.00000
42.94606	220.00000
42.96281	223.00000
42.97955	228.00000
42.99630	223.00000
43.01305	216.00000
43.02979	210.00000
43.04654	220.00000
43.06328	213.00000
43.08003	211.00000
43.09678	196.00000
43.11352	207.00000
43.13027	203.00000
43.14701	202.00000
43.16376	201.00000
43.18051	212.00000
43.19725	203.00000
43.21400	199.00000
43.23074	198.00000
43.24749	194.00000
43.26424	194.00000
43.28098	198.00000
43.29773	197.00000
43.31447	195.00000
43.33122	191.00000
43.34797	194.00000
43.36471	198.00000
43.38146	188.00000
43.39820	197.00000
43.41495	196.00000
43.43170	198.00000
43.44844	203.00000
43.46519	194.00000
43.48193	203.00000
43.49868	213.00000
43.51543	213.00000
43.53217	206.00000
43.54892	213.00000
43.56566	215.00000
43.58241	224.00000
43.59916	223.00000
43.61590	229.00000
43.63265	232.00000
43.64939	228.00000
43.66614	233.00000
43.68289	228.00000
43.69963	239.00000
43.71638	248.00000
43.73312	249.00000
43.74987	256.00000
43.76662	259.00000
43.78336	255.00000
43.80011	263.00000
43.81685	268.00000
43.83360	269.00000
43.85035	268.00000
43.86709	264.00000
43.88384	267.00000
43.90058	272.00000
43.91733	267.00000
43.93408	258.00000
43.95082	270.00000
43.96757	271.00000
43.98431	254.00000
44.00106	271.00000
44.01781	257.00000
44.03455	264.00000
44.05130	258.00000
44.06804	262.00000
44.08479	251.00000
44.10154	259.00000
44.11828	247.00000
44.13503	245.00000
44.15177	242.00000
44.16852	249.00000
44.18527	249.00000
44.20201	249.00000
44.21876	240.00000
44.23550	244.00000
44.25225	236.00000
44.26900	243.00000
44.28574	253.00000
44.30249	247.00000
44.31923	248.00000
44.33598	252.00000
44.35273	251.00000
44.36947	256.00000
44.38622	261.00000
44.40296	259.00000
44.41971	261.00000
44.43646	268.00000
44.45320	265.00000
44.46995	272.00000
44.48669	265.00000
44.50344	269.00000
44.52019	265.00000
44.53693	268.00000
44.55368	262.00000
44.57042	258.00000
44.58717	254.00000
44.60392	253.00000
44.62066	255.00000
44.63741	257.00000
44.65415	253.00000
44.67090	254.00000
44.68765	256.00000
44.70439	246.00000
44.72114	252.00000
44.73788	257.00000
44.75463	248.00000
44.77138	260.00000
44.78812	250.00000
44.80487	257.00000
44.82161	253.00000
44.83836	253.00000
44.85511	258.00000
44.87185	267.00000
44.88860	246.00000
44.90534	245.00000
44.92209	249.00000
44.93884	244.00000
44.95558	241.00000
44.97233	253.00000
44.98907	240.00000
45.00582	237.00000
45.02257	231.00000
45.03931	228.00000
45.05606	228.00000
45.07280	208.00000
45.08955	216.00000
45.10630	210.00000
45.12304	213.00000
45.13979	209.00000
45.15653	213.00000
45.17328	207.00000
45.19003	205.00000
45.20677	207.00000
45.22352	206.00000
45.24026	204.00000
45.25701	207.00000
45.27376	207.00000
45.29050	213.00000
45.30725	207.00000
45.32399	214.00000
45.34074	216.00000
45.35749	217.00000
45.37423	213.00000
45.39098	213.00000
45.40772	218.00000
45.42447	219.00000
45.44122	220.00000
45.45796	228.00000
45.47471	230.00000
45.49145	231.00000
45.50820	230.00000
45.52495	232.00000
45.54169	239.00000
45.55844	240.00000
45.57518	234.00000
45.59193	251.00000
45.60868	240.00000
45.62542	247.00000
45.64217	251.00000
45.65891	248.00000
45.67566	254.00000
45.69241	250.00000
45.70915	267.00000
45.72590	255.00000
45.74264	254.00000
45.75939	272.00000
45.77614	270.00000
45.79288	263.00000
45.80963	275.00000
45.82637	270.00000
45.84312	269.00000
45.85987	272.00000
45.87661	256.00000
45.89336	265.00000
45.91010	260.00000
45.92685	263.00000
45.94360	259.00000
45.96034	248.00000
45.97709	238.00000
45.99383	246.00000
46.01058	239.00000
46.02733	243.00000
46.04407	237.00000
46.06082	243.00000
46.07756	229.00000
46.09431	228.00000
46.11106	230.00000
46.12780	219.00000
46.14455	226.00000
46.16129	224.00000
46.17804	219.00000
46.19479	214.00000
46.21153	215.00000
46.22828	218.00000
46.24502	200.00000
46.26177	216.00000
46.27852	207.00000
46.29526	210.00000
46.31201	217.00000
46.32875	217.00000
46.34550	215.00000
46.36225	211.00000
46.37899	216.00000
46.39574	206.00000
46.41248	214.00000
46.42923	213.00000
46.44598	215.00000
46.46272	216.00000
46.47947	206.00000
46.49621	217.00000
46.51296	219.00000
46.52971	211.00000
46.54645	209.00000
46.56320	213.00000
46.57994	211.00000
46.59669	206.00000
46.61344	199.00000
46.63018	208.00000
46.64693	208.00000
46.66367	194.00000
46.68042	200.00000
46.69717	194.00000
46.71391	187.00000
46.73066	194.00000
46.74740	193.00000
46.76415	189.00000
46.78090	188.00000
46.79764	187.00000
46.81439	181.00000
46.83113	187.00000
46.84788	179.00000
46.86463	178.00000
46.88137	178.00000
46.89812	175.00000
46.91486	180.00000
46.93161	176.00000
46.94836	181.00000
46.96510	184.00000
46.98185	187.00000
46.99859	183.00000
47.01534	177.00000
47.03209	182.00000
47.04883	171.00000
47.06558	176.00000
47.08232	176.00000
47.09907	172.00000
47.11582	178.00000
47.13256	176.00000
47.14931	180.00000
47.16605	187.00000
47.18280	187.00000
47.19955	182.00000
47.21629	186.00000
47.23304	182.00000
47.24978	181.00000
47.26653	187.00000
47.28328	191.00000
47.30002	196.00000
47.31677	194.00000
47.33351	195.00000
47.35026	195.00000
47.36701	187.00000
47.38375	194.00000
47.40050	201.00000
47.41724	195.00000
47.43399	203.00000
47.45074	198.00000
47.46748	200.00000
47.48423	199.00000
47.50097	213.00000
47.51772	213.00000
47.53447	205.00000
47.55121	213.00000
47.56796	203.00000
47.58470	202.00000
47.60145	213.00000
47.61820	209.00000
47.63494	205.00000
47.65169	207.00000
47.66843	204.00000
47.68518	207.00000
47.70193	205.00000
47.71867	197.00000
47.73542	201.00000
47.75216	194.00000
47.76891	195.00000
47.78566	187.00000
47.80240	196.00000
47.81915	191.00000
47.83589	194.00000
47.85264	197.00000
47.86939	194.00000
47.88613	194.00000
47.90288	195.00000
47.91962	197.00000
47.93637	188.00000
47.95312	198.00000
47.96986	194.00000
47.98661	193.00000
48.00335	191.00000
48.02010	196.00000
48.03685	206.00000
48.05359	200.00000
48.07034	191.00000
48.08708	190.00000
48.10383	183.00000
48.12058	194.00000
48.13732	188.00000
48.15407	187.00000
48.17081	181.00000
48.18756	178.00000
48.20431	181.00000
48.22105	176.00000
48.23780	185.00000
48.25454	177.00000
48.27129	172.00000
48.28804	177.00000
48.30478	175.00000
48.32153	178.00000
48.33827	166.00000
48.35502	171.00000
48.37177	178.00000
48.38851	171.00000
48.40526	191.00000
48.42200	187.00000
48.43875	185.00000
48.45550	187.00000
48.47224	190.00000
48.48899	189.00000
48.50573	189.00000
48.52248	190.00000
48.53923	194.00000
48.55597	197.00000
48.57272	189.00000
48.58946	194.00000
48.60621	195.00000
48.62296	193.00000
48.63970	195.00000
48.65645	196.00000
48.67319	205.00000
48.68994	199.00000
48.70669	195.00000
48.72343	199.00000
48.74018	207.00000
48.75692	202.00000
48.77367	212.00000
48.79042	203.00000
48.80716	197.00000
48.82391	204.00000
48.84065	211.00000
48.85740	205.00000
48.87415	198.00000
48.89089	200.00000
48.90764	201.00000
48.92438	197.00000
48.94113	194.00000
48.95788	190.00000
48.97462	198.00000
48.99137	194.00000
49.00811	196.00000
49.02486	192.00000
49.04161	196.00000
49.05835	179.00000
49.07510	194.00000
49.09184	205.00000
49.10859	196.00000
49.12534	193.00000
49.14208	202.00000
49.15883	207.00000
49.17557	212.00000
49.19232	206.00000
49.20907	206.00000
49.22581	211.00000
49.24256	206.00000
49.25930	202.00000
49.27605	216.00000
49.29280	219.00000
49.30954	219.00000
49.32629	214.00000
49.34303	210.00000
49.35978	213.00000
49.37653	216.00000
49.39327	229.00000
49.41002	222.00000
49.42676	216.00000
49.44351	224.00000
49.46026	227.00000
49.47700	228.00000
49.49375	228.00000
49.51049	219.00000
49.52724	222.00000
49.54399	230.00000
49.56073	229.00000
49.57748	228.00000
49.59422	223.00000
49.61097	224.00000
49.62772	221.00000
49.64446	224.00000
49.66121	223.00000
49.67795	218.00000
49.69470	217.00000
49.71145	223.00000
49.72819	217.00000
49.74494	213.00000
49.76168	213.00000
49.77843	217.00000
49.79518	217.00000
49.81192	218.00000
49.82867	223.00000
49.84541	217.00000
49.86216	213.00000
49.87891	213.00000
49.89565	215.00000
49.91240	220.00000
49.92914	223.00000
49.94589	213.00000
49.96264	217.00000
49.97938	219.00000
49.99613	222.00000
50.01287	218.00000
50.02962	219.00000
50.04637	211.00000
50.06311	211.00000
50.07986	206.00000
50.09660	210.00000
50.11335	202.00000
50.13010	201.00000
50.14684	195.00000
50.16359	190.00000
50.18033	187.00000
50.19708	187.00000
50.21383	191.00000
50.23057	179.00000
50.24732	187.00000
50.26406	184.00000
50.28081	180.00000
50.29756	172.00000
50.31430	174.00000
50.33105	176.00000
50.34779	181.00000
50.36454	166.00000
50.38129	185.00000
50.39803	183.00000
50.41478	176.00000
50.43152	182.00000
50.44827	181.00000
50.46502	171.00000
50.48176	172.00000
50.49851	174.00000
50.51525	176.00000
50.53200	171.00000
50.54875	171.00000
50.56549	174.00000
50.58224	184.00000
50.59898	183.00000
50.61573	162.00000
50.63248	171.00000
50.64922	166.00000
50.66597	168.00000
50.68271	171.00000
50.69946	175.00000
50.71621	174.00000
50.73295	175.00000
50.74970	181.00000
50.76644	172.00000
50.78319	169.00000
50.79994	173.00000
50.81668	169.00000
50.83343	171.00000
50.85017	173.00000
50.86692	170.00000
50.88367	176.00000
50.90041	172.00000
50.91716	183.00000
50.93390	175.00000
50.95065	175.00000
50.96740	185.00000
50.98414	183.00000
51.00089	188.00000
51.01763	201.00000
51.03438	196.00000
51.05113	203.00000
51.06787	202.00000
51.08462	204.00000
51.10136	196.00000
51.11811	207.00000
51.13486	202.00000
51.15160	203.00000
51.16835	200.00000
51.18509	205.00000
51.20184	206.00000
51.21859	204.00000
51.23533	201.00000
51.25208	195.00000
51.26882	198.00000
51.28557	200.00000
51.30232	192.00000
51.31906	192.00000
51.33581	191.00000
51.35255	199.00000
51.36930	194.00000
51.38605	205.00000
51.40279	193.00000
51.41954	198.00000
51.43628	193.00000
51.45303	199.00000
51.46978	197.00000
51.48652	195.00000
51.50327	189.00000
51.52001	189.00000
51.53676	184.00000
51.55351	184.00000
51.57025	182.00000
51.58700	188.00000
51.60374	187.00000
51.62049	194.00000
51.63724	190.00000
51.65398	194.00000
51.67073	192.00000
51.68747	209.00000
51.70422	200.00000
51.72097	202.00000
51.73771	192.00000
51.75446	204.00000
51.77120	211.00000
51.78795	208.00000
51.80470	220.00000
51.82144	210.00000
51.83819	210.00000
51.85493	201.00000
51.87168	202.00000
51.88843	202.00000
51.90517	207.00000
51.92192	196.00000
51.93866	208.00000
51.95541	197.00000
51.97216	203.00000
51.98890	202.00000
52.00565	197.00000
52.02239	198.00000
52.03914	189.00000
52.05589	197.00000
52.07263	194.00000
52.08938	191.00000
52.10612	180.00000
52.12287	193.00000
52.13962	187.00000
52.15636	187.00000
52.17311	195.00000
52.18985	186.00000
52.20660	185.00000
52.22335	189.00000
52.24009	187.00000
52.25684	191.00000
52.27358	198.00000
52.29033	184.00000
52.30708	200.00000
52.32382	200.00000
52.34057	195.00000
52.35731	194.00000
52.37406	192.00000
52.39081	191.00000
52.40755	196.00000
52.42430	203.00000
52.44104	205.00000
52.45779	201.00000
52.47454	204.00000
52.49128	199.00000
52.50803	194.00000
52.52477	204.00000
52.54152	195.00000
52.55827	196.00000
52.57501	201.00000
52.59176	195.00000
52.60850	197.00000
52.62525	194.00000
52.64200	200.00000
52.65874	200.00000
52.67549	198.00000
52.69223	204.00000
52.70898	199.00000
52.72573	203.00000
52.74247	192.00000
52.75922	195.00000
52.77596	202.00000
52.79271	198.00000
52.80946	200.00000
52.82620	200.00000
52.84295	192.00000
52.85969	192.00000
52.87644	195.00000
52.89319	201.00000
52.90993	197.00000
52.92668	192.00000
52.94342	202.00000
52.96017	205.00000
52.97692	202.00000
52.99366	194.00000
53.01041	203.00000
53.02715	199.00000
53.04390	200.00000
53.06065	204.00000
53.07739	205.00000
53.09414	202.00000
53.11088	197.00000
53.12763	211.00000
53.14438	202.00000
53.16112	203.00000
53.17787	217.00000
53.19461	213.00000
53.21136	204.00000
53.22811	205.00000
53.24485	200.00000
53.26160	201.00000
53.27834	207.00000
53.29509	209.00000
53.31184	204.00000
53.32858	205.00000
53.34533	201.00000
53.36207	205.00000
53.37882	207.00000
53.39557	196.00000
53.41231	203.00000
53.42906	209.00000
53.44580	208.00000
53.46255	207.00000
53.47930	200.00000
53.49604	203.00000
53.51279	187.00000
53.52953	187.00000
53.54628	201.00000
53.56303	191.00000
53.57977	197.00000
53.59652	191.00000
53.61326	189.00000
53.63001	203.00000
53.64676	200.00000
53.66350	188.00000
53.68025	194.00000
53.69699	191.00000
53.71374	182.00000
53.73049	178.00000
53.74723	179.00000
53.76398	177.00000
53.78072	187.00000
53.79747	184.00000
53.81422	181.00000
53.83096	180.00000
53.84771	178.00000
53.86445	188.00000
53.88120	182.00000
53.89795	182.00000
53.91469	188.00000
53.93144	179.00000
53.94818	184.00000
53.96493	198.00000
53.98168	191.00000
53.99842	184.00000
54.01517	194.00000
54.03191	194.00000
54.04866	194.00000
54.06541	190.00000
54.08215	191.00000
54.09890	194.00000
54.11564	203.00000
54.13239	200.00000
54.14914	214.00000
54.16588	207.00000
54.18263	207.00000
54.19937	216.00000
54.21612	216.00000
54.23287	214.00000
54.24961	207.00000
54.26636	203.00000
54.28310	214.00000
54.29985	216.00000
54.31660	213.00000
54.33334	205.00000
54.35009	200.00000
54.36683	213.00000
54.38358	205.00000
54.40033	200.00000
54.41707	205.00000
54.43382	209.00000
54.45056	199.00000
54.46731	199.00000
54.48406	202.00000
54.50080	190.00000
54.51755	190.00000
54.53429	188.00000
54.55104	185.00000
54.56779	189.00000
54.58453	194.00000
54.60128	187.00000
54.61802	178.00000
54.63477	187.00000
54.65152	178.00000
54.66826	184.00000
54.68501	178.00000
54.70175	186.00000
54.71850	188.00000
54.73525	197.00000
54.75199	195.00000
54.76874	191.00000
54.78548	187.00000
54.80223	194.00000
54.81898	187.00000
54.83572	184.00000
54.85247	185.00000
54.86921	186.00000
54.88596	186.00000
54.90271	193.00000
54.91945	198.00000
54.93620	194.00000
54.95294	194.00000
54.96969	193.00000
54.98644	189.00000
55.00318	187.00000
55.01993	192.00000
55.03667	193.00000
55.05342	189.00000
55.07017	187.00000
55.08691	182.00000
55.10366	188.00000
55.12040	193.00000
55.13715	187.00000
55.15390	183.00000
55.17064	186.00000
55.18739	192.00000
55.20413	185.00000
55.22088	185.00000
55.23763	189.00000
55.25437	190.00000
55.27112	189.00000
55.28786	194.00000
55.30461	187.00000
55.32136	181.00000
55.33810	192.00000
55.35485	193.00000
55.37159	194.00000
55.38834	188.00000
55.40509	194.00000
55.42183	185.00000
55.43858	190.00000
55.45532	185.00000
55.47207	185.00000
55.48882	183.00000
55.50556	187.00000
55.52231	183.00000
55.53905	192.00000
55.55580	180.00000
55.57255	174.00000
55.58929	172.00000
55.60604	181.00000
55.62278	185.00000
55.63953	176.00000
55.65628	178.00000
55.67302	168.00000
55.68977	171.00000
55.70651	181.00000
55.72326	179.00000
55.74001	171.00000
55.75675	176.00000
55.77350	171.00000
55.79024	169.00000
55.80699	182.00000
55.82374	173.00000
55.84048	174.00000
55.85723	181.00000
55.87397	179.00000
55.89072	176.00000
55.90747	166.00000
55.92421	168.00000
55.94096	175.00000
55.95770	180.00000
55.97445	171.00000
55.99120	179.00000
56.00794	176.00000
56.02469	171.00000
56.04143	181.00000
56.05818	184.00000
56.07493	189.00000
56.09167	183.00000
56.10842	194.00000
56.12516	189.00000
56.14191	186.00000
56.15866	186.00000
56.17540	196.00000
56.19215	194.00000
56.20889	201.00000
56.22564	211.00000
56.24239	203.00000
56.25913	206.00000
56.27588	218.00000
56.29262	224.00000
56.30937	215.00000
56.32612	227.00000
56.34286	230.00000
56.35961	236.00000
56.37635	253.00000
56.39310	255.00000
56.40985	268.00000
56.42659	271.00000
56.44334	282.00000
56.46008	279.00000
56.47683	295.00000
56.49358	301.00000
56.51032	309.00000
56.52707	310.00000
56.54381	307.00000
56.56056	319.00000
56.57731	310.00000
56.59405	314.00000
56.61080	315.00000
56.62754	317.00000
56.64429	311.00000
56.66104	285.00000
56.67778	294.00000
56.69453	294.00000
56.71127	280.00000
56.72802	286.00000
56.74477	285.00000
56.76151	263.00000
56.77826	252.00000
56.79500	262.00000
56.81175	245.00000
56.82850	250.00000
56.84524	245.00000
56.86199	232.00000
56.87873	223.00000
56.89548	230.00000
56.91223	223.00000
56.92897	225.00000
56.94572	216.00000
56.96246	217.00000
56.97921	203.00000
56.99596	210.00000
57.01270	206.00000
57.02945	210.00000
57.04619	216.00000
57.06294	207.00000
57.07969	203.00000
57.09643	208.00000
57.11318	194.00000
57.12992	205.00000
57.14667	192.00000
57.16342	202.00000
57.18016	194.00000
57.19691	191.00000
57.21365	194.00000
57.23040	192.00000
57.24715	187.00000
57.26389	194.00000
57.28064	181.00000
57.29738	190.00000
57.31413	180.00000
57.33088	185.00000
57.34762	187.00000
57.36437	181.00000
57.38111	174.00000
57.39786	183.00000
57.41461	174.00000
57.43135	185.00000
57.44810	183.00000
57.46484	180.00000
57.48159	183.00000
57.49834	180.00000
57.51508	168.00000
57.53183	173.00000
57.54857	182.00000
57.56532	174.00000
57.58207	176.00000
57.59881	182.00000
57.61556	180.00000
57.63230	181.00000
57.64905	180.00000
57.66580	178.00000
57.68254	175.00000
57.69929	183.00000
57.71603	176.00000
57.73278	181.00000
57.74953	181.00000
57.76627	171.00000
57.78302	180.00000
57.79976	181.00000
57.81651	180.00000
57.83326	182.00000
57.85000	186.00000
57.86675	178.00000
57.88349	183.00000
57.90024	176.00000
57.91699	177.00000
57.93373	180.00000
57.95048	181.00000
57.96722	191.00000
57.98397	182.00000
58.00072	184.00000
58.01746	186.00000
58.03421	190.00000
58.05095	182.00000
58.06770	178.00000
58.08445	185.00000
58.10119	185.00000
58.11794	187.00000
58.13468	187.00000
58.15143	193.00000
58.16818	183.00000
58.18492	187.00000
58.20167	187.00000
58.21841	188.00000
58.23516	187.00000
58.25191	192.00000
58.26865	186.00000
58.28540	194.00000
58.30214	191.00000
58.31889	187.00000
58.33564	184.00000
58.35238	192.00000
58.36913	202.00000
58.38587	185.00000
58.40262	194.00000
58.41937	182.00000
58.43611	192.00000
58.45286	185.00000
58.46960	182.00000
58.48635	186.00000
58.50310	183.00000
58.51984	180.00000
58.53659	183.00000
58.55333	176.00000
58.57008	171.00000
58.58683	175.00000
58.60357	177.00000
58.62032	172.00000
58.63706	178.00000
58.65381	164.00000
58.67056	171.00000
58.68730	172.00000
58.70405	175.00000
58.72079	186.00000
58.73754	181.00000
58.75429	172.00000
58.77103	176.00000
58.78778	178.00000
58.80452	175.00000
58.82127	166.00000
58.83802	178.00000
58.85476	175.00000
58.87151	179.00000
58.88825	171.00000
58.90500	179.00000
58.92175	184.00000
58.93849	171.00000
58.95524	167.00000
58.97198	168.00000
58.98873	170.00000
59.00548	168.00000
59.02222	171.00000
59.03897	162.00000
59.05571	163.00000
59.07246	164.00000
59.08921	171.00000
59.10595	161.00000
59.12270	170.00000
59.13944	166.00000
59.15619	167.00000
59.17294	167.00000
59.18968	162.00000
59.20643	160.00000
59.22317	158.00000
59.23992	166.00000
59.25667	166.00000
59.27341	156.00000
59.29016	158.00000
59.30690	166.00000
59.32365	162.00000
59.34040	163.00000
59.35714	167.00000
59.37389	160.00000
59.39063	162.00000
59.40738	162.00000
59.42413	158.00000
59.44087	154.00000
59.45762	162.00000
59.47436	160.00000
59.49111	160.00000
59.50786	162.00000
59.52460	158.00000
59.54135	165.00000
59.55809	166.00000
59.57484	160.00000
59.59159	166.00000
59.60833	162.00000
59.62508	156.00000
59.64182	154.00000
59.65857	155.00000
59.67532	158.00000
59.69206	152.00000
59.70881	160.00000
59.72555	166.00000
59.74230	151.00000
59.75905	162.00000
59.77579	154.00000
59.79254	154.00000
59.80928	153.00000
59.82603	155.00000
59.84278	159.00000
59.85952	158.00000
59.87627	159.00000
59.89301	154.00000
59.90976	151.00000
59.92651	153.00000
59.94325	158.00000
59.96000	160.00000
59.97674	147.00000
59.99349	157.00000
60.01024	160.00000
60.02698	158.00000
60.04373	167.00000
60.06047	159.00000
60.07722	168.00000
60.09397	162.00000
60.11071	163.00000
60.12746	162.00000
60.14420	169.00000
60.16095	162.00000
60.17770	166.00000
60.19444	162.00000
60.21119	176.00000
60.22793	163.00000
60.24468	169.00000
60.26143	164.00000
60.27817	168.00000
60.29492	171.00000
60.31166	165.00000
60.32841	163.00000
60.34516	156.00000
60.36190	169.00000
60.37865	163.00000
60.39539	158.00000
60.41214	159.00000
60.42889	154.00000
60.44563	158.00000
60.46238	165.00000
60.47912	164.00000
60.49587	157.00000
60.51262	160.00000
60.52936	159.00000
60.54611	168.00000
60.56285	162.00000
60.57960	158.00000
60.59635	166.00000
60.61309	157.00000
60.62984	169.00000
60.64658	159.00000
60.66333	155.00000
60.68008	166.00000
60.69682	162.00000
60.71357	154.00000
60.73031	151.00000
60.74706	166.00000
60.76381	162.00000
60.78055	158.00000
60.79730	164.00000
60.81404	163.00000
60.83079	165.00000
60.84754	159.00000
60.86428	162.00000
60.88103	162.00000
60.89777	162.00000
60.91452	154.00000
60.93127	154.00000
60.94801	158.00000
60.96476	158.00000
60.98150	154.00000
60.99825	161.00000
61.01500	141.00000
61.03174	159.00000
61.04849	144.00000
61.06523	154.00000
61.08198	151.00000
61.09873	157.00000
61.11547	156.00000
61.13222	150.00000
61.14896	144.00000
61.16571	144.00000
61.18246	144.00000
61.19920	151.00000
61.21595	155.00000
61.23269	145.00000
61.24944	144.00000
61.26619	156.00000
61.28293	143.00000
61.29968	146.00000
61.31642	151.00000
61.33317	152.00000
61.34992	143.00000
61.36666	151.00000
61.38341	144.00000
61.40015	142.00000
61.41690	147.00000
61.43365	139.00000
61.45039	154.00000
61.46714	140.00000
61.48388	141.00000
61.50063	148.00000
61.51738	144.00000
61.53412	150.00000
61.55087	144.00000
61.56761	136.00000
61.58436	148.00000
61.60111	148.00000
61.61785	142.00000
61.63460	143.00000
61.65134	147.00000
61.66809	138.00000
61.68484	150.00000
61.70158	143.00000
61.71833	141.00000
61.73507	141.00000
61.75182	146.00000
61.76857	148.00000
61.78531	147.00000
61.80206	144.00000
61.81880	145.00000
61.83555	149.00000
61.85230	145.00000
61.86904	141.00000
61.88579	138.00000
61.90253	148.00000
61.91928	139.00000
61.93603	142.00000
61.95277	140.00000
61.96952	144.00000
61.98626	146.00000
62.00301	144.00000
62.01976	138.00000
62.03650	142.00000
62.05325	141.00000
62.06999	146.00000
62.08674	145.00000
62.10349	140.00000
62.12023	147.00000
62.13698	144.00000
62.15372	148.00000
62.17047	147.00000
62.18722	144.00000
62.20396	141.00000
62.22071	144.00000
62.23745	146.00000
62.25420	151.00000
62.27095	147.00000
62.28769	147.00000
62.30444	143.00000
62.32118	145.00000
62.33793	141.00000
62.35468	141.00000
62.37142	148.00000
62.38817	143.00000
62.40491	144.00000
62.42166	137.00000
62.43841	148.00000
62.45515	151.00000
62.47190	148.00000
62.48864	139.00000
62.50539	144.00000
62.52214	141.00000
62.53888	143.00000
62.55563	142.00000
62.57237	154.00000
62.58912	154.00000
62.60587	152.00000
62.62261	147.00000
62.63936	154.00000
62.65610	144.00000
62.67285	145.00000
62.68960	147.00000
62.70634	154.00000
62.72309	152.00000
62.73983	143.00000
62.75658	154.00000
62.77333	146.00000
62.79007	147.00000
62.80682	144.00000
62.82356	150.00000
62.84031	145.00000
62.85706	147.00000
62.87380	151.00000
62.89055	147.00000
62.90729	148.00000
62.92404	144.00000
62.94079	141.00000
62.95753	142.00000
62.97428	141.00000
62.99102	137.00000
63.00777	138.00000
63.02452	138.00000
63.04126	141.00000
63.05801	140.00000
63.07475	148.00000
63.09150	142.00000
63.10825	138.00000
63.12499	147.00000
63.14174	138.00000
63.15848	147.00000
63.17523	141.00000
63.19198	138.00000
63.20872	140.00000
63.22547	136.00000
63.24221	141.00000
63.25896	144.00000
63.27571	143.00000
63.29245	142.00000
63.30920	139.00000
63.32594	140.00000
63.34269	132.00000
63.35944	130.00000
63.37618	138.00000
63.39293	141.00000
63.40967	136.00000
63.42642	140.00000
63.44317	135.00000
63.45991	139.00000
63.47666	135.00000
63.49340	140.00000
63.51015	141.00000
63.52690	138.00000
63.54364	150.00000
63.56039	139.00000
63.57713	146.00000
63.59388	143.00000
63.61063	150.00000
63.62737	140.00000
63.64412	135.00000
63.66086	138.00000
63.67761	144.00000
63.69436	149.00000
63.71110	140.00000
63.72785	137.00000
63.74459	142.00000
63.76134	143.00000
63.77809	141.00000
63.79483	140.00000
63.81158	141.00000
63.82832	148.00000
63.84507	142.00000
63.86182	147.00000
63.87856	145.00000
63.89531	142.00000
63.91205	154.00000
63.92880	154.00000
63.94555	148.00000
63.96229	152.00000
63.97904	154.00000
63.99578	152.00000
64.01253	151.00000
64.02928	156.00000
64.04602	164.00000
64.06277	152.00000
64.07951	153.00000
64.09626	152.00000
64.11301	152.00000
64.12975	154.00000
64.14650	155.00000
64.16324	153.00000
64.17999	157.00000
64.19674	148.00000
64.21348	163.00000
64.23023	162.00000
64.24697	158.00000
64.26372	152.00000
64.28047	157.00000
64.29721	159.00000
64.31396	157.00000
64.33070	158.00000
64.34745	154.00000
64.36420	154.00000
64.38094	147.00000
64.39769	147.00000
64.41443	155.00000
64.43118	159.00000
64.44793	146.00000
64.46467	147.00000
64.48142	151.00000
64.49816	144.00000
64.51491	138.00000
64.53166	146.00000
64.54840	136.00000
64.56515	145.00000
64.58189	141.00000
64.59864	141.00000
64.61539	149.00000
64.63213	141.00000
64.64888	136.00000
64.66562	146.00000
64.68237	144.00000
64.69912	144.00000
64.71586	140.00000
64.73261	144.00000
64.74935	140.00000
64.76610	144.00000
64.78285	134.00000
64.79959	144.00000
64.81634	139.00000
64.83308	138.00000
64.84983	136.00000
64.86658	131.00000
64.88332	147.00000
64.90007	138.00000
64.91681	138.00000
64.93356	127.00000
64.95031	138.00000
64.96705	133.00000
64.98380	138.00000
65.00054	142.00000
65.01729	137.00000
65.03404	135.00000
65.05078	134.00000
65.06753	137.00000
65.08427	142.00000
65.10102	138.00000
65.11777	144.00000
65.13451	136.00000
65.15126	138.00000
65.16800	137.00000
65.18475	144.00000
65.20150	133.00000
65.21824	133.00000
65.23499	140.00000
65.25173	144.00000
65.26848	135.00000
65.28523	147.00000
65.30197	137.00000
65.31872	145.00000
65.33546	141.00000
65.35221	139.00000
65.36896	141.00000
65.38570	148.00000
65.40245	138.00000
65.41919	141.00000
65.43594	148.00000
