3.31000	3265.00000
3.32000	3230.00000
3.33000	3277.00000
3.34000	3219.00000
3.35000	3197.00000
3.36000	3194.00000
3.37000	3238.00000
3.38000	3266.00000
3.39000	3257.00000
3.40000	3232.00000
3.41000	3225.00000
3.42000	3234.00000
3.43000	3221.00000
3.44000	3240.00000
3.45000	3280.00000
3.46000	3237.00000
3.47000	3217.00000
3.48000	3227.00000
3.49000	3251.00000
3.50000	3241.00000
3.51000	3285.00000
3.52000	3260.00000
3.53000	3205.00000
3.54000	3239.00000
3.55000	3241.00000
3.56000	3226.00000
3.57000	3228.00000
3.58000	3210.00000
3.59000	3231.00000
3.60000	3206.00000
3.61000	3223.00000
3.62000	3226.00000
3.63000	3236.00000
3.64000	3223.00000
3.65000	3236.00000
3.66000	3237.00000
3.67000	3248.00000
3.68000	3262.00000
3.69000	3242.00000
3.70000	3236.00000
3.71000	3233.00000
3.72000	3248.00000
3.73000	3249.00000
3.74000	3234.00000
3.75000	3251.00000
3.76000	3229.00000
3.77000	3213.00000
3.78000	3231.00000
3.79000	3230.00000
3.80000	3258.00000
3.81000	3266.00000
3.82000	3246.00000
3.83000	3225.00000
3.84000	3259.00000
3.85000	3255.00000
3.86000	3228.00000
3.87000	3256.00000
3.88000	3234.00000
3.89000	3219.00000
3.90000	3250.00000
3.91000	3210.00000
3.92000	3233.00000
3.93000	3256.00000
3.94000	3254.00000
3.95000	3226.00000
3.96000	3222.00000
3.97000	3254.00000
3.98000	3250.00000
3.99000	3243.00000
4.00000	3238.00000
4.01000	3224.00000
4.02000	3219.00000
4.03000	3223.00000
4.04000	3216.00000
4.05000	3243.00000
4.06000	3243.00000
4.07000	3228.00000
4.08000	3242.00000
4.09000	3241.00000
4.10000	3254.00000
4.11000	3242.00000
4.12000	3222.00000
4.13000	3230.00000
4.14000	3245.00000
4.15000	3246.00000
4.16000	3257.00000
4.17000	3258.00000
4.18000	3230.00000
4.19000	3215.00000
4.20000	3252.00000
4.21000	3261.00000
4.22000	3227.00000
4.23000	3269.00000
4.24000	3237.00000
4.25000	3243.00000
4.26000	3228.00000
4.27000	3270.00000
4.28000	3249.00000
4.29000	3263.00000
4.30000	3222.00000
4.31000	3226.00000
4.32000	3233.00000
4.33000	3224.00000
4.34000	3266.00000
4.35000	3273.00000
4.36000	3252.00000
4.37000	3229.00000
4.38000	3266.00000
4.39000	3268.00000
4.40000	3226.00000
4.41000	3256.00000
4.42000	3261.00000
4.43000	3237.00000
4.44000	3252.00000
4.45000	3227.00000
4.46000	3257.00000
4.47000	3278.00000
4.48000	3246.00000
4.49000	3252.00000
4.50000	3250.00000
4.51000	3274.00000
4.52000	3282.00000
4.53000	3254.00000
4.54000	3239.00000
4.55000	3233.00000
4.56000	3264.00000
4.57000	3256.00000
4.58000	3229.00000
4.59000	3258.00000
4.60000	3254.00000
4.61000	3252.00000
4.62000	3260.00000
4.63000	3271.00000
4.64000	3293.00000
4.65000	3316.00000
4.66000	3297.00000
4.67000	3317.00000
4.68000	3338.00000
4.69000	3283.00000
4.70000	3283.00000
4.71000	3288.00000
4.72000	3237.00000
4.73000	3265.00000
4.74000	3271.00000
4.75000	3267.00000
4.76000	3259.00000
4.77000	3281.00000
4.78000	3285.00000
4.79000	3271.00000
4.80000	3290.00000
4.81000	3290.00000
4.82000	3288.00000
4.83000	3293.00000
4.84000	3296.00000
4.85000	3269.00000
4.86000	3280.00000
4.87000	3303.00000
4.88000	3336.00000
4.89000	3337.00000
4.90000	3364.00000
4.91000	3349.00000
4.92000	3396.00000
4.93000	3441.00000
4.94000	3556.00000
4.95000	3797.00000
4.96000	4212.00000
4.97000	4839.00000
4.98000	5365.00000
4.99000	5331.00000
5.00000	4688.00000
5.01000	4038.00000
5.02000	3576.00000
5.03000	3393.00000
5.04000	3327.00000
5.05000	3299.00000
5.06000	3283.00000
5.07000	3299.00000
5.08000	3278.00000
5.09000	3226.00000
5.10000	3250.00000
5.11000	3264.00000
5.12000	3252.00000
5.13000	3252.00000
5.14000	3255.00000
5.15000	3248.00000
5.16000	3257.00000
5.17000	3283.00000
5.18000	3255.00000
5.19000	3288.00000
5.20000	3237.00000
5.21000	3261.00000
5.22000	3262.00000
5.23000	3272.00000
5.24000	3268.00000
5.25000	3261.00000
5.26000	3242.00000
5.27000	3244.00000
5.28000	3252.00000
5.29000	3270.00000
5.30000	3240.00000
5.31000	3242.00000
5.32000	3273.00000
5.33000	3263.00000
5.34000	3286.00000
5.35000	3254.00000
5.36000	3259.00000
5.37000	3296.00000
5.38000	3246.00000
5.39000	3248.00000
5.40000	3258.00000
5.41000	3288.00000
5.42000	3280.00000
5.43000	3279.00000
5.44000	3254.00000
5.45000	3250.00000
5.46000	3267.00000
5.47000	3267.00000
5.48000	3289.00000
5.49000	3272.00000
5.50000	3246.00000
5.51000	3263.00000
5.52000	3290.00000
5.53000	3258.00000
5.54000	3310.00000
5.55000	3277.00000
5.56000	3234.00000
5.57000	3239.00000
5.58000	3268.00000
5.59000	3253.00000
5.60000	3272.00000
5.61000	3273.00000
5.62000	3258.00000
5.63000	3249.00000
5.64000	3265.00000
5.65000	3248.00000
5.66000	3279.00000
5.67000	3287.00000
5.68000	3251.00000
5.69000	3257.00000
5.70000	3271.00000
5.71000	3255.00000
5.72000	3261.00000
5.73000	3272.00000
5.74000	3275.00000
5.75000	3264.00000
5.76000	3278.00000
5.77000	3290.00000
5.78000	3266.00000
5.79000	3284.00000
5.80000	3264.00000
5.81000	3259.00000
5.82000	3257.00000
5.83000	3279.00000
5.84000	3297.00000
5.85000	3283.00000
5.86000	3260.00000
5.87000	3228.00000
5.88000	3251.00000
5.89000	3297.00000
5.90000	3257.00000
5.91000	3301.00000
5.92000	3264.00000
5.93000	3275.00000
5.94000	3269.00000
5.95000	3285.00000
5.96000	3297.00000
5.97000	3335.00000
5.98000	3274.00000
5.99000	3242.00000
6.00000	3294.00000
6.01000	3296.00000
6.02000	3309.00000
6.03000	3302.00000
6.04000	3322.00000
6.05000	3326.00000
6.06000	3309.00000
6.07000	3284.00000
6.08000	3311.00000
6.09000	3323.00000
6.10000	3335.00000
6.11000	3293.00000
6.12000	3315.00000
6.13000	3315.00000
6.14000	3307.00000
6.15000	3338.00000
6.16000	3310.00000
6.17000	3311.00000
6.18000	3301.00000
6.19000	3337.00000
6.20000	3295.00000
6.21000	3330.00000
6.22000	3311.00000
6.23000	3317.00000
6.24000	3285.00000
6.25000	3293.00000
6.26000	3332.00000
6.27000	3355.00000
6.28000	3300.00000
6.29000	3327.00000
6.30000	3306.00000
6.31000	3339.00000
6.32000	3340.00000
6.33000	3354.00000
6.34000	3331.00000
6.35000	3329.00000
6.36000	3322.00000
6.37000	3316.00000
6.38000	3342.00000
6.39000	3338.00000
6.40000	3303.00000
6.41000	3314.00000
6.42000	3341.00000
6.43000	3332.00000
6.44000	3347.00000
6.45000	3374.00000
6.46000	3324.00000
6.47000	3331.00000
6.48000	3340.00000
6.49000	3338.00000
6.50000	3335.00000
6.51000	3348.00000
6.52000	3339.00000
6.53000	3314.00000
6.54000	3312.00000
6.55000	3350.00000
6.56000	3329.00000
6.57000	3357.00000
6.58000	3352.00000
6.59000	3346.00000
6.60000	3352.00000
6.61000	3353.00000
6.62000	3360.00000
6.63000	3362.00000
6.64000	3350.00000
6.65000	3354.00000
6.66000	3365.00000
6.67000	3381.00000
6.68000	3358.00000
6.69000	3372.00000
6.70000	3366.00000
6.71000	3371.00000
6.72000	3376.00000
6.73000	3388.00000
6.74000	3415.00000
6.75000	3440.00000
6.76000	3430.00000
6.77000	3393.00000
6.78000	3427.00000
6.79000	3461.00000
6.80000	3459.00000
6.81000	3498.00000
6.82000	3526.00000
6.83000	3561.00000
6.84000	3675.00000
6.85000	3787.00000
6.86000	3941.00000
6.87000	4221.00000
6.88000	4560.00000
6.89000	5041.00000
6.90000	5638.00000
6.91000	6091.00000
6.92000	6319.00000
6.93000	6138.00000
6.94000	5617.00000
6.95000	5095.00000
6.96000	4632.00000
6.97000	4282.00000
6.98000	4019.00000
6.99000	3871.00000
7.00000	3758.00000
7.01000	3605.00000
7.02000	3589.00000
7.03000	3571.00000
7.04000	3520.00000
7.05000	3528.00000
7.06000	3481.00000
7.07000	3455.00000
7.08000	3494.00000
7.09000	3455.00000
7.10000	3436.00000
7.11000	3461.00000
7.12000	3445.00000
7.13000	3439.00000
7.14000	3424.00000
7.15000	3475.00000
7.16000	3416.00000
7.17000	3477.00000
7.18000	3463.00000
7.19000	3468.00000
7.20000	3457.00000
7.21000	3435.00000
7.22000	3452.00000
7.23000	3470.00000
7.24000	3421.00000
7.25000	3421.00000
7.26000	3456.00000
7.27000	3434.00000
7.28000	3427.00000
7.29000	3459.00000
7.30000	3471.00000
7.31000	3407.00000
7.32000	3433.00000
7.33000	3446.00000
7.34000	3433.00000
7.35000	3436.00000
7.36000	3424.00000
7.37000	3422.00000
7.38000	3425.00000
7.39000	3445.00000
7.40000	3436.00000
7.41000	3494.00000
7.42000	3456.00000
7.43000	3459.00000
7.44000	3477.00000
7.45000	3456.00000
7.46000	3461.00000
7.47000	3465.00000
7.48000	3450.00000
7.49000	3432.00000
7.50000	3470.00000
7.51000	3457.00000
7.52000	3478.00000
7.53000	3504.00000
7.54000	3470.00000
7.55000	3514.00000
7.56000	3572.00000
7.57000	3593.00000
7.58000	3608.00000
7.59000	3633.00000
7.60000	3587.00000
7.61000	3538.00000
7.62000	3554.00000
7.63000	3571.00000
7.64000	3515.00000
7.65000	3533.00000
7.66000	3507.00000
7.67000	3503.00000
7.68000	3508.00000
7.69000	3526.00000
7.70000	3556.00000
7.71000	3505.00000
7.72000	3511.00000
7.73000	3490.00000
7.74000	3523.00000
7.75000	3537.00000
7.76000	3532.00000
7.77000	3571.00000
7.78000	3538.00000
7.79000	3546.00000
7.80000	3523.00000
7.81000	3574.00000
7.82000	3572.00000
7.83000	3584.00000
7.84000	3561.00000
7.85000	3563.00000
7.86000	3585.00000
7.87000	3588.00000
7.88000	3625.00000
7.89000	3623.00000
7.90000	3661.00000
7.91000	3664.00000
7.92000	3695.00000
7.93000	3717.00000
7.94000	3712.00000
7.95000	3749.00000
7.96000	3764.00000
7.97000	3778.00000
7.98000	3847.00000
7.99000	3931.00000
8.00000	3990.00000
8.01000	4081.00000
8.02000	4143.00000
8.03000	4238.00000
8.04000	4420.00000
8.05000	4652.00000
8.06000	4926.00000
8.07000	5356.00000
8.08000	5946.00000
8.09000	6809.00000
8.10000	8201.00000
8.11000	10188.00000
8.12000	13196.00000
8.13000	17317.00000
8.14000	21868.00000
8.15000	25972.00000
8.16000	27675.00000
8.17000	25609.00000
8.18000	21065.00000
8.19000	16255.00000
8.20000	12247.00000
8.21000	9399.00000
8.22000	7576.00000
8.23000	6347.00000
8.24000	5585.00000
8.25000	5069.00000
8.26000	4718.00000
8.27000	4447.00000
8.28000	4307.00000
8.29000	4213.00000
8.30000	4084.00000
8.31000	4041.00000
8.32000	3962.00000
8.33000	3904.00000
8.34000	3918.00000
8.35000	3925.00000
8.36000	3888.00000
8.37000	3911.00000
8.38000	3893.00000
8.39000	3905.00000
8.40000	3928.00000
8.41000	3989.00000
8.42000	4039.00000
8.43000	4174.00000
8.44000	4283.00000
8.45000	4493.00000
8.46000	4840.00000
8.47000	5380.00000
8.48000	6149.00000
8.49000	7328.00000
8.50000	8693.00000
8.51000	10184.00000
8.52000	11233.00000
8.53000	11051.00000
8.54000	9748.00000
8.55000	8085.00000
8.56000	6592.00000
8.57000	5529.00000
8.58000	4900.00000
8.59000	4478.00000
8.60000	4191.00000
8.61000	4029.00000
8.62000	3925.00000
8.63000	3862.00000
8.64000	3785.00000
8.65000	3740.00000
8.66000	3753.00000
8.67000	3700.00000
8.68000	3670.00000
8.69000	3649.00000
8.70000	3664.00000
8.71000	3653.00000
8.72000	3643.00000
8.73000	3640.00000
8.74000	3650.00000
8.75000	3593.00000
8.76000	3639.00000
8.77000	3622.00000
8.78000	3610.00000
8.79000	3650.00000
8.80000	3603.00000
8.81000	3609.00000
8.82000	3628.00000
8.83000	3629.00000
8.84000	3608.00000
8.85000	3620.00000
8.86000	3607.00000
8.87000	3601.00000
8.88000	3603.00000
8.89000	3604.00000
8.90000	3614.00000
8.91000	3657.00000
8.92000	3613.00000
8.93000	3613.00000
8.94000	3633.00000
8.95000	3668.00000
8.96000	3633.00000
8.97000	3694.00000
8.98000	3667.00000
8.99000	3651.00000
9.00000	3651.00000
9.01000	3655.00000
9.02000	3691.00000
9.03000	3720.00000
9.04000	3705.00000
9.05000	3684.00000
9.06000	3690.00000
9.07000	3691.00000
9.08000	3735.00000
9.09000	3743.00000
9.10000	3725.00000
9.11000	3740.00000
9.12000	3798.00000
9.13000	3808.00000
9.14000	3768.00000
9.15000	3801.00000
9.16000	3793.00000
9.17000	3764.00000
9.18000	3795.00000
9.19000	3839.00000
9.20000	3831.00000
9.21000	3891.00000
9.22000	3858.00000
9.23000	3859.00000
9.24000	3936.00000
9.25000	3930.00000
9.26000	4018.00000
9.27000	4018.00000
9.28000	4049.00000
9.29000	4057.00000
9.30000	4156.00000
9.31000	4221.00000
9.32000	4284.00000
9.33000	4423.00000
9.34000	4532.00000
9.35000	4723.00000
9.36000	4992.00000
9.37000	5389.00000
9.38000	6007.00000
9.39000	6961.00000
9.40000	8377.00000
9.41000	10761.00000
9.42000	14639.00000
9.43000	20426.00000
9.44000	27936.00000
9.45000	35028.00000
9.46000	37115.00000
9.47000	33153.00000
9.48000	25972.00000
9.49000	18584.00000
9.50000	13393.00000
9.51000	10113.00000
9.52000	8250.00000
9.53000	7129.00000
9.54000	6565.00000
9.55000	6203.00000
9.56000	5964.00000
9.57000	5762.00000
9.58000	5612.00000
9.59000	5578.00000
9.60000	5691.00000
9.61000	5783.00000
9.62000	5972.00000
9.63000	6254.00000
9.64000	6610.00000
9.65000	6986.00000
9.66000	7617.00000
9.67000	8480.00000
9.68000	9625.00000
9.69000	11425.00000
9.70000	13789.00000
9.71000	17470.00000
9.72000	23312.00000
9.73000	32756.00000
9.74000	47853.00000
9.75000	71516.00000
9.76000	102088.00000
9.77000	136226.00000
9.78000	158555.00000
9.79000	154329.00000
9.80000	125296.00000
9.81000	89740.00000
9.82000	60368.00000
9.83000	40527.00000
9.84000	28420.00000
9.85000	21269.00000
9.86000	17038.00000
9.87000	14721.00000
9.88000	13436.00000
9.89000	12801.00000
9.90000	12648.00000
9.91000	13061.00000
9.92000	14524.00000
9.93000	17741.00000
9.94000	23825.00000
9.95000	35043.00000
9.96000	54726.00000
9.97000	80725.00000
9.98000	100883.00000
9.99000	99439.00000
10.00000	77453.00000
10.01000	48778.00000
10.02000	28823.00000
10.03000	17708.00000
10.04000	12014.00000
10.05000	9130.00000
10.06000	7456.00000
10.07000	6382.00000
10.08000	5823.00000
10.09000	5396.00000
10.10000	5071.00000
10.11000	4882.00000
10.12000	4687.00000
10.13000	4531.00000
10.14000	4423.00000
10.15000	4365.00000
10.16000	4268.00000
10.17000	4226.00000
10.18000	4121.00000
10.19000	4094.00000
10.20000	4048.00000
10.21000	3999.00000
10.22000	3956.00000
10.23000	3955.00000
10.24000	3932.00000
10.25000	3880.00000
10.26000	3838.00000
10.27000	3860.00000
10.28000	3837.00000
10.29000	3813.00000
10.30000	3775.00000
10.31000	3749.00000
10.32000	3767.00000
10.33000	3737.00000
10.34000	3756.00000
10.35000	3723.00000
10.36000	3711.00000
10.37000	3685.00000
10.38000	3692.00000
10.39000	3683.00000
10.40000	3656.00000
10.41000	3629.00000
10.42000	3635.00000
10.43000	3631.00000
10.44000	3638.00000
10.45000	3623.00000
10.46000	3632.00000
10.47000	3654.00000
10.48000	3598.00000
10.49000	3556.00000
10.50000	3580.00000
10.51000	3593.00000
10.52000	3570.00000
10.53000	3610.00000
10.54000	3600.00000
10.55000	3564.00000
10.56000	3587.00000
10.57000	3569.00000
10.58000	3563.00000
10.59000	3551.00000
10.60000	3541.00000
10.61000	3533.00000
10.62000	3550.00000
10.63000	3563.00000
10.64000	3543.00000
10.65000	3590.00000
10.66000	3577.00000
10.67000	3552.00000
10.68000	3625.00000
10.69000	3633.00000
10.70000	3642.00000
10.71000	3672.00000
10.72000	3599.00000
10.73000	3541.00000
10.74000	3528.00000
10.75000	3521.00000
10.76000	3489.00000
10.77000	3546.00000
10.78000	3518.00000
10.79000	3494.00000
10.80000	3534.00000
10.81000	3533.00000
10.82000	3504.00000
10.83000	3532.00000
10.84000	3504.00000
10.85000	3488.00000
10.86000	3494.00000
10.87000	3511.00000
10.88000	3509.00000
10.89000	3523.00000
10.90000	3494.00000
10.91000	3480.00000
10.92000	3506.00000
10.93000	3490.00000
10.94000	3491.00000
10.95000	3482.00000
10.96000	3473.00000
10.97000	3443.00000
10.98000	3454.00000
10.99000	3454.00000
11.00000	3438.00000
11.01000	3465.00000
11.02000	3443.00000
11.03000	3450.00000
11.04000	3456.00000
11.05000	3453.00000
11.06000	3438.00000
11.07000	3463.00000
11.08000	3440.00000
11.09000	3436.00000
11.10000	3421.00000
11.11000	3420.00000
11.12000	3407.00000
11.13000	3433.00000
11.14000	3444.00000
11.15000	3397.00000
11.16000	3404.00000
11.17000	3440.00000
11.18000	3418.00000
11.19000	3435.00000
11.20000	3414.00000
11.21000	3426.00000
11.22000	3417.00000
11.23000	3424.00000
11.24000	3421.00000
11.25000	3400.00000
11.26000	3403.00000
11.27000	3384.00000
11.28000	3435.00000
11.29000	3400.00000
11.30000	3403.00000
11.31000	3386.00000
11.32000	3392.00000
11.33000	3368.00000
11.34000	3406.00000
11.35000	3377.00000
11.36000	3397.00000
11.37000	3453.00000
11.38000	3402.00000
11.39000	3411.00000
11.40000	3445.00000
11.41000	3439.00000
11.42000	3440.00000
11.43000	3429.00000
11.44000	3394.00000
11.45000	3403.00000
11.46000	3408.00000
11.47000	3410.00000
11.48000	3402.00000
11.49000	3407.00000
11.50000	3370.00000
11.51000	3394.00000
11.52000	3394.00000
11.53000	3454.00000
11.54000	3406.00000
11.55000	3427.00000
11.56000	3391.00000
11.57000	3408.00000
11.58000	3431.00000
11.59000	3442.00000
11.60000	3438.00000
11.61000	3420.00000
11.62000	3436.00000
11.63000	3425.00000
11.64000	3437.00000
11.65000	3475.00000
11.66000	3457.00000
11.67000	3495.00000
11.68000	3511.00000
11.69000	3446.00000
11.70000	3511.00000
11.71000	3512.00000
11.72000	3538.00000
11.73000	3558.00000
11.74000	3541.00000
11.75000	3508.00000
11.76000	3587.00000
11.77000	3607.00000
11.78000	3608.00000
11.79000	3646.00000
11.80000	3689.00000
11.81000	3713.00000
11.82000	3779.00000
11.83000	3833.00000
11.84000	3918.00000
11.85000	4026.00000
11.86000	4175.00000
11.87000	4323.00000
11.88000	4545.00000
11.89000	4770.00000
11.90000	4910.00000
11.91000	5012.00000
11.92000	5001.00000
11.93000	5001.00000
11.94000	5155.00000
11.95000	5455.00000
11.96000	5804.00000
11.97000	6336.00000
11.98000	7110.00000
11.99000	8148.00000
12.00000	9802.00000
12.01000	12216.00000
12.02000	15939.00000
12.03000	21660.00000
12.04000	29440.00000
12.05000	39621.00000
12.06000	50448.00000
12.07000	57111.00000
12.08000	55919.00000
12.09000	47823.00000
12.10000	37121.00000
12.11000	28029.00000
12.12000	22266.00000
12.13000	18862.00000
12.14000	17269.00000
12.15000	16136.00000
12.16000	14543.00000
12.17000	12309.00000
12.18000	10292.00000
12.19000	8451.00000
12.20000	7077.00000
12.21000	6169.00000
12.22000	5492.00000
12.23000	5003.00000
12.24000	4738.00000
12.25000	4482.00000
12.26000	4331.00000
12.27000	4199.00000
12.28000	4073.00000
12.29000	3943.00000
12.30000	3913.00000
12.31000	3861.00000
12.32000	3799.00000
12.33000	3786.00000
12.34000	3744.00000
12.35000	3707.00000
12.36000	3704.00000
12.37000	3659.00000
12.38000	3644.00000
12.39000	3631.00000
12.40000	3591.00000
12.41000	3603.00000
12.42000	3614.00000
12.43000	3575.00000
12.44000	3528.00000
12.45000	3560.00000
12.46000	3561.00000
12.47000	3534.00000
12.48000	3537.00000
12.49000	3528.00000
12.50000	3543.00000
12.51000	3546.00000
12.52000	3534.00000
12.53000	3520.00000
12.54000	3539.00000
12.55000	3547.00000
12.56000	3533.00000
12.57000	3552.00000
12.58000	3553.00000
12.59000	3536.00000
12.60000	3545.00000
12.61000	3573.00000
12.62000	3564.00000
12.63000	3594.00000
12.64000	3544.00000
12.65000	3551.00000
12.66000	3579.00000
12.67000	3584.00000
12.68000	3604.00000
12.69000	3626.00000
12.70000	3640.00000
12.71000	3635.00000
12.72000	3694.00000
12.73000	3714.00000
12.74000	3760.00000
12.75000	3856.00000
12.76000	3845.00000
12.77000	3944.00000
12.78000	4024.00000
12.79000	4129.00000
12.80000	4255.00000
12.81000	4477.00000
12.82000	4565.00000
12.83000	4782.00000
12.84000	5146.00000
12.85000	5529.00000
12.86000	6036.00000
12.87000	6638.00000
12.88000	7280.00000
12.89000	7983.00000
12.90000	8851.00000
12.91000	9613.00000
12.92000	10155.00000
12.93000	10473.00000
12.94000	10264.00000
12.95000	9680.00000
12.96000	9109.00000
12.97000	8392.00000
12.98000	7714.00000
12.99000	7137.00000
13.00000	6617.00000
13.01000	6255.00000
13.02000	6033.00000
13.03000	5839.00000
13.04000	5780.00000
13.05000	5813.00000
13.06000	5889.00000
13.07000	6023.00000
13.08000	6319.00000
13.09000	6742.00000
13.10000	7209.00000
13.11000	7905.00000
13.12000	8702.00000
13.13000	9530.00000
13.14000	10522.00000
13.15000	11349.00000
13.16000	11936.00000
13.17000	12095.00000
13.18000	11690.00000
13.19000	10910.00000
13.20000	10033.00000
13.21000	9009.00000
13.22000	8046.00000
13.23000	7271.00000
13.24000	6537.00000
13.25000	5947.00000
13.26000	5541.00000
13.27000	5217.00000
13.28000	4938.00000
13.29000	4759.00000
13.30000	4514.00000
13.31000	4361.00000
13.32000	4237.00000
13.33000	4172.00000
13.34000	4092.00000
13.35000	4050.00000
13.36000	3999.00000
13.37000	3911.00000
13.38000	3899.00000
13.39000	3887.00000
13.40000	3873.00000
13.41000	3874.00000
13.42000	3827.00000
13.43000	3823.00000
13.44000	3834.00000
13.45000	3838.00000
13.46000	3815.00000
13.47000	3834.00000
13.48000	3807.00000
13.49000	3811.00000
13.50000	3856.00000
13.51000	3897.00000
13.52000	3879.00000
13.53000	3937.00000
13.54000	3913.00000
13.55000	3933.00000
13.56000	4025.00000
13.57000	4048.00000
13.58000	4110.00000
13.59000	4183.00000
13.60000	4233.00000
13.61000	4342.00000
13.62000	4448.00000
13.63000	4598.00000
13.64000	4775.00000
13.65000	5002.00000
13.66000	5251.00000
13.67000	5574.00000
13.68000	6073.00000
13.69000	6722.00000
13.70000	7606.00000
13.71000	8892.00000
13.72000	10599.00000
13.73000	13010.00000
13.74000	16436.00000
13.75000	20592.00000
13.76000	24721.00000
13.77000	27755.00000
13.78000	28487.00000
13.79000	27662.00000
13.80000	27011.00000
13.81000	26984.00000
13.82000	27826.00000
13.83000	29052.00000
13.84000	28994.00000
13.85000	27409.00000
13.86000	24682.00000
13.87000	21031.00000
13.88000	17268.00000
13.89000	14150.00000
13.90000	11738.00000
13.91000	9810.00000
13.92000	8486.00000
13.93000	7433.00000
13.94000	6696.00000
13.95000	6120.00000
13.96000	5705.00000
13.97000	5389.00000
13.98000	5226.00000
13.99000	5159.00000
14.00000	5206.00000
14.01000	5360.00000
14.02000	5653.00000
14.03000	6187.00000
14.04000	7085.00000
14.05000	8147.00000
14.06000	9187.00000
14.07000	9841.00000
14.08000	9505.00000
14.09000	8456.00000
14.10000	7250.00000
14.11000	6141.00000
14.12000	5327.00000
14.13000	4829.00000
14.14000	4475.00000
14.15000	4227.00000
14.16000	4027.00000
14.17000	3948.00000
14.18000	3845.00000
14.19000	3837.00000
14.20000	3744.00000
14.21000	3705.00000
14.22000	3694.00000
14.23000	3659.00000
14.24000	3636.00000
14.25000	3636.00000
14.26000	3606.00000
14.27000	3576.00000
14.28000	3582.00000
14.29000	3555.00000
14.30000	3586.00000
14.31000	3597.00000
14.32000	3585.00000
14.33000	3577.00000
14.34000	3585.00000
14.35000	3602.00000
14.36000	3577.00000
14.37000	3632.00000
14.38000	3615.00000
14.39000	3615.00000
14.40000	3617.00000
14.41000	3598.00000
14.42000	3610.00000
14.43000	3587.00000
14.44000	3576.00000
14.45000	3566.00000
14.46000	3577.00000
14.47000	3590.00000
14.48000	3564.00000
14.49000	3572.00000
14.50000	3562.00000
14.51000	3547.00000
14.52000	3597.00000
14.53000	3593.00000
14.54000	3576.00000
14.55000	3604.00000
14.56000	3590.00000
14.57000	3583.00000
14.58000	3593.00000
14.59000	3612.00000
14.60000	3654.00000
14.61000	3717.00000
14.62000	3692.00000
14.63000	3713.00000
14.64000	3747.00000
14.65000	3785.00000
14.66000	3804.00000
14.67000	3858.00000
14.68000	3879.00000
14.69000	3940.00000
14.70000	4013.00000
14.71000	4093.00000
14.72000	4133.00000
14.73000	4245.00000
14.74000	4322.00000
14.75000	4407.00000
14.76000	4540.00000
14.77000	4756.00000
14.78000	4990.00000
14.79000	5342.00000
14.80000	5695.00000
14.81000	6201.00000
14.82000	6972.00000
14.83000	7868.00000
14.84000	8873.00000
14.85000	10183.00000
14.86000	11512.00000
14.87000	12699.00000
14.88000	13781.00000
14.89000	14255.00000
14.90000	14322.00000
14.91000	14176.00000
14.92000	13813.00000
14.93000	13578.00000
14.94000	13417.00000
14.95000	13219.00000
14.96000	12660.00000
14.97000	11898.00000
14.98000	10874.00000
14.99000	9799.00000
15.00000	8883.00000
15.01000	7949.00000
15.02000	7070.00000
15.03000	6333.00000
15.04000	5741.00000
15.05000	5272.00000
15.06000	4975.00000
15.07000	4787.00000
15.08000	4599.00000
15.09000	4483.00000
15.10000	4354.00000
15.11000	4193.00000
15.12000	4119.00000
15.13000	4035.00000
15.14000	3953.00000
15.15000	3934.00000
15.16000	3871.00000
15.17000	3851.00000
15.18000	3813.00000
15.19000	3833.00000
15.20000	3835.00000
15.21000	3817.00000
15.22000	3825.00000
15.23000	3783.00000
15.24000	3824.00000
15.25000	3812.00000
15.26000	3772.00000
15.27000	3813.00000
15.28000	3800.00000
15.29000	3774.00000
15.30000	3824.00000
15.31000	3826.00000
15.32000	3876.00000
15.33000	3917.00000
15.34000	3916.00000
15.35000	3944.00000
15.36000	3999.00000
15.37000	4092.00000
15.38000	4183.00000
15.39000	4256.00000
15.40000	4389.00000
15.41000	4500.00000
15.42000	4730.00000
15.43000	4981.00000
15.44000	5276.00000
15.45000	5720.00000
15.46000	6127.00000
15.47000	6701.00000
15.48000	7259.00000
15.49000	7761.00000
15.50000	7987.00000
15.51000	8024.00000
15.52000	7640.00000
15.53000	7294.00000
15.54000	6940.00000
15.55000	6610.00000
15.56000	6383.00000
15.57000	6414.00000
15.58000	6515.00000
15.59000	6897.00000
15.60000	7461.00000
15.61000	8346.00000
15.62000	9701.00000
15.63000	11604.00000
15.64000	14342.00000
15.65000	18208.00000
15.66000	23565.00000
15.67000	29638.00000
15.68000	35289.00000
15.69000	38178.00000
15.70000	36463.00000
15.71000	31247.00000
15.72000	24881.00000
15.73000	18888.00000
15.74000	14298.00000
15.75000	11115.00000
15.76000	9015.00000
15.77000	7557.00000
15.78000	6590.00000
15.79000	5876.00000
15.80000	5373.00000
15.81000	5056.00000
15.82000	4798.00000
15.83000	4561.00000
15.84000	4418.00000
15.85000	4335.00000
15.86000	4206.00000
15.87000	4175.00000
15.88000	4094.00000
15.89000	4012.00000
15.90000	4031.00000
15.91000	4031.00000
15.92000	3977.00000
15.93000	3993.00000
15.94000	4003.00000
15.95000	4013.00000
15.96000	4100.00000
15.97000	4144.00000
15.98000	4207.00000
15.99000	4365.00000
16.00000	4492.00000
16.01000	4705.00000
16.02000	5017.00000
16.03000	5489.00000
16.04000	6052.00000
16.05000	6802.00000
16.06000	7559.00000
16.07000	8336.00000
16.08000	8976.00000
16.09000	9126.00000
16.10000	8725.00000
16.11000	7942.00000
16.12000	7118.00000
16.13000	6306.00000
16.14000	5676.00000
16.15000	5181.00000
16.16000	4887.00000
16.17000	4613.00000
16.18000	4484.00000
16.19000	4371.00000
16.20000	4348.00000
16.21000	4320.00000
16.22000	4385.00000
16.23000	4469.00000
16.24000	4531.00000
16.25000	4730.00000
16.26000	4941.00000
16.27000	5227.00000
16.28000	5679.00000
16.29000	6307.00000
16.30000	7008.00000
16.31000	7995.00000
16.32000	9314.00000
16.33000	10823.00000
16.34000	12104.00000
16.35000	13002.00000
16.36000	12979.00000
16.37000	12247.00000
16.38000	11280.00000
16.39000	10249.00000
16.40000	9149.00000
16.41000	8387.00000
16.42000	7756.00000
16.43000	7369.00000
16.44000	7273.00000
16.45000	7317.00000
16.46000	7529.00000
16.47000	7833.00000
16.48000	8103.00000
16.49000	8255.00000
16.50000	8396.00000
16.51000	8336.00000
16.52000	8184.00000
16.53000	7910.00000
16.54000	7404.00000
16.55000	6708.00000
16.56000	6123.00000
16.57000	5489.00000
16.58000	5053.00000
16.59000	4672.00000
16.60000	4396.00000
16.61000	4208.00000
16.62000	4117.00000
16.63000	3995.00000
16.64000	3906.00000
16.65000	3899.00000
16.66000	3813.00000
16.67000	3761.00000
16.68000	3753.00000
16.69000	3713.00000
16.70000	3700.00000
16.71000	3719.00000
16.72000	3688.00000
16.73000	3680.00000
16.74000	3687.00000
16.75000	3705.00000
16.76000	3688.00000
16.77000	3730.00000
16.78000	3699.00000
16.79000	3719.00000
16.80000	3730.00000
16.81000	3732.00000
16.82000	3782.00000
16.83000	3800.00000
16.84000	3827.00000
16.85000	3813.00000
16.86000	3904.00000
16.87000	3935.00000
16.88000	3968.00000
16.89000	4079.00000
16.90000	4141.00000
16.91000	4211.00000
16.92000	4341.00000
16.93000	4435.00000
16.94000	4655.00000
16.95000	4847.00000
16.96000	5084.00000
16.97000	5361.00000
16.98000	5766.00000
16.99000	6302.00000
17.00000	6990.00000
17.01000	7883.00000
17.02000	8910.00000
17.03000	10185.00000
17.04000	11891.00000
17.05000	13876.00000
17.06000	16230.00000
17.07000	18876.00000
17.08000	20967.00000
17.09000	22253.00000
17.10000	22357.00000
17.11000	21054.00000
17.12000	18600.00000
17.13000	16036.00000
17.14000	13427.00000
17.15000	11180.00000
17.16000	9520.00000
17.17000	8141.00000
17.18000	7081.00000
17.19000	6366.00000
17.20000	5681.00000
17.21000	5213.00000
17.22000	4895.00000
17.23000	4594.00000
17.24000	4410.00000
17.25000	4269.00000
17.26000	4114.00000
17.27000	3996.00000
17.28000	3913.00000
17.29000	3819.00000
17.30000	3781.00000
17.31000	3734.00000
17.32000	3650.00000
17.33000	3597.00000
17.34000	3542.00000
17.35000	3551.00000
17.36000	3533.00000
17.37000	3504.00000
17.38000	3516.00000
17.39000	3451.00000
17.40000	3494.00000
17.41000	3479.00000
17.42000	3473.00000
17.43000	3476.00000
17.44000	3473.00000
17.45000	3423.00000
17.46000	3428.00000
17.47000	3376.00000
17.48000	3390.00000
17.49000	3420.00000
17.50000	3395.00000
17.51000	3381.00000
17.52000	3388.00000
17.53000	3395.00000
17.54000	3363.00000
17.55000	3399.00000
17.56000	3393.00000
17.57000	3393.00000
17.58000	3388.00000
17.59000	3421.00000
17.60000	3434.00000
17.61000	3452.00000
17.62000	3419.00000
17.63000	3416.00000
17.64000	3466.00000
17.65000	3500.00000
17.66000	3539.00000
17.67000	3606.00000
17.68000	3634.00000
17.69000	3677.00000
17.70000	3822.00000
17.71000	3919.00000
17.72000	4054.00000
17.73000	4262.00000
17.74000	4462.00000
17.75000	4678.00000
17.76000	4968.00000
17.77000	5143.00000
17.78000	5205.00000
17.79000	5179.00000
17.80000	4944.00000
17.81000	4677.00000
17.82000	4463.00000
17.83000	4255.00000
17.84000	4070.00000
17.85000	3969.00000
17.86000	3850.00000
17.87000	3775.00000
17.88000	3789.00000
17.89000	3799.00000
17.90000	3825.00000
17.91000	3872.00000
17.92000	3946.00000
17.93000	4003.00000
17.94000	4157.00000
17.95000	4335.00000
17.96000	4600.00000
17.97000	4871.00000
17.98000	5181.00000
17.99000	5548.00000
18.00000	5859.00000
18.01000	6066.00000
18.02000	6034.00000
18.03000	5915.00000
18.04000	5495.00000
18.05000	5102.00000
18.06000	4789.00000
18.07000	4485.00000
18.08000	4235.00000
18.09000	4012.00000
18.10000	3881.00000
18.11000	3763.00000
18.12000	3682.00000
18.13000	3624.00000
18.14000	3561.00000
18.15000	3532.00000
18.16000	3471.00000
18.17000	3421.00000
18.18000	3410.00000
18.19000	3413.00000
18.20000	3415.00000
18.21000	3418.00000
18.22000	3412.00000
18.23000	3398.00000
18.24000	3447.00000
18.25000	3492.00000
18.26000	3521.00000
18.27000	3564.00000
18.28000	3565.00000
18.29000	3573.00000
18.30000	3592.00000
18.31000	3549.00000
18.32000	3503.00000
18.33000	3467.00000
18.34000	3428.00000
18.35000	3364.00000
18.36000	3366.00000
18.37000	3379.00000
18.38000	3357.00000
18.39000	3378.00000
18.40000	3346.00000
18.41000	3316.00000
18.42000	3298.00000
18.43000	3319.00000
18.44000	3313.00000
18.45000	3343.00000
18.46000	3328.00000
18.47000	3310.00000
18.48000	3349.00000
18.49000	3350.00000
18.50000	3348.00000
18.51000	3394.00000
18.52000	3342.00000
18.53000	3345.00000
18.54000	3364.00000
18.55000	3350.00000
18.56000	3373.00000
18.57000	3417.00000
18.58000	3383.00000
18.59000	3362.00000
18.60000	3446.00000
18.61000	3462.00000
18.62000	3472.00000
18.63000	3522.00000
18.64000	3602.00000
18.65000	3672.00000
18.66000	3846.00000
18.67000	3964.00000
18.68000	4114.00000
18.69000	4161.00000
18.70000	4154.00000
18.71000	4016.00000
18.72000	3902.00000
18.73000	3766.00000
18.74000	3690.00000
18.75000	3643.00000
18.76000	3584.00000
18.77000	3544.00000
18.78000	3535.00000
18.79000	3564.00000
18.80000	3594.00000
18.81000	3581.00000
18.82000	3609.00000
18.83000	3590.00000
18.84000	3660.00000
18.85000	3746.00000
18.86000	3805.00000
18.87000	3924.00000
18.88000	4002.00000
18.89000	4124.00000
18.90000	4329.00000
18.91000	4632.00000
18.92000	4981.00000
18.93000	5482.00000
18.94000	6130.00000
18.95000	6881.00000
18.96000	7864.00000
18.97000	8798.00000
18.98000	9441.00000
18.99000	9616.00000
19.00000	9086.00000
19.01000	8239.00000
19.02000	7347.00000
19.03000	6625.00000
19.04000	6086.00000
19.05000	5767.00000
19.06000	5631.00000
19.07000	5628.00000
19.08000	5833.00000
19.09000	6138.00000
19.10000	6762.00000
19.11000	7530.00000
19.12000	8443.00000
19.13000	9504.00000
19.14000	10491.00000
19.15000	10963.00000
19.16000	10696.00000
19.17000	9890.00000
19.18000	8798.00000
19.19000	7754.00000
19.20000	7003.00000
19.21000	6411.00000
19.22000	6082.00000
19.23000	5963.00000
19.24000	5964.00000
19.25000	6171.00000
19.26000	6539.00000
19.27000	7101.00000
19.28000	7764.00000
19.29000	8533.00000
19.30000	9138.00000
19.31000	9466.00000
19.32000	9475.00000
19.33000	9132.00000
19.34000	8310.00000
19.35000	7551.00000
19.36000	6726.00000
19.37000	6046.00000
19.38000	5532.00000
19.39000	5153.00000
19.40000	4849.00000
19.41000	4642.00000
19.42000	4457.00000
19.43000	4316.00000
19.44000	4260.00000
19.45000	4203.00000
19.46000	4192.00000
19.47000	4208.00000
19.48000	4181.00000
19.49000	4164.00000
19.50000	4200.00000
19.51000	4266.00000
19.52000	4359.00000
19.53000	4432.00000
19.54000	4485.00000
19.55000	4580.00000
19.56000	4693.00000
19.57000	4810.00000
19.58000	4934.00000
19.59000	5025.00000
19.60000	5112.00000
19.61000	5126.00000
19.62000	5171.00000
19.63000	5146.00000
19.64000	5115.00000
19.65000	5047.00000
19.66000	4921.00000
19.67000	4792.00000
19.68000	4730.00000
19.69000	4702.00000
19.70000	4706.00000
19.71000	4832.00000
19.72000	4928.00000
19.73000	5114.00000
19.74000	5371.00000
19.75000	5715.00000
19.76000	6053.00000
19.77000	6462.00000
19.78000	6644.00000
19.79000	6815.00000
19.80000	6801.00000
19.81000	6668.00000
19.82000	6445.00000
19.83000	6223.00000
19.84000	6075.00000
19.85000	5926.00000
19.86000	5865.00000
19.87000	5839.00000
19.88000	5808.00000
19.89000	5957.00000
19.90000	6167.00000
19.91000	6623.00000
19.92000	7216.00000
19.93000	7899.00000
19.94000	8395.00000
19.95000	8667.00000
19.96000	8437.00000
19.97000	8028.00000
19.98000	7607.00000
19.99000	7339.00000
20.00000	7453.00000
20.01000	7810.00000
20.02000	8567.00000
20.03000	9473.00000
20.04000	10345.00000
20.05000	10573.00000
20.06000	10129.00000
20.07000	9093.00000
20.08000	7918.00000
20.09000	6906.00000
20.10000	6249.00000
20.11000	5738.00000
20.12000	5354.00000
20.13000	5145.00000
20.14000	4862.00000
20.15000	4684.00000
20.16000	4590.00000
20.17000	4432.00000
20.18000	4363.00000
20.19000	4276.00000
20.20000	4197.00000
20.21000	4148.00000
20.22000	4077.00000
20.23000	4087.00000
20.24000	4052.00000
20.25000	4031.00000
20.26000	4046.00000
20.27000	4053.00000
20.28000	4047.00000
20.29000	4113.00000
20.30000	4142.00000
20.31000	4251.00000
20.32000	4315.00000
20.33000	4415.00000
20.34000	4624.00000
20.35000	4857.00000
20.36000	5164.00000
20.37000	5573.00000
20.38000	6082.00000
20.39000	6693.00000
20.40000	7559.00000
20.41000	8447.00000
20.42000	9223.00000
20.43000	9735.00000
20.44000	9639.00000
20.45000	9099.00000
20.46000	8340.00000
20.47000	7469.00000
20.48000	6807.00000
20.49000	6204.00000
20.50000	5749.00000
20.51000	5369.00000
20.52000	5200.00000
20.53000	5096.00000
20.54000	5059.00000
20.55000	5093.00000
20.56000	5136.00000
20.57000	5231.00000
20.58000	5440.00000
20.59000	5646.00000
20.60000	5896.00000
20.61000	6215.00000
20.62000	6486.00000
20.63000	6754.00000
20.64000	7071.00000
20.65000	7337.00000
20.66000	7363.00000
20.67000	7329.00000
20.68000	7124.00000
20.69000	6802.00000
20.70000	6556.00000
20.71000	6276.00000
20.72000	6075.00000
20.73000	5905.00000
20.74000	5715.00000
20.75000	5598.00000
20.76000	5509.00000
20.77000	5532.00000
20.78000	5541.00000
20.79000	5597.00000
20.80000	5648.00000
20.81000	5691.00000
20.82000	5803.00000
20.83000	5884.00000
20.84000	5920.00000
20.85000	5935.00000
20.86000	5888.00000
20.87000	5808.00000
20.88000	5638.00000
20.89000	5510.00000
20.90000	5302.00000
20.91000	5156.00000
20.92000	4987.00000
20.93000	4825.00000
20.94000	4727.00000
20.95000	4627.00000
20.96000	4551.00000
20.97000	4480.00000
20.98000	4411.00000
20.99000	4409.00000
21.00000	4426.00000
21.01000	4483.00000
21.02000	4522.00000
21.03000	4588.00000
21.04000	4589.00000
21.05000	4616.00000
21.06000	4669.00000
21.07000	4642.00000
21.08000	4596.00000
21.09000	4568.00000
21.10000	4479.00000
21.11000	4415.00000
21.12000	4385.00000
21.13000	4376.00000
21.14000	4424.00000
21.15000	4531.00000
21.16000	4656.00000
21.17000	4857.00000
21.18000	5260.00000
21.19000	5666.00000
21.20000	6220.00000
21.21000	6831.00000
21.22000	7206.00000
21.23000	7376.00000
21.24000	7283.00000
21.25000	6813.00000
21.26000	6181.00000
21.27000	5673.00000
21.28000	5206.00000
21.29000	4881.00000
21.30000	4705.00000
21.31000	4560.00000
21.32000	4425.00000
21.33000	4419.00000
21.34000	4421.00000
21.35000	4441.00000
21.36000	4551.00000
21.37000	4636.00000
21.38000	4738.00000
21.39000	4954.00000
21.40000	5185.00000
21.41000	5496.00000
21.42000	5961.00000
21.43000	6547.00000
21.44000	7204.00000
21.45000	8045.00000
21.46000	8927.00000
21.47000	9890.00000
21.48000	10728.00000
21.49000	11109.00000
21.50000	10916.00000
21.51000	10224.00000
21.52000	9214.00000
21.53000	8153.00000
21.54000	7220.00000
21.55000	6489.00000
21.56000	5891.00000
21.57000	5449.00000
21.58000	5105.00000
21.59000	4874.00000
21.60000	4738.00000
21.61000	4569.00000
21.62000	4444.00000
21.63000	4379.00000
21.64000	4326.00000
21.65000	4241.00000
21.66000	4256.00000
21.67000	4232.00000
21.68000	4274.00000
21.69000	4307.00000
21.70000	4335.00000
21.71000	4366.00000
21.72000	4505.00000
21.73000	4587.00000
21.74000	4723.00000
21.75000	4912.00000
21.76000	5139.00000
21.77000	5361.00000
21.78000	5734.00000
21.79000	6157.00000
21.80000	6655.00000
21.81000	7173.00000
21.82000	7491.00000
21.83000	7820.00000
21.84000	7948.00000
21.85000	7825.00000
21.86000	7658.00000
21.87000	7536.00000
21.88000	7372.00000
21.89000	7392.00000
21.90000	7588.00000
21.91000	7856.00000
21.92000	8289.00000
21.93000	8862.00000
21.94000	9330.00000
21.95000	9859.00000
21.96000	10286.00000
21.97000	10422.00000
21.98000	10124.00000
21.99000	9635.00000
22.00000	8918.00000
22.01000	8112.00000
22.02000	7414.00000
22.03000	6755.00000
22.04000	6216.00000
22.05000	5828.00000
22.06000	5451.00000
22.07000	5112.00000
22.08000	4931.00000
22.09000	4785.00000
22.10000	4647.00000
22.11000	4619.00000
22.12000	4556.00000
22.13000	4523.00000
22.14000	4642.00000
22.15000	4775.00000
22.16000	4938.00000
22.17000	5201.00000
22.18000	5485.00000
22.19000	5803.00000
22.20000	6146.00000
22.21000	6235.00000
22.22000	6138.00000
22.23000	5876.00000
22.24000	5408.00000
22.25000	5009.00000
22.26000	4696.00000
22.27000	4467.00000
22.28000	4232.00000
22.29000	4180.00000
22.30000	4017.00000
22.31000	3941.00000
22.32000	3938.00000
22.33000	3903.00000
22.34000	3836.00000
22.35000	3829.00000
22.36000	3797.00000
22.37000	3752.00000
22.38000	3771.00000
22.39000	3759.00000
22.40000	3736.00000
22.41000	3772.00000
22.42000	3723.00000
22.43000	3716.00000
22.44000	3731.00000
22.45000	3734.00000
22.46000	3726.00000
22.47000	3726.00000
22.48000	3705.00000
22.49000	3666.00000
22.50000	3703.00000
22.51000	3714.00000
22.52000	3723.00000
22.53000	3741.00000
22.54000	3737.00000
22.55000	3735.00000
22.56000	3769.00000
22.57000	3777.00000
22.58000	3754.00000
22.59000	3762.00000
22.60000	3781.00000
22.61000	3757.00000
22.62000	3837.00000
22.63000	3853.00000
22.64000	3899.00000
22.65000	3945.00000
22.66000	3975.00000
22.67000	4015.00000
22.68000	4101.00000
22.69000	4190.00000
22.70000	4227.00000
22.71000	4412.00000
22.72000	4546.00000
22.73000	4766.00000
22.74000	5049.00000
22.75000	5389.00000
22.76000	5748.00000
22.77000	6113.00000
22.78000	6373.00000
22.79000	6493.00000
22.80000	6481.00000
22.81000	6280.00000
22.82000	5976.00000
22.83000	5734.00000
22.84000	5510.00000
22.85000	5361.00000
22.86000	5367.00000
22.87000	5410.00000
22.88000	5509.00000
22.89000	5722.00000
22.90000	5853.00000
22.91000	6104.00000
22.92000	6477.00000
22.93000	6828.00000
22.94000	7175.00000
22.95000	7595.00000
22.96000	7950.00000
22.97000	8317.00000
22.98000	8649.00000
22.99000	8859.00000
23.00000	8968.00000
23.01000	8968.00000
23.02000	8828.00000
23.03000	8621.00000
23.04000	8585.00000
23.05000	8492.00000
23.06000	8531.00000
23.07000	8614.00000
23.08000	8706.00000
23.09000	8711.00000
23.10000	8786.00000
23.11000	8686.00000
23.12000	8351.00000
23.13000	8030.00000
23.14000	7522.00000
23.15000	7036.00000
23.16000	6684.00000
23.17000	6298.00000
23.18000	5934.00000
23.19000	5621.00000
23.20000	5363.00000
23.21000	5124.00000
23.22000	4908.00000
23.23000	4795.00000
23.24000	4659.00000
23.25000	4583.00000
23.26000	4498.00000
23.27000	4443.00000
23.28000	4439.00000
23.29000	4477.00000
23.30000	4492.00000
23.31000	4575.00000
23.32000	4549.00000
23.33000	4566.00000
23.34000	4509.00000
23.35000	4494.00000
23.36000	4404.00000
23.37000	4338.00000
23.38000	4276.00000
23.39000	4212.00000
23.40000	4166.00000
23.41000	4189.00000
23.42000	4198.00000
23.43000	4248.00000
23.44000	4345.00000
23.45000	4452.00000
23.46000	4704.00000
23.47000	4975.00000
23.48000	5334.00000
23.49000	5756.00000
23.50000	6054.00000
23.51000	6222.00000
23.52000	6247.00000
23.53000	5973.00000
23.54000	5551.00000
23.55000	5121.00000
23.56000	4756.00000
23.57000	4486.00000
23.58000	4276.00000
23.59000	4137.00000
23.60000	4061.00000
23.61000	4014.00000
23.62000	3933.00000
23.63000	3898.00000
23.64000	3866.00000
23.65000	3869.00000
23.66000	3827.00000
23.67000	3795.00000
23.68000	3802.00000
23.69000	3802.00000
23.70000	3789.00000
23.71000	3795.00000
23.72000	3787.00000
23.73000	3831.00000
23.74000	3784.00000
23.75000	3794.00000
23.76000	3800.00000
23.77000	3814.00000
23.78000	3849.00000
23.79000	3842.00000
23.80000	3849.00000
23.81000	3834.00000
23.82000	3901.00000
23.83000	3960.00000
23.84000	4001.00000
23.85000	4087.00000
23.86000	4152.00000
23.87000	4222.00000
23.88000	4403.00000
23.89000	4539.00000
23.90000	4648.00000
23.91000	4841.00000
23.92000	5016.00000
23.93000	5073.00000
23.94000	5190.00000
23.95000	5174.00000
23.96000	5171.00000
23.97000	5182.00000
23.98000	5220.00000
23.99000	5351.00000
24.00000	5511.00000
24.01000	5719.00000
24.02000	5956.00000
24.03000	6255.00000
24.04000	6521.00000
24.05000	6719.00000
24.06000	6813.00000
24.07000	6893.00000
24.08000	6767.00000
24.09000	6614.00000
24.10000	6337.00000
24.11000	6015.00000
24.12000	5773.00000
24.13000	5569.00000
24.14000	5425.00000
24.15000	5349.00000
24.16000	5265.00000
24.17000	5191.00000
24.18000	5192.00000
24.19000	5218.00000
24.20000	5245.00000
24.21000	5287.00000
24.22000	5283.00000
24.23000	5283.00000
24.24000	5369.00000
24.25000	5398.00000
24.26000	5435.00000
24.27000	5487.00000
24.28000	5456.00000
24.29000	5426.00000
24.30000	5400.00000
24.31000	5308.00000
24.32000	5244.00000
24.33000	5258.00000
24.34000	5196.00000
24.35000	5280.00000
24.36000	5406.00000
24.37000	5638.00000
24.38000	5908.00000
24.39000	6339.00000
24.40000	6729.00000
24.41000	7235.00000
24.42000	7853.00000
24.43000	8450.00000
24.44000	8928.00000
24.45000	9294.00000
24.46000	9395.00000
24.47000	9354.00000
24.48000	9400.00000
24.49000	9415.00000
24.50000	9548.00000
24.51000	9822.00000
24.52000	9996.00000
24.53000	9985.00000
24.54000	9819.00000
24.55000	9234.00000
24.56000	8447.00000
24.57000	7664.00000
24.58000	6977.00000
24.59000	6426.00000
24.60000	6015.00000
24.61000	5770.00000
24.62000	5588.00000
24.63000	5544.00000
24.64000	5442.00000
24.65000	5379.00000
24.66000	5413.00000
24.67000	5444.00000
24.68000	5485.00000
24.69000	5553.00000
24.70000	5558.00000
24.71000	5527.00000
24.72000	5517.00000
24.73000	5452.00000
24.74000	5254.00000
24.75000	5059.00000
24.76000	4846.00000
24.77000	4681.00000
24.78000	4541.00000
24.79000	4413.00000
24.80000	4341.00000
24.81000	4317.00000
24.82000	4277.00000
24.83000	4251.00000
24.84000	4292.00000
24.85000	4326.00000
24.86000	4405.00000
24.87000	4544.00000
24.88000	4641.00000
24.89000	4788.00000
24.90000	4998.00000
24.91000	5246.00000
24.92000	5434.00000
24.93000	5567.00000
24.94000	5546.00000
24.95000	5448.00000
24.96000	5324.00000
24.97000	5200.00000
24.98000	5003.00000
24.99000	4974.00000
25.00000	4899.00000
25.01000	4854.00000
25.02000	4942.00000
25.03000	5066.00000
25.04000	5184.00000
25.05000	5419.00000
25.06000	5637.00000
25.07000	5944.00000
25.08000	6324.00000
25.09000	6632.00000
25.10000	7007.00000
25.11000	7292.00000
25.12000	7422.00000
25.13000	7485.00000
25.14000	7526.00000
25.15000	7441.00000
25.16000	7443.00000
25.17000	7517.00000
25.18000	7574.00000
25.19000	7710.00000
25.20000	7874.00000
25.21000	8000.00000
25.22000	7998.00000
25.23000	7819.00000
25.24000	7495.00000
25.25000	7079.00000
25.26000	6723.00000
25.27000	6343.00000
25.28000	5988.00000
25.29000	5641.00000
25.30000	5326.00000
25.31000	5075.00000
25.32000	4867.00000
25.33000	4650.00000
25.34000	4523.00000
25.35000	4372.00000
25.36000	4238.00000
25.37000	4140.00000
25.38000	4048.00000
25.39000	4006.00000
25.40000	3936.00000
25.41000	3888.00000
25.42000	3806.00000
25.43000	3791.00000
25.44000	3748.00000
25.45000	3755.00000
25.46000	3697.00000
25.47000	3717.00000
25.48000	3672.00000
25.49000	3677.00000
25.50000	3667.00000
25.51000	3685.00000
25.52000	3659.00000
25.53000	3654.00000
25.54000	3656.00000
25.55000	3668.00000
25.56000	3667.00000
25.57000	3660.00000
25.58000	3658.00000
25.59000	3705.00000
25.60000	3679.00000
25.61000	3656.00000
25.62000	3738.00000
25.63000	3727.00000
25.64000	3737.00000
25.65000	3772.00000
25.66000	3819.00000
25.67000	3840.00000
25.68000	3935.00000
25.69000	3986.00000
25.70000	4056.00000
25.71000	4170.00000
25.72000	4217.00000
25.73000	4252.00000
25.74000	4294.00000
25.75000	4281.00000
25.76000	4253.00000
25.77000	4249.00000
25.78000	4172.00000
25.79000	4118.00000
25.80000	4095.00000
25.81000	4059.00000
25.82000	4039.00000
25.83000	4087.00000
25.84000	4074.00000
25.85000	4095.00000
25.86000	4206.00000
25.87000	4340.00000
25.88000	4491.00000
25.89000	4693.00000
25.90000	4858.00000
25.91000	5137.00000
25.92000	5428.00000
25.93000	5728.00000
25.94000	5947.00000
25.95000	6049.00000
25.96000	5964.00000
25.97000	5821.00000
25.98000	5671.00000
25.99000	5414.00000
26.00000	5172.00000
26.01000	4984.00000
26.02000	4839.00000
26.03000	4724.00000
26.04000	4698.00000
26.05000	4745.00000
26.06000	4800.00000
26.07000	4871.00000
26.08000	4981.00000
26.09000	5039.00000
26.10000	5090.00000
26.11000	5042.00000
26.12000	4928.00000
26.13000	4786.00000
26.14000	4635.00000
26.15000	4469.00000
26.16000	4399.00000
26.17000	4322.00000
26.18000	4223.00000
26.19000	4229.00000
26.20000	4159.00000
26.21000	4149.00000
26.22000	4185.00000
26.23000	4242.00000
26.24000	4228.00000
26.25000	4300.00000
26.26000	4295.00000
26.27000	4321.00000
26.28000	4370.00000
26.29000	4362.00000
26.30000	4334.00000
26.31000	4263.00000
26.32000	4208.00000
26.33000	4098.00000
26.34000	4073.00000
26.35000	4019.00000
26.36000	3915.00000
26.37000	3880.00000
26.38000	3804.00000
26.39000	3731.00000
26.40000	3754.00000
26.41000	3711.00000
26.42000	3684.00000
26.43000	3711.00000
26.44000	3671.00000
26.45000	3656.00000
26.46000	3670.00000
26.47000	3678.00000
26.48000	3682.00000
26.49000	3697.00000
26.50000	3684.00000
26.51000	3651.00000
26.52000	3673.00000
26.53000	3719.00000
26.54000	3764.00000
26.55000	3793.00000
26.56000	3804.00000
26.57000	3838.00000
26.58000	3908.00000
26.59000	3899.00000
26.60000	3942.00000
26.61000	3933.00000
26.62000	3852.00000
26.63000	3821.00000
26.64000	3809.00000
26.65000	3746.00000
26.66000	3708.00000
26.67000	3700.00000
26.68000	3615.00000
26.69000	3600.00000
26.70000	3632.00000
26.71000	3601.00000
26.72000	3612.00000
26.73000	3613.00000
26.74000	3577.00000
26.75000	3592.00000
26.76000	3600.00000
26.77000	3612.00000
26.78000	3614.00000
26.79000	3641.00000
26.80000	3628.00000
26.81000	3611.00000
26.82000	3643.00000
26.83000	3655.00000
26.84000	3689.00000
26.85000	3728.00000
26.86000	3714.00000
26.87000	3721.00000
26.88000	3776.00000
26.89000	3820.00000
26.90000	3857.00000
26.91000	3885.00000
26.92000	3952.00000
26.93000	3999.00000
26.94000	4060.00000
26.95000	4175.00000
26.96000	4269.00000
26.97000	4445.00000
26.98000	4588.00000
26.99000	4819.00000
27.00000	5139.00000
27.01000	5414.00000
27.02000	5715.00000
27.03000	5976.00000
27.04000	6075.00000
27.05000	6012.00000
27.06000	5943.00000
27.07000	5723.00000
27.08000	5502.00000
27.09000	5343.00000
27.10000	5117.00000
27.11000	4974.00000
27.12000	4852.00000
27.13000	4754.00000
27.14000	4633.00000
27.15000	4601.00000
27.16000	4529.00000
27.17000	4514.00000
27.18000	4523.00000
27.19000	4522.00000
27.20000	4536.00000
27.21000	4560.00000
27.22000	4555.00000
27.23000	4538.00000
27.24000	4613.00000
27.25000	4657.00000
27.26000	4664.00000
27.27000	4764.00000
27.28000	4880.00000
27.29000	4973.00000
27.30000	5144.00000
27.31000	5392.00000
27.32000	5607.00000
27.33000	5888.00000
27.34000	6204.00000
27.35000	6565.00000
27.36000	7020.00000
27.37000	7359.00000
27.38000	7658.00000
27.39000	7879.00000
27.40000	7905.00000
27.41000	7742.00000
27.42000	7656.00000
27.43000	7458.00000
27.44000	7170.00000
27.45000	6951.00000
27.46000	6651.00000
27.47000	6364.00000
27.48000	6107.00000
27.49000	5918.00000
27.50000	5614.00000
27.51000	5475.00000
27.52000	5278.00000
27.53000	5143.00000
27.54000	4987.00000
27.55000	4913.00000
27.56000	4823.00000
27.57000	4794.00000
27.58000	4715.00000
27.59000	4725.00000
27.60000	4767.00000
27.61000	4816.00000
27.62000	4889.00000
27.63000	5001.00000
27.64000	5104.00000
27.65000	5142.00000
27.66000	5275.00000
27.67000	5335.00000
27.68000	5380.00000
27.69000	5353.00000
27.70000	5290.00000
27.71000	5307.00000
27.72000	5278.00000
27.73000	5304.00000
27.74000	5252.00000
27.75000	5251.00000
27.76000	5156.00000
27.77000	5032.00000
27.78000	4949.00000
27.79000	4810.00000
27.80000	4743.00000
27.81000	4673.00000
27.82000	4653.00000
27.83000	4648.00000
27.84000	4690.00000
27.85000	4755.00000
27.86000	4813.00000
27.87000	4842.00000
27.88000	4803.00000
27.89000	4760.00000
27.90000	4791.00000
27.91000	4736.00000
27.92000	4626.00000
27.93000	4546.00000
27.94000	4443.00000
27.95000	4345.00000
27.96000	4280.00000
27.97000	4228.00000
27.98000	4150.00000
27.99000	4133.00000
28.00000	4085.00000
28.01000	4066.00000
28.02000	4069.00000
28.03000	4077.00000
28.04000	4101.00000
28.05000	4147.00000
28.06000	4175.00000
28.07000	4181.00000
28.08000	4241.00000
28.09000	4300.00000
28.10000	4322.00000
28.11000	4339.00000
28.12000	4293.00000
28.13000	4292.00000
28.14000	4250.00000
28.15000	4187.00000
28.16000	4133.00000
28.17000	4106.00000
28.18000	4003.00000
28.19000	3922.00000
28.20000	3887.00000
28.21000	3855.00000
28.22000	3850.00000
28.23000	3844.00000
28.24000	3807.00000
28.25000	3824.00000
28.26000	3862.00000
28.27000	3859.00000
28.28000	3939.00000
28.29000	3986.00000
28.30000	4040.00000
28.31000	4111.00000
28.32000	4218.00000
28.33000	4325.00000
28.34000	4474.00000
28.35000	4595.00000
28.36000	4665.00000
28.37000	4682.00000
28.38000	4726.00000
28.39000	4650.00000
28.40000	4522.00000
28.41000	4427.00000
28.42000	4271.00000
28.43000	4197.00000
28.44000	4146.00000
28.45000	4106.00000
28.46000	4033.00000
28.47000	3992.00000
28.48000	3944.00000
28.49000	3906.00000
28.50000	3891.00000
28.51000	3865.00000
28.52000	3839.00000
28.53000	3824.00000
28.54000	3839.00000
28.55000	3833.00000
28.56000	3925.00000
28.57000	4013.00000
28.58000	4062.00000
28.59000	4196.00000
28.60000	4275.00000
28.61000	4428.00000
28.62000	4576.00000
28.63000	4709.00000
28.64000	4783.00000
28.65000	4788.00000
28.66000	4765.00000
28.67000	4626.00000
28.68000	4498.00000
28.69000	4380.00000
28.70000	4282.00000
28.71000	4231.00000
28.72000	4161.00000
28.73000	4146.00000
28.74000	4155.00000
28.75000	4157.00000
28.76000	4142.00000
28.77000	4155.00000
28.78000	4120.00000
28.79000	4111.00000
28.80000	4128.00000
28.81000	4135.00000
28.82000	4148.00000
28.83000	4150.00000
28.84000	4190.00000
28.85000	4224.00000
28.86000	4321.00000
28.87000	4404.00000
28.88000	4533.00000
28.89000	4710.00000
28.90000	4837.00000
28.91000	5002.00000
28.92000	5195.00000
28.93000	5287.00000
28.94000	5374.00000
28.95000	5391.00000
28.96000	5354.00000
28.97000	5272.00000
28.98000	5131.00000
28.99000	5014.00000
29.00000	4921.00000
29.01000	4902.00000
29.02000	4818.00000
29.03000	4772.00000
29.04000	4766.00000
29.05000	4788.00000
29.06000	4739.00000
29.07000	4756.00000
29.08000	4672.00000
29.09000	4598.00000
29.10000	4529.00000
29.11000	4482.00000
29.12000	4360.00000
29.13000	4280.00000
29.14000	4186.00000
29.15000	4100.00000
29.16000	4027.00000
29.17000	4008.00000
29.18000	3927.00000
29.19000	3885.00000
29.20000	3852.00000
29.21000	3765.00000
29.22000	3752.00000
29.23000	3745.00000
29.24000	3722.00000
29.25000	3727.00000
29.26000	3706.00000
29.27000	3713.00000
29.28000	3741.00000
29.29000	3739.00000
29.30000	3759.00000
29.31000	3781.00000
29.32000	3762.00000
29.33000	3800.00000
29.34000	3796.00000
29.35000	3781.00000
29.36000	3761.00000
29.37000	3772.00000
29.38000	3724.00000
29.39000	3712.00000
29.40000	3711.00000
29.41000	3741.00000
29.42000	3732.00000
29.43000	3779.00000
29.44000	3731.00000
29.45000	3781.00000
29.46000	3826.00000
29.47000	3876.00000
29.48000	3900.00000
29.49000	3972.00000
29.50000	4033.00000
29.51000	4069.00000
29.52000	4170.00000
29.53000	4294.00000
29.54000	4346.00000
29.55000	4466.00000
29.56000	4491.00000
29.57000	4521.00000
29.58000	4594.00000
29.59000	4633.00000
29.60000	4733.00000
29.61000	4835.00000
29.62000	4995.00000
29.63000	5148.00000
29.64000	5333.00000
29.65000	5519.00000
29.66000	5698.00000
29.67000	5866.00000
29.68000	5936.00000
29.69000	5926.00000
29.70000	5893.00000
29.71000	5857.00000
29.72000	5803.00000
29.73000	5725.00000
29.74000	5618.00000
29.75000	5507.00000
29.76000	5516.00000
29.77000	5463.00000
29.78000	5445.00000
29.79000	5480.00000
29.80000	5511.00000
29.81000	5424.00000
29.82000	5476.00000
29.83000	5417.00000
29.84000	5267.00000
29.85000	5109.00000
29.86000	4894.00000
29.87000	4713.00000
29.88000	4580.00000
29.89000	4447.00000
29.90000	4308.00000
29.91000	4238.00000
29.92000	4135.00000
29.93000	3992.00000
29.94000	3980.00000
29.95000	3950.00000
29.96000	3904.00000
29.97000	3881.00000
29.98000	3848.00000
29.99000	3782.00000
30.00000	3786.00000
30.01000	3765.00000
30.02000	3797.00000
30.03000	3796.00000
30.04000	3773.00000
30.05000	3743.00000
30.06000	3759.00000
30.07000	3758.00000
30.08000	3776.00000
30.09000	3770.00000
30.10000	3781.00000
30.11000	3757.00000
30.12000	3807.00000
30.13000	3823.00000
30.14000	3829.00000
30.15000	3861.00000
30.16000	3847.00000
30.17000	3849.00000
30.18000	3868.00000
30.19000	3888.00000
30.20000	3939.00000
30.21000	3978.00000
30.22000	3978.00000
30.23000	4040.00000
30.24000	4085.00000
30.25000	4136.00000
30.26000	4217.00000
30.27000	4267.00000
30.28000	4265.00000
30.29000	4258.00000
30.30000	4286.00000
30.31000	4294.00000
30.32000	4331.00000
30.33000	4386.00000
30.34000	4441.00000
30.35000	4534.00000
30.36000	4720.00000
30.37000	4889.00000
30.38000	5030.00000
30.39000	5204.00000
30.40000	5241.00000
30.41000	5247.00000
30.42000	5197.00000
30.43000	5071.00000
30.44000	4870.00000
30.45000	4724.00000
30.46000	4538.00000
30.47000	4365.00000
30.48000	4264.00000
30.49000	4222.00000
30.50000	4160.00000
30.51000	4141.00000
30.52000	4076.00000
30.53000	4039.00000
30.54000	4035.00000
30.55000	3998.00000
30.56000	4034.00000
30.57000	4037.00000
30.58000	4027.00000
30.59000	4015.00000
30.60000	4053.00000
30.61000	4050.00000
30.62000	4071.00000
30.63000	4106.00000
30.64000	4119.00000
30.65000	4151.00000
30.66000	4242.00000
30.67000	4296.00000
30.68000	4289.00000
30.69000	4284.00000
30.70000	4269.00000
30.71000	4228.00000
30.72000	4183.00000
30.73000	4233.00000
30.74000	4240.00000
30.75000	4293.00000
30.76000	4325.00000
30.77000	4398.00000
30.78000	4516.00000
30.79000	4564.00000
30.80000	4616.00000
30.81000	4742.00000
30.82000	4730.00000
30.83000	4772.00000
30.84000	4840.00000
30.85000	4876.00000
30.86000	4905.00000
30.87000	4923.00000
30.88000	4911.00000
30.89000	4933.00000
30.90000	5022.00000
30.91000	5070.00000
30.92000	5199.00000
30.93000	5329.00000
30.94000	5414.00000
30.95000	5495.00000
30.96000	5604.00000
30.97000	5656.00000
30.98000	5687.00000
30.99000	5660.00000
31.00000	5570.00000
31.01000	5470.00000
31.02000	5427.00000
31.03000	5369.00000
31.04000	5347.00000
31.05000	5367.00000
31.06000	5300.00000
31.07000	5318.00000
31.08000	5327.00000
31.09000	5223.00000
31.10000	5120.00000
31.11000	4983.00000
31.12000	4797.00000
31.13000	4594.00000
31.14000	4463.00000
31.15000	4327.00000
31.16000	4219.00000
31.17000	4158.00000
31.18000	4063.00000
31.19000	3980.00000
31.20000	3977.00000
31.21000	3971.00000
31.22000	3915.00000
31.23000	3949.00000
31.24000	3916.00000
31.25000	3904.00000
31.26000	3926.00000
31.27000	3942.00000
31.28000	3964.00000
31.29000	4068.00000
31.30000	4046.00000
31.31000	4063.00000
31.32000	4152.00000
31.33000	4240.00000
31.34000	4277.00000
31.35000	4324.00000
31.36000	4326.00000
31.37000	4324.00000
31.38000	4365.00000
31.39000	4335.00000
31.40000	4307.00000
31.41000	4294.00000
31.42000	4238.00000
31.43000	4222.00000
31.44000	4220.00000
31.45000	4176.00000
31.46000	4139.00000
31.47000	4158.00000
31.48000	4101.00000
31.49000	4102.00000
31.50000	4138.00000
31.51000	4149.00000
31.52000	4178.00000
31.53000	4228.00000
31.54000	4294.00000
31.55000	4349.00000
31.56000	4434.00000
31.57000	4522.00000
31.58000	4599.00000
31.59000	4719.00000
31.60000	4791.00000
31.61000	4796.00000
31.62000	4886.00000
31.63000	4850.00000
31.64000	4831.00000
31.65000	4804.00000
31.66000	4773.00000
31.67000	4775.00000
31.68000	4749.00000
31.69000	4718.00000
31.70000	4670.00000
31.71000	4656.00000
31.72000	4610.00000
31.73000	4593.00000
31.74000	4631.00000
31.75000	4663.00000
31.76000	4738.00000
31.77000	4814.00000
31.78000	4808.00000
31.79000	4789.00000
31.80000	4784.00000
31.81000	4685.00000
31.82000	4606.00000
31.83000	4514.00000
31.84000	4442.00000
31.85000	4359.00000
31.86000	4310.00000
31.87000	4257.00000
31.88000	4248.00000
31.89000	4249.00000
31.90000	4252.00000
31.91000	4238.00000
31.92000	4297.00000
31.93000	4270.00000
31.94000	4294.00000
31.95000	4283.00000
31.96000	4223.00000
31.97000	4161.00000
31.98000	4159.00000
31.99000	4073.00000
32.00000	4029.00000
32.01000	3983.00000
32.02000	3903.00000
32.03000	3841.00000
32.04000	3823.00000
32.05000	3792.00000
32.06000	3745.00000
32.07000	3753.00000
32.08000	3693.00000
32.09000	3683.00000
32.10000	3708.00000
32.11000	3710.00000
32.12000	3690.00000
32.13000	3709.00000
32.14000	3678.00000
32.15000	3673.00000
32.16000	3717.00000
32.17000	3746.00000
32.18000	3709.00000
32.19000	3765.00000
32.20000	3757.00000
32.21000	3769.00000
32.22000	3815.00000
32.23000	3833.00000
32.24000	3836.00000
32.25000	3823.00000
32.26000	3829.00000
32.27000	3778.00000
32.28000	3778.00000
32.29000	3772.00000
32.30000	3777.00000
32.31000	3768.00000
32.32000	3771.00000
32.33000	3752.00000
32.34000	3736.00000
32.35000	3756.00000
32.36000	3770.00000
32.37000	3778.00000
32.38000	3765.00000
32.39000	3813.00000
32.40000	3870.00000
32.41000	3897.00000
32.42000	3929.00000
32.43000	3992.00000
32.44000	4033.00000
32.45000	4070.00000
32.46000	4173.00000
32.47000	4241.00000
32.48000	4303.00000
32.49000	4347.00000
32.50000	4355.00000
32.51000	4347.00000
32.52000	4338.00000
32.53000	4278.00000
32.54000	4194.00000
32.55000	4143.00000
32.56000	4059.00000
32.57000	3964.00000
32.58000	3918.00000
32.59000	3913.00000
32.60000	3827.00000
32.61000	3806.00000
32.62000	3783.00000
32.63000	3753.00000
32.64000	3767.00000
32.65000	3745.00000
32.66000	3742.00000
32.67000	3746.00000
32.68000	3707.00000
32.69000	3678.00000
32.70000	3708.00000
32.71000	3698.00000
32.72000	3735.00000
32.73000	3756.00000
32.74000	3758.00000
32.75000	3765.00000
32.76000	3782.00000
32.77000	3820.00000
32.78000	3814.00000
32.79000	3811.00000
32.80000	3820.00000
32.81000	3786.00000
32.82000	3828.00000
32.83000	3872.00000
32.84000	3848.00000
32.85000	3877.00000
32.86000	3848.00000
32.87000	3834.00000
32.88000	3846.00000
32.89000	3817.00000
32.90000	3801.00000
32.91000	3804.00000
32.92000	3743.00000
32.93000	3724.00000
32.94000	3759.00000
32.95000	3723.00000
32.96000	3705.00000
32.97000	3723.00000
32.98000	3697.00000
32.99000	3650.00000
33.00000	3708.00000
33.01000	3731.00000
33.02000	3719.00000
33.03000	3748.00000
33.04000	3706.00000
33.05000	3681.00000
33.06000	3738.00000
33.07000	3699.00000
33.08000	3691.00000
33.09000	3735.00000
33.10000	3717.00000
33.11000	3692.00000
33.12000	3697.00000
33.13000	3665.00000
33.14000	3694.00000
33.15000	3696.00000
33.16000	3706.00000
33.17000	3669.00000
33.18000	3694.00000
33.19000	3709.00000
33.20000	3719.00000
33.21000	3735.00000
33.22000	3739.00000
33.23000	3737.00000
33.24000	3797.00000
33.25000	3808.00000
33.26000	3819.00000
33.27000	3897.00000
33.28000	3927.00000
33.29000	3949.00000
33.30000	4029.00000
33.31000	4078.00000
33.32000	4118.00000
33.33000	4209.00000
33.34000	4222.00000
33.35000	4261.00000
33.36000	4318.00000
33.37000	4371.00000
33.38000	4437.00000
33.39000	4505.00000
33.40000	4512.00000
33.41000	4560.00000
33.42000	4621.00000
33.43000	4618.00000
33.44000	4637.00000
33.45000	4629.00000
33.46000	4609.00000
33.47000	4605.00000
33.48000	4655.00000
33.49000	4746.00000
33.50000	4779.00000
33.51000	4885.00000
33.52000	4977.00000
33.53000	4971.00000
33.54000	4962.00000
33.55000	4946.00000
33.56000	4908.00000
33.57000	4842.00000
33.58000	4763.00000
33.59000	4745.00000
33.60000	4764.00000
33.61000	4733.00000
33.62000	4740.00000
33.63000	4765.00000
33.64000	4734.00000
33.65000	4672.00000
33.66000	4647.00000
33.67000	4589.00000
33.68000	4548.00000
33.69000	4561.00000
33.70000	4469.00000
33.71000	4489.00000
33.72000	4562.00000
33.73000	4583.00000
33.74000	4699.00000
33.75000	4742.00000
33.76000	4850.00000
33.77000	4920.00000
33.78000	5076.00000
33.79000	5134.00000
33.80000	5130.00000
33.81000	5138.00000
33.82000	5026.00000
33.83000	4946.00000
33.84000	4875.00000
33.85000	4776.00000
33.86000	4758.00000
33.87000	4745.00000
33.88000	4697.00000
33.89000	4729.00000
33.90000	4778.00000
33.91000	4870.00000
33.92000	4912.00000
33.93000	5032.00000
33.94000	5057.00000
33.95000	5091.00000
33.96000	5114.00000
33.97000	5041.00000
33.98000	4973.00000
33.99000	4879.00000
34.00000	4765.00000
34.01000	4636.00000
34.02000	4560.00000
34.03000	4473.00000
34.04000	4447.00000
34.05000	4395.00000
34.06000	4311.00000
34.07000	4256.00000
34.08000	4233.00000
34.09000	4187.00000
34.10000	4161.00000
34.11000	4096.00000
34.12000	4028.00000
34.13000	3975.00000
34.14000	4000.00000
34.15000	3968.00000
34.16000	3934.00000
34.17000	3948.00000
34.18000	3943.00000
34.19000	3938.00000
34.20000	3995.00000
34.21000	3997.00000
34.22000	4036.00000
34.23000	4131.00000
34.24000	4179.00000
34.25000	4218.00000
34.26000	4297.00000
34.27000	4347.00000
34.28000	4384.00000
34.29000	4372.00000
34.30000	4370.00000
34.31000	4364.00000
34.32000	4286.00000
34.33000	4300.00000
34.34000	4258.00000
34.35000	4214.00000
34.36000	4118.00000
34.37000	4087.00000
34.38000	4059.00000
34.39000	4004.00000
34.40000	4002.00000
34.41000	4013.00000
34.42000	3966.00000
34.43000	3923.00000
34.44000	3955.00000
34.45000	3975.00000
34.46000	3976.00000
34.47000	4007.00000
34.48000	3994.00000
34.49000	3986.00000
34.50000	4061.00000
34.51000	4079.00000
34.52000	4130.00000
34.53000	4152.00000
34.54000	4184.00000
34.55000	4245.00000
34.56000	4257.00000
34.57000	4320.00000
34.58000	4369.00000
34.59000	4384.00000
34.60000	4401.00000
34.61000	4383.00000
34.62000	4364.00000
34.63000	4335.00000
34.64000	4297.00000
34.65000	4251.00000
34.66000	4147.00000
34.67000	4127.00000
34.68000	4105.00000
34.69000	4080.00000
34.70000	4016.00000
34.71000	4056.00000
34.72000	4024.00000
34.73000	3996.00000
34.74000	4003.00000
34.75000	4010.00000
34.76000	4037.00000
34.77000	4040.00000
34.78000	4045.00000
34.79000	4066.00000
34.80000	4078.00000
34.81000	4071.00000
34.82000	4044.00000
34.83000	4016.00000
34.84000	3970.00000
34.85000	3890.00000
34.86000	3889.00000
34.87000	3882.00000
34.88000	3907.00000
34.89000	3893.00000
34.90000	3932.00000
34.91000	3841.00000
34.92000	3924.00000
34.93000	3925.00000
34.94000	3944.00000
34.95000	4015.00000
34.96000	4042.00000
34.97000	4069.00000
34.98000	4123.00000
34.99000	4133.00000
35.00000	4217.00000
35.01000	4225.00000
35.02000	4222.00000
35.03000	4221.00000
35.04000	4254.00000
35.05000	4267.00000
35.06000	4319.00000
35.07000	4371.00000
35.08000	4378.00000
35.09000	4318.00000
35.10000	4375.00000
35.11000	4377.00000
35.12000	4326.00000
35.13000	4312.00000
35.14000	4270.00000
35.15000	4292.00000
35.16000	4246.00000
35.17000	4303.00000
35.18000	4299.00000
35.19000	4365.00000
35.20000	4336.00000
35.21000	4345.00000
35.22000	4335.00000
35.23000	4306.00000
35.24000	4243.00000
35.25000	4201.00000
35.26000	4134.00000
35.27000	4033.00000
35.28000	4009.00000
35.29000	3959.00000
35.30000	3911.00000
35.31000	3879.00000
35.32000	3829.00000
35.33000	3796.00000
35.34000	3817.00000
35.35000	3796.00000
35.36000	3806.00000
35.37000	3794.00000
35.38000	3802.00000
35.39000	3794.00000
35.40000	3816.00000
35.41000	3829.00000
35.42000	3844.00000
35.43000	3843.00000
35.44000	3883.00000
35.45000	3857.00000
35.46000	3925.00000
35.47000	3859.00000
35.48000	3890.00000
35.49000	3923.00000
35.50000	3881.00000
35.51000	3894.00000
35.52000	3894.00000
35.53000	3885.00000
35.54000	3900.00000
35.55000	3906.00000
35.56000	3929.00000
35.57000	3927.00000
35.58000	3953.00000
35.59000	3969.00000
35.60000	4030.00000
35.61000	4031.00000
35.62000	4088.00000
35.63000	4140.00000
35.64000	4184.00000
35.65000	4254.00000
35.66000	4297.00000
35.67000	4415.00000
35.68000	4469.00000
35.69000	4496.00000
35.70000	4578.00000
35.71000	4629.00000
35.72000	4651.00000
35.73000	4699.00000
35.74000	4705.00000
35.75000	4692.00000
35.76000	4705.00000
35.77000	4702.00000
35.78000	4701.00000
35.79000	4605.00000
35.80000	4554.00000
35.81000	4479.00000
35.82000	4430.00000
35.83000	4374.00000
35.84000	4315.00000
35.85000	4276.00000
35.86000	4209.00000
35.87000	4150.00000
35.88000	4141.00000
35.89000	4098.00000
35.90000	4073.00000
35.91000	4079.00000
35.92000	4043.00000
35.93000	3990.00000
35.94000	4033.00000
35.95000	4027.00000
35.96000	4030.00000
35.97000	4015.00000
35.98000	4030.00000
35.99000	4034.00000
36.00000	4057.00000
36.01000	4029.00000
36.02000	4006.00000
36.03000	4046.00000
36.04000	4041.00000
36.05000	4032.00000
36.06000	4070.00000
36.07000	4108.00000
36.08000	4139.00000
36.09000	4169.00000
36.10000	4212.00000
36.11000	4259.00000
36.12000	4324.00000
36.13000	4425.00000
36.14000	4530.00000
36.15000	4581.00000
36.16000	4603.00000
36.17000	4623.00000
36.18000	4581.00000
36.19000	4561.00000
36.20000	4490.00000
36.21000	4430.00000
36.22000	4319.00000
36.23000	4218.00000
36.24000	4216.00000
36.25000	4165.00000
36.26000	4097.00000
36.27000	4108.00000
36.28000	4058.00000
36.29000	4023.00000
36.30000	4050.00000
36.31000	4063.00000
36.32000	4106.00000
36.33000	4113.00000
36.34000	4152.00000
36.35000	4209.00000
36.36000	4331.00000
36.37000	4411.00000
36.38000	4506.00000
36.39000	4617.00000
36.40000	4699.00000
36.41000	4768.00000
36.42000	4954.00000
36.43000	4989.00000
36.44000	5030.00000
36.45000	5093.00000
36.46000	5044.00000
36.47000	4977.00000
36.48000	4977.00000
36.49000	4918.00000
36.50000	4858.00000
36.51000	4799.00000
36.52000	4688.00000
36.53000	4624.00000
36.54000	4632.00000
36.55000	4553.00000
36.56000	4503.00000
36.57000	4445.00000
36.58000	4366.00000
36.59000	4273.00000
36.60000	4256.00000
36.61000	4227.00000
36.62000	4158.00000
36.63000	4108.00000
36.64000	4070.00000
36.65000	4028.00000
36.66000	4040.00000
36.67000	4002.00000
36.68000	4028.00000
36.69000	4048.00000
36.70000	4058.00000
36.71000	4035.00000
36.72000	4080.00000
36.73000	4091.00000
36.74000	4146.00000
36.75000	4219.00000
36.76000	4223.00000
36.77000	4243.00000
36.78000	4338.00000
36.79000	4333.00000
36.80000	4343.00000
36.81000	4408.00000
36.82000	4360.00000
36.83000	4350.00000
36.84000	4388.00000
36.85000	4393.00000
36.86000	4451.00000
36.87000	4468.00000
36.88000	4521.00000
36.89000	4558.00000
36.90000	4652.00000
36.91000	4714.00000
36.92000	4833.00000
36.93000	4926.00000
36.94000	4913.00000
36.95000	4893.00000
36.96000	4899.00000
36.97000	4863.00000
36.98000	4767.00000
36.99000	4748.00000
37.00000	4665.00000
37.01000	4609.00000
37.02000	4561.00000
37.03000	4516.00000
37.04000	4506.00000
37.05000	4471.00000
37.06000	4412.00000
37.07000	4325.00000
37.08000	4334.00000
37.09000	4278.00000
37.10000	4263.00000
37.11000	4257.00000
37.12000	4198.00000
37.13000	4163.00000
37.14000	4182.00000
37.15000	4158.00000
37.16000	4151.00000
37.17000	4149.00000
37.18000	4128.00000
37.19000	4089.00000
37.20000	4098.00000
37.21000	4049.00000
37.22000	4022.00000
37.23000	3989.00000
37.24000	3939.00000
37.25000	3889.00000
37.26000	3882.00000
37.27000	3881.00000
37.28000	3846.00000
37.29000	3854.00000
37.30000	3802.00000
37.31000	3795.00000
37.32000	3789.00000
37.33000	3781.00000
37.34000	3749.00000
37.35000	3785.00000
37.36000	3724.00000
37.37000	3714.00000
37.38000	3724.00000
37.39000	3702.00000
37.40000	3703.00000
37.41000	3726.00000
37.42000	3690.00000
37.43000	3674.00000
37.44000	3680.00000
37.45000	3705.00000
37.46000	3708.00000
37.47000	3711.00000
37.48000	3709.00000
37.49000	3694.00000
37.50000	3740.00000
37.51000	3779.00000
37.52000	3839.00000
37.53000	3862.00000
37.54000	3897.00000
37.55000	3898.00000
37.56000	3947.00000
37.57000	3945.00000
37.58000	3928.00000
37.59000	3930.00000
37.60000	3899.00000
37.61000	3856.00000
37.62000	3864.00000
37.63000	3844.00000
37.64000	3795.00000
37.65000	3815.00000
37.66000	3745.00000
37.67000	3743.00000
37.68000	3742.00000
37.69000	3738.00000
37.70000	3697.00000
37.71000	3695.00000
37.72000	3658.00000
37.73000	3658.00000
37.74000	3678.00000
37.75000	3675.00000
37.76000	3694.00000
37.77000	3733.00000
37.78000	3709.00000
37.79000	3720.00000
37.80000	3746.00000
37.81000	3795.00000
37.82000	3789.00000
37.83000	3874.00000
37.84000	3858.00000
37.85000	3899.00000
37.86000	3925.00000
37.87000	4023.00000
37.88000	4059.00000
37.89000	4107.00000
37.90000	4116.00000
37.91000	4118.00000
37.92000	4177.00000
37.93000	4156.00000
37.94000	4180.00000
37.95000	4230.00000
37.96000	4196.00000
37.97000	4132.00000
37.98000	4129.00000
37.99000	4081.00000
38.00000	4029.00000
38.01000	4010.00000
38.02000	3969.00000
38.03000	3915.00000
38.04000	3869.00000
38.05000	3860.00000
38.06000	3804.00000
38.07000	3787.00000
38.08000	3760.00000
38.09000	3681.00000
38.10000	3698.00000
38.11000	3668.00000
38.12000	3625.00000
38.13000	3642.00000
38.14000	3594.00000
38.15000	3564.00000
38.16000	3570.00000
38.17000	3574.00000
38.18000	3554.00000
38.19000	3570.00000
38.20000	3557.00000
38.21000	3559.00000
38.22000	3577.00000
38.23000	3556.00000
38.24000	3579.00000
38.25000	3580.00000
38.26000	3527.00000
38.27000	3547.00000
38.28000	3544.00000
38.29000	3555.00000
38.30000	3538.00000
38.31000	3572.00000
38.32000	3544.00000
38.33000	3507.00000
38.34000	3534.00000
38.35000	3517.00000
38.36000	3550.00000
38.37000	3529.00000
38.38000	3515.00000
38.39000	3490.00000
38.40000	3534.00000
38.41000	3523.00000
38.42000	3546.00000
38.43000	3542.00000
38.44000	3526.00000
38.45000	3497.00000
38.46000	3553.00000
38.47000	3563.00000
38.48000	3577.00000
38.49000	3612.00000
38.50000	3609.00000
38.51000	3600.00000
38.52000	3651.00000
38.53000	3631.00000
38.54000	3655.00000
38.55000	3695.00000
38.56000	3693.00000
38.57000	3674.00000
38.58000	3711.00000
38.59000	3699.00000
38.60000	3743.00000
38.61000	3753.00000
38.62000	3701.00000
38.63000	3701.00000
38.64000	3751.00000
38.65000	3715.00000
38.66000	3690.00000
38.67000	3726.00000
38.68000	3722.00000
38.69000	3702.00000
38.70000	3693.00000
38.71000	3717.00000
38.72000	3679.00000
38.73000	3685.00000
38.74000	3653.00000
38.75000	3626.00000
38.76000	3625.00000
38.77000	3591.00000
38.78000	3618.00000
38.79000	3613.00000
38.80000	3616.00000
38.81000	3559.00000
38.82000	3575.00000
38.83000	3592.00000
38.84000	3600.00000
38.85000	3572.00000
38.86000	3559.00000
38.87000	3559.00000
38.88000	3583.00000
38.89000	3584.00000
38.90000	3606.00000
38.91000	3608.00000
38.92000	3623.00000
38.93000	3600.00000
38.94000	3607.00000
38.95000	3608.00000
38.96000	3625.00000
38.97000	3606.00000
38.98000	3570.00000
38.99000	3586.00000
39.00000	3561.00000
39.01000	3568.00000
39.02000	3572.00000
39.03000	3532.00000
39.04000	3506.00000
39.05000	3554.00000
39.06000	3532.00000
39.07000	3555.00000
39.08000	3544.00000
39.09000	3589.00000
39.10000	3574.00000
39.11000	3557.00000
39.12000	3582.00000
39.13000	3613.00000
39.14000	3634.00000
39.15000	3663.00000
39.16000	3653.00000
39.17000	3670.00000
39.18000	3692.00000
39.19000	3711.00000
39.20000	3724.00000
39.21000	3727.00000
39.22000	3719.00000
39.23000	3687.00000
39.24000	3688.00000
39.25000	3707.00000
39.26000	3687.00000
39.27000	3672.00000
39.28000	3644.00000
39.29000	3640.00000
39.30000	3662.00000
39.31000	3666.00000
39.32000	3653.00000
39.33000	3666.00000
39.34000	3631.00000
39.35000	3617.00000
39.36000	3675.00000
39.37000	3661.00000
39.38000	3665.00000
39.39000	3640.00000
39.40000	3617.00000
39.41000	3596.00000
39.42000	3614.00000
39.43000	3567.00000
39.44000	3534.00000
39.45000	3533.00000
39.46000	3492.00000
39.47000	3450.00000
39.48000	3452.00000
39.49000	3475.00000
39.50000	3464.00000
39.51000	3492.00000
39.52000	3458.00000
39.53000	3429.00000
39.54000	3458.00000
39.55000	3439.00000
39.56000	3470.00000
39.57000	3482.00000
39.58000	3441.00000
39.59000	3446.00000
39.60000	3458.00000
39.61000	3480.00000
39.62000	3491.00000
39.63000	3527.00000
39.64000	3506.00000
39.65000	3504.00000
39.66000	3527.00000
39.67000	3537.00000
39.68000	3559.00000
39.69000	3573.00000
39.70000	3556.00000
39.71000	3567.00000
39.72000	3605.00000
39.73000	3613.00000
39.74000	3618.00000
39.75000	3641.00000
39.76000	3600.00000
39.77000	3606.00000
39.78000	3639.00000
39.79000	3631.00000
39.80000	3672.00000
39.81000	3645.00000
39.82000	3652.00000
39.83000	3617.00000
39.84000	3645.00000
39.85000	3635.00000
39.86000	3653.00000
39.87000	3681.00000
39.88000	3632.00000
39.89000	3670.00000
39.90000	3663.00000
39.91000	3692.00000
39.92000	3721.00000
39.93000	3732.00000
39.94000	3701.00000
39.95000	3716.00000
39.96000	3760.00000
39.97000	3764.00000
39.98000	3782.00000
39.99000	3798.00000
40.00000	3801.00000
40.01000	3772.00000
40.02000	3804.00000
40.03000	3752.00000
40.04000	3740.00000
40.05000	3743.00000
40.06000	3715.00000
40.07000	3721.00000
40.08000	3703.00000
40.09000	3721.00000
40.10000	3707.00000
40.11000	3720.00000
40.12000	3721.00000
40.13000	3683.00000
40.14000	3686.00000
40.15000	3701.00000
40.16000	3722.00000
40.17000	3755.00000
40.18000	3750.00000
40.19000	3723.00000
40.20000	3758.00000
40.21000	3796.00000
40.22000	3779.00000
40.23000	3851.00000
40.24000	3829.00000
40.25000	3811.00000
40.26000	3850.00000
40.27000	3831.00000
40.28000	3828.00000
40.29000	3831.00000
40.30000	3794.00000
40.31000	3804.00000
40.32000	3822.00000
40.33000	3819.00000
40.34000	3827.00000
40.35000	3854.00000
40.36000	3868.00000
40.37000	3861.00000
40.38000	3872.00000
40.39000	3903.00000
40.40000	3895.00000
40.41000	3903.00000
40.42000	3887.00000
40.43000	3883.00000
40.44000	3883.00000
40.45000	3887.00000
40.46000	3870.00000
40.47000	3855.00000
40.48000	3848.00000
40.49000	3818.00000
40.50000	3835.00000
40.51000	3825.00000
40.52000	3809.00000
40.53000	3805.00000
40.54000	3783.00000
40.55000	3756.00000
40.56000	3753.00000
40.57000	3721.00000
40.58000	3719.00000
40.59000	3716.00000
40.60000	3672.00000
40.61000	3685.00000
40.62000	3703.00000
40.63000	3699.00000
40.64000	3697.00000
40.65000	3727.00000
40.66000	3711.00000
40.67000	3691.00000
40.68000	3699.00000
40.69000	3695.00000
40.70000	3686.00000
40.71000	3712.00000
40.72000	3688.00000
40.73000	3668.00000
40.74000	3700.00000
40.75000	3682.00000
40.76000	3691.00000
40.77000	3697.00000
40.78000	3664.00000
40.79000	3634.00000
40.80000	3694.00000
40.81000	3645.00000
40.82000	3681.00000
40.83000	3652.00000
40.84000	3626.00000
40.85000	3580.00000
40.86000	3603.00000
40.87000	3639.00000
40.88000	3574.00000
40.89000	3586.00000
40.90000	3561.00000
40.91000	3501.00000
40.92000	3543.00000
40.93000	3506.00000
40.94000	3507.00000
40.95000	3541.00000
40.96000	3466.00000
40.97000	3486.00000
40.98000	3523.00000
40.99000	3467.00000
41.00000	3503.00000
41.01000	3496.00000
41.02000	3446.00000
41.03000	3446.00000
41.04000	3475.00000
41.05000	3457.00000
41.06000	3449.00000
41.07000	3470.00000
41.08000	3458.00000
41.09000	3418.00000
41.10000	3432.00000
41.11000	3447.00000
41.12000	3432.00000
41.13000	3441.00000
41.14000	3442.00000
41.15000	3455.00000
41.16000	3431.00000
41.17000	3438.00000
41.18000	3448.00000
41.19000	3480.00000
41.20000	3463.00000
41.21000	3463.00000
41.22000	3484.00000
41.23000	3504.00000
41.24000	3499.00000
41.25000	3533.00000
41.26000	3532.00000
41.27000	3504.00000
41.28000	3558.00000
41.29000	3591.00000
41.30000	3607.00000
41.31000	3626.00000
41.32000	3662.00000
41.33000	3642.00000
41.34000	3673.00000
41.35000	3709.00000
41.36000	3738.00000
41.37000	3761.00000
41.38000	3788.00000
41.39000	3749.00000
41.40000	3786.00000
41.41000	3789.00000
41.42000	3778.00000
41.43000	3787.00000
41.44000	3810.00000
41.45000	3795.00000
41.46000	3844.00000
41.47000	3863.00000
41.48000	3871.00000
41.49000	3832.00000
41.50000	3809.00000
41.51000	3801.00000
41.52000	3798.00000
41.53000	3766.00000
41.54000	3747.00000
41.55000	3786.00000
41.56000	3712.00000
41.57000	3665.00000
41.58000	3671.00000
41.59000	3668.00000
41.60000	3689.00000
41.61000	3652.00000
41.62000	3652.00000
41.63000	3641.00000
41.64000	3633.00000
41.65000	3683.00000
41.66000	3684.00000
41.67000	3705.00000
41.68000	3677.00000
41.69000	3684.00000
41.70000	3665.00000
41.71000	3701.00000
41.72000	3661.00000
41.73000	3687.00000
41.74000	3681.00000
41.75000	3663.00000
41.76000	3662.00000
41.77000	3674.00000
41.78000	3631.00000
41.79000	3620.00000
41.80000	3608.00000
41.81000	3565.00000
41.82000	3580.00000
41.83000	3568.00000
41.84000	3545.00000
41.85000	3557.00000
41.86000	3530.00000
41.87000	3530.00000
41.88000	3537.00000
41.89000	3571.00000
41.90000	3563.00000
41.91000	3584.00000
41.92000	3555.00000
41.93000	3551.00000
41.94000	3591.00000
41.95000	3579.00000
41.96000	3574.00000
41.97000	3603.00000
41.98000	3557.00000
41.99000	3554.00000
42.00000	3564.00000
42.01000	3539.00000
42.02000	3577.00000
42.03000	3572.00000
42.04000	3537.00000
42.05000	3534.00000
42.06000	3547.00000
42.07000	3573.00000
42.08000	3535.00000
42.09000	3564.00000
42.10000	3555.00000
42.11000	3564.00000
42.12000	3562.00000
42.13000	3602.00000
42.14000	3626.00000
42.15000	3632.00000
42.16000	3613.00000
42.17000	3602.00000
42.18000	3657.00000
42.19000	3620.00000
42.20000	3610.00000
42.21000	3614.00000
42.22000	3608.00000
42.23000	3561.00000
42.24000	3580.00000
42.25000	3596.00000
42.26000	3588.00000
42.27000	3597.00000
42.28000	3594.00000
42.29000	3608.00000
42.30000	3612.00000
42.31000	3609.00000
42.32000	3646.00000
42.33000	3647.00000
42.34000	3654.00000
42.35000	3679.00000
42.36000	3700.00000
42.37000	3734.00000
42.38000	3724.00000
42.39000	3761.00000
42.40000	3733.00000
42.41000	3719.00000
42.42000	3711.00000
42.43000	3684.00000
42.44000	3663.00000
42.45000	3673.00000
42.46000	3650.00000
42.47000	3641.00000
42.48000	3628.00000
42.49000	3644.00000
42.50000	3643.00000
42.51000	3585.00000
42.52000	3545.00000
42.53000	3568.00000
42.54000	3579.00000
42.55000	3593.00000
42.56000	3564.00000
42.57000	3599.00000
42.58000	3608.00000
42.59000	3606.00000
42.60000	3643.00000
42.61000	3643.00000
42.62000	3680.00000
42.63000	3690.00000
42.64000	3657.00000
42.65000	3648.00000
42.66000	3636.00000
42.67000	3653.00000
42.68000	3626.00000
42.69000	3668.00000
42.70000	3612.00000
42.71000	3609.00000
42.72000	3620.00000
42.73000	3596.00000
42.74000	3611.00000
42.75000	3628.00000
42.76000	3602.00000
42.77000	3563.00000
42.78000	3621.00000
42.79000	3630.00000
42.80000	3604.00000
42.81000	3642.00000
42.82000	3653.00000
42.83000	3688.00000
42.84000	3677.00000
42.85000	3715.00000
42.86000	3740.00000
42.87000	3779.00000
42.88000	3777.00000
42.89000	3763.00000
42.90000	3776.00000
42.91000	3805.00000
42.92000	3771.00000
42.93000	3824.00000
42.94000	3768.00000
42.95000	3746.00000
42.96000	3762.00000
42.97000	3764.00000
42.98000	3733.00000
42.99000	3741.00000
43.00000	3744.00000
43.01000	3724.00000
43.02000	3748.00000
43.03000	3718.00000
43.04000	3719.00000
43.05000	3737.00000
43.06000	3714.00000
43.07000	3707.00000
43.08000	3711.00000
43.09000	3707.00000
43.10000	3710.00000
43.11000	3728.00000
43.12000	3707.00000
43.13000	3703.00000
43.14000	3706.00000
43.15000	3683.00000
43.16000	3702.00000
43.17000	3703.00000
43.18000	3682.00000
43.19000	3656.00000
43.20000	3656.00000
43.21000	3659.00000
43.22000	3671.00000
43.23000	3712.00000
43.24000	3674.00000
43.25000	3659.00000
43.26000	3693.00000
43.27000	3668.00000
43.28000	3662.00000
43.29000	3648.00000
43.30000	3624.00000
43.31000	3595.00000
43.32000	3574.00000
43.33000	3584.00000
43.34000	3615.00000
43.35000	3594.00000
43.36000	3606.00000
43.37000	3548.00000
43.38000	3555.00000
43.39000	3584.00000
43.40000	3568.00000
43.41000	3579.00000
43.42000	3553.00000
43.43000	3535.00000
43.44000	3587.00000
43.45000	3590.00000
43.46000	3612.00000
43.47000	3661.00000
43.48000	3627.00000
43.49000	3651.00000
43.50000	3700.00000
43.51000	3703.00000
43.52000	3730.00000
43.53000	3774.00000
43.54000	3775.00000
43.55000	3783.00000
43.56000	3804.00000
43.57000	3844.00000
43.58000	3841.00000
43.59000	3834.00000
43.60000	3829.00000
43.61000	3788.00000
43.62000	3840.00000
43.63000	3821.00000
43.64000	3839.00000
43.65000	3828.00000
43.66000	3821.00000
43.67000	3834.00000
43.68000	3810.00000
43.69000	3836.00000
43.70000	3815.00000
43.71000	3852.00000
43.72000	3845.00000
43.73000	3823.00000
43.74000	3788.00000
43.75000	3788.00000
43.76000	3788.00000
43.77000	3764.00000
43.78000	3750.00000
43.79000	3746.00000
43.80000	3706.00000
43.81000	3741.00000
43.82000	3700.00000
43.83000	3726.00000
43.84000	3697.00000
43.85000	3662.00000
43.86000	3696.00000
43.87000	3703.00000
43.88000	3722.00000
43.89000	3736.00000
43.90000	3752.00000
43.91000	3768.00000
43.92000	3829.00000
43.93000	3847.00000
43.94000	3860.00000
43.95000	3864.00000
43.96000	3866.00000
43.97000	3843.00000
43.98000	3871.00000
43.99000	3848.00000
44.00000	3797.00000
44.01000	3781.00000
44.02000	3773.00000
44.03000	3743.00000
44.04000	3774.00000
44.05000	3765.00000
44.06000	3782.00000
44.07000	3812.00000
44.08000	3775.00000
44.09000	3779.00000
44.10000	3808.00000
44.11000	3822.00000
44.12000	3829.00000
44.13000	3875.00000
44.14000	3858.00000
44.15000	3870.00000
44.16000	3925.00000
44.17000	3905.00000
44.18000	3890.00000
44.19000	3891.00000
44.20000	3848.00000
44.21000	3865.00000
44.22000	3850.00000
44.23000	3861.00000
44.24000	3813.00000
44.25000	3792.00000
44.26000	3763.00000
44.27000	3712.00000
44.28000	3755.00000
44.29000	3719.00000
44.30000	3688.00000
44.31000	3668.00000
44.32000	3670.00000
44.33000	3627.00000
44.34000	3666.00000
44.35000	3660.00000
44.36000	3630.00000
44.37000	3663.00000
44.38000	3634.00000
44.39000	3634.00000
44.40000	3682.00000
44.41000	3683.00000
44.42000	3707.00000
44.43000	3744.00000
44.44000	3746.00000
44.45000	3736.00000
44.46000	3803.00000
44.47000	3839.00000
44.48000	3880.00000
44.49000	3902.00000
44.50000	3898.00000
44.51000	3876.00000
44.52000	3935.00000
44.53000	3947.00000
44.54000	3885.00000
44.55000	3864.00000
44.56000	3786.00000
44.57000	3731.00000
44.58000	3705.00000
44.59000	3699.00000
44.60000	3689.00000
44.61000	3675.00000
44.62000	3648.00000
44.63000	3572.00000
44.64000	3593.00000
44.65000	3582.00000
44.66000	3528.00000
44.67000	3541.00000
44.68000	3510.00000
44.69000	3509.00000
44.70000	3509.00000
44.71000	3512.00000
44.72000	3499.00000
44.73000	3491.00000
44.74000	3503.00000
44.75000	3461.00000
44.76000	3514.00000
44.77000	3483.00000
44.78000	3484.00000
44.79000	3504.00000
44.80000	3444.00000
44.81000	3444.00000
44.82000	3483.00000
44.83000	3465.00000
44.84000	3494.00000
44.85000	3492.00000
44.86000	3481.00000
44.87000	3467.00000
44.88000	3474.00000
44.89000	3473.00000
44.90000	3458.00000
44.91000	3451.00000
44.92000	3459.00000
44.93000	3442.00000
44.94000	3450.00000
44.95000	3485.00000
44.96000	3458.00000
44.97000	3476.00000
44.98000	3475.00000
44.99000	3489.00000
45.00000	3479.00000
45.01000	3494.00000
45.02000	3489.00000
45.03000	3524.00000
45.04000	3492.00000
45.05000	3470.00000
45.06000	3529.00000
45.07000	3547.00000
45.08000	3546.00000
45.09000	3577.00000
45.10000	3553.00000
45.11000	3560.00000
45.12000	3572.00000
45.13000	3552.00000
45.14000	3571.00000
45.15000	3594.00000
45.16000	3557.00000
45.17000	3550.00000
45.18000	3584.00000
45.19000	3569.00000
45.20000	3529.00000
45.21000	3574.00000
45.22000	3534.00000
45.23000	3542.00000
45.24000	3575.00000
45.25000	3558.00000
45.26000	3587.00000
45.27000	3570.00000
45.28000	3553.00000
45.29000	3529.00000
45.30000	3559.00000
45.31000	3557.00000
45.32000	3545.00000
45.33000	3570.00000
45.34000	3593.00000
45.35000	3579.00000
45.36000	3619.00000
45.37000	3623.00000
45.38000	3632.00000
45.39000	3633.00000
45.40000	3619.00000
45.41000	3610.00000
45.42000	3653.00000
45.43000	3645.00000
45.44000	3637.00000
45.45000	3649.00000
45.46000	3584.00000
45.47000	3635.00000
45.48000	3641.00000
45.49000	3650.00000
45.50000	3642.00000
45.51000	3684.00000
45.52000	3642.00000
45.53000	3622.00000
45.54000	3632.00000
45.55000	3635.00000
45.56000	3603.00000
45.57000	3594.00000
45.58000	3611.00000
45.59000	3538.00000
45.60000	3581.00000
45.61000	3576.00000
45.62000	3574.00000
45.63000	3598.00000
45.64000	3585.00000
45.65000	3599.00000
45.66000	3586.00000
45.67000	3588.00000
45.68000	3582.00000
45.69000	3605.00000
45.70000	3642.00000
45.71000	3630.00000
45.72000	3612.00000
45.73000	3613.00000
45.74000	3615.00000
45.75000	3621.00000
45.76000	3589.00000
45.77000	3575.00000
45.78000	3594.00000
45.79000	3574.00000
45.80000	3567.00000
45.81000	3554.00000
45.82000	3515.00000
45.83000	3482.00000
45.84000	3510.00000
45.85000	3494.00000
45.86000	3498.00000
45.87000	3515.00000
45.88000	3482.00000
45.89000	3483.00000
45.90000	3479.00000
45.91000	3483.00000
45.92000	3461.00000
45.93000	3459.00000
45.94000	3442.00000
45.95000	3419.00000
45.96000	3450.00000
45.97000	3474.00000
45.98000	3488.00000
45.99000	3492.00000
46.00000	3508.00000
46.01000	3466.00000
46.02000	3512.00000
46.03000	3535.00000
46.04000	3525.00000
46.05000	3566.00000
46.06000	3581.00000
46.07000	3562.00000
46.08000	3601.00000
46.09000	3611.00000
46.10000	3630.00000
46.11000	3655.00000
46.12000	3642.00000
46.13000	3607.00000
46.14000	3617.00000
46.15000	3624.00000
46.16000	3625.00000
46.17000	3630.00000
46.18000	3627.00000
46.19000	3614.00000
46.20000	3635.00000
46.21000	3638.00000
46.22000	3655.00000
46.23000	3697.00000
46.24000	3679.00000
46.25000	3680.00000
46.26000	3691.00000
46.27000	3719.00000
46.28000	3691.00000
46.29000	3771.00000
46.30000	3724.00000
46.31000	3679.00000
46.32000	3690.00000
46.33000	3693.00000
46.34000	3647.00000
46.35000	3674.00000
46.36000	3609.00000
46.37000	3573.00000
46.38000	3554.00000
46.39000	3577.00000
46.40000	3545.00000
46.41000	3543.00000
46.42000	3531.00000
46.43000	3528.00000
46.44000	3503.00000
46.45000	3517.00000
46.46000	3506.00000
46.47000	3531.00000
46.48000	3508.00000
46.49000	3525.00000
46.50000	3503.00000
46.51000	3518.00000
46.52000	3522.00000
46.53000	3533.00000
46.54000	3526.00000
46.55000	3539.00000
46.56000	3526.00000
46.57000	3527.00000
46.58000	3538.00000
46.59000	3566.00000
46.60000	3541.00000
46.61000	3519.00000
46.62000	3538.00000
46.63000	3519.00000
46.64000	3566.00000
46.65000	3591.00000
46.66000	3555.00000
46.67000	3555.00000
46.68000	3575.00000
46.69000	3592.00000
46.70000	3578.00000
46.71000	3608.00000
46.72000	3563.00000
46.73000	3573.00000
46.74000	3556.00000
46.75000	3586.00000
46.76000	3565.00000
46.77000	3600.00000
46.78000	3578.00000
46.79000	3575.00000
46.80000	3571.00000
46.81000	3638.00000
46.82000	3639.00000
46.83000	3660.00000
46.84000	3628.00000
46.85000	3637.00000
46.86000	3678.00000
46.87000	3691.00000
46.88000	3666.00000
46.89000	3694.00000
46.90000	3686.00000
46.91000	3657.00000
46.92000	3683.00000
46.93000	3674.00000
46.94000	3669.00000
46.95000	3690.00000
46.96000	3627.00000
46.97000	3603.00000
46.98000	3619.00000
46.99000	3585.00000
47.00000	3558.00000
47.01000	3583.00000
47.02000	3577.00000
47.03000	3542.00000
47.04000	3568.00000
47.05000	3527.00000
47.06000	3547.00000
47.07000	3551.00000
47.08000	3521.00000
47.09000	3505.00000
47.10000	3506.00000
47.11000	3510.00000
47.12000	3502.00000
47.13000	3554.00000
47.14000	3501.00000
47.15000	3504.00000
47.16000	3513.00000
47.17000	3515.00000
47.18000	3509.00000
47.19000	3532.00000
47.20000	3536.00000
47.21000	3521.00000
47.22000	3505.00000
47.23000	3509.00000
47.24000	3516.00000
47.25000	3531.00000
47.26000	3535.00000
47.27000	3512.00000
47.28000	3507.00000
47.29000	3520.00000
47.30000	3538.00000
47.31000	3517.00000
47.32000	3514.00000
47.33000	3501.00000
47.34000	3495.00000
47.35000	3455.00000
47.36000	3471.00000
47.37000	3465.00000
47.38000	3425.00000
47.39000	3402.00000
47.40000	3437.00000
47.41000	3425.00000
47.42000	3408.00000
47.43000	3406.00000
47.44000	3411.00000
47.45000	3400.00000
47.46000	3410.00000
47.47000	3403.00000
47.48000	3378.00000
47.49000	3408.00000
47.50000	3384.00000
47.51000	3359.00000
47.52000	3373.00000
47.53000	3383.00000
47.54000	3364.00000
47.55000	3421.00000
47.56000	3373.00000
47.57000	3387.00000
47.58000	3413.00000
47.59000	3414.00000
47.60000	3383.00000
47.61000	3413.00000
47.62000	3423.00000
47.63000	3418.00000
47.64000	3432.00000
47.65000	3476.00000
47.66000	3464.00000
47.67000	3498.00000
47.68000	3496.00000
47.69000	3479.00000
47.70000	3493.00000
47.71000	3492.00000
47.72000	3492.00000
47.73000	3519.00000
47.74000	3468.00000
47.75000	3461.00000
47.76000	3464.00000
47.77000	3459.00000
47.78000	3453.00000
47.79000	3481.00000
47.80000	3458.00000
47.81000	3446.00000
47.82000	3424.00000
47.83000	3432.00000
47.84000	3429.00000
47.85000	3399.00000
47.86000	3420.00000
47.87000	3360.00000
47.88000	3407.00000
47.89000	3384.00000
47.90000	3395.00000
47.91000	3376.00000
47.92000	3407.00000
47.93000	3399.00000
47.94000	3391.00000
47.95000	3391.00000
47.96000	3380.00000
47.97000	3385.00000
47.98000	3358.00000
47.99000	3352.00000
48.00000	3343.00000
48.01000	3398.00000
48.02000	3353.00000
48.03000	3389.00000
48.04000	3370.00000
48.05000	3354.00000
48.06000	3360.00000
48.07000	3389.00000
48.08000	3374.00000
48.09000	3396.00000
48.10000	3366.00000
48.11000	3374.00000
48.12000	3359.00000
48.13000	3408.00000
48.14000	3384.00000
48.15000	3425.00000
