0.34640	6109.00000
0.34680	6226.00000
0.34710	6211.00000
0.34750	6201.00000
0.34780	6198.00000
0.34820	6194.00000
0.34850	6036.00000
0.34890	6059.00000
0.34920	6265.00000
0.34960	6263.00000
0.34990	6330.00000
0.35030	6224.00000
0.35060	6188.00000
0.35100	6129.00000
0.35130	6095.00000
0.35170	6075.00000
0.35200	6098.00000
0.35240	6221.00000
0.35270	6124.00000
0.35310	6253.00000
0.35340	6183.00000
0.35380	6081.00000
0.35410	6044.00000
0.35450	6115.00000
0.35480	6091.00000
0.35510	6223.00000
0.35550	6239.00000
0.35580	6178.00000
0.35620	6239.00000
0.35650	6098.00000
0.35690	6076.00000
0.35720	6131.00000
0.35760	6212.00000
0.35790	6071.00000
0.35830	6099.00000
0.35860	6046.00000
0.35900	6222.00000
0.35930	6179.00000
0.35970	6091.00000
0.36000	6128.00000
0.36040	6213.00000
0.36070	6206.00000
0.36110	6063.00000
0.36140	6071.00000
0.36180	6039.00000
0.36210	6097.00000
0.36250	6001.00000
0.36280	5978.00000
0.36320	5991.00000
0.36350	5974.00000
0.36390	6156.00000
0.36420	6002.00000
0.36460	6067.00000
0.36490	5997.00000
0.36530	6075.00000
0.36560	6009.00000
0.36600	6064.00000
0.36630	6131.00000
0.36670	6187.00000
0.36700	6095.00000
0.36740	6103.00000
0.36770	6099.00000
0.36810	5936.00000
0.36840	6069.00000
0.36880	5960.00000
0.36910	5953.00000
0.36950	6080.00000
0.36980	5969.00000
0.37020	6112.00000
0.37050	6107.00000
0.37090	6018.00000
0.37120	6039.00000
0.37160	6061.00000
0.37190	6045.00000
0.37230	6054.00000
0.37260	5923.00000
0.37300	6059.00000
0.37330	6058.00000
0.37370	6101.00000
0.37400	6061.00000
0.37430	6032.00000
0.37470	6029.00000
0.37500	6005.00000
0.37540	6098.00000
0.37570	6116.00000
0.37610	6130.00000
0.37640	6057.00000
0.37680	6070.00000
0.37710	6100.00000
0.37750	6036.00000
0.37780	5929.00000
0.37820	5868.00000
0.37850	5840.00000
0.37890	6041.00000
0.37920	6048.00000
0.37960	5864.00000
0.37990	5980.00000
0.38030	5921.00000
0.38060	5886.00000
0.38100	6008.00000
0.38130	5886.00000
0.38170	5925.00000
0.38200	5916.00000
0.38240	5950.00000
0.38270	5933.00000
0.38310	5856.00000
0.38340	5920.00000
0.38380	5919.00000
0.38410	5925.00000
0.38450	5973.00000
0.38480	6088.00000
0.38520	5923.00000
0.38550	5937.00000
0.38590	5869.00000
0.38620	5881.00000
0.38660	6002.00000
0.38690	5925.00000
0.38730	5972.00000
0.38760	5880.00000
0.38800	5856.00000
0.38830	5961.00000
0.38870	5972.00000
0.38900	5872.00000
0.38940	5920.00000
0.38970	5987.00000
0.39010	5875.00000
0.39040	5838.00000
0.39080	5739.00000
0.39110	5878.00000
0.39150	5926.00000
0.39180	5834.00000
0.39220	5764.00000
0.39250	5819.00000
0.39280	5783.00000
0.39320	5823.00000
0.39350	5782.00000
0.39390	5854.00000
0.39420	5666.00000
0.39460	5885.00000
0.39490	5866.00000
0.39530	5852.00000
0.39560	5804.00000
0.39600	5752.00000
0.39630	5847.00000
0.39670	5810.00000
0.39700	5734.00000
0.39740	5805.00000
0.39770	5755.00000
0.39810	5800.00000
0.39840	5690.00000
0.39880	5718.00000
0.39910	5848.00000
0.39950	5930.00000
0.39980	5821.00000
0.40020	5975.00000
0.40050	5848.00000
0.40090	5740.00000
0.40120	5684.00000
0.40160	5731.00000
0.40190	5768.00000
0.40230	5764.00000
0.40260	5773.00000
0.40300	5752.00000
0.40330	5782.00000
0.40370	5654.00000
0.40400	5689.00000
0.40440	5762.00000
0.40470	5775.00000
0.40510	5739.00000
0.40540	5759.00000
0.40580	5762.00000
0.40610	5733.00000
0.40650	5811.00000
0.40680	5665.00000
0.40720	5738.00000
0.40750	5681.00000
0.40790	5670.00000
0.40820	5804.00000
0.40860	5816.00000
0.40890	5795.00000
0.40930	5687.00000
0.40960	5829.00000
0.41000	5696.00000
0.41030	5645.00000
0.41070	5700.00000
0.41100	5706.00000
0.41130	5743.00000
0.41170	5652.00000
0.41200	5710.00000
0.41240	5583.00000
0.41270	5682.00000
0.41310	5742.00000
0.41340	5782.00000
0.41380	5602.00000
0.41410	5605.00000
0.41450	5704.00000
0.41480	5687.00000
0.41520	5727.00000
0.41550	5642.00000
0.41590	5653.00000
0.41620	5573.00000
0.41660	5775.00000
0.41690	5587.00000
0.41730	5593.00000
0.41760	5666.00000
0.41800	5601.00000
0.41830	5538.00000
0.41870	5590.00000
0.41900	5603.00000
0.41940	5726.00000
0.41970	5710.00000
0.42010	5793.00000
0.42040	5783.00000
0.42080	5867.00000
0.42110	5995.00000
0.42150	5832.00000
0.42180	5896.00000
0.42220	5980.00000
0.42250	6015.00000
0.42290	5947.00000
0.42320	6090.00000
0.42360	6123.00000
0.42390	5849.00000
0.42430	5861.00000
0.42460	5885.00000
0.42500	5859.00000
0.42530	5768.00000
0.42570	5715.00000
0.42600	5698.00000
0.42640	5650.00000
0.42670	5729.00000
0.42710	5759.00000
0.42740	5647.00000
0.42780	5718.00000
0.42810	5749.00000
0.42850	5581.00000
0.42880	5653.00000
0.42920	5489.00000
0.42950	5650.00000
0.42980	5614.00000
0.43020	5569.00000
0.43050	5490.00000
0.43090	5599.00000
0.43120	5579.00000
0.43160	5630.00000
0.43190	5720.00000
0.43230	5650.00000
0.43260	5477.00000
0.43300	5583.00000
0.43330	5505.00000
0.43370	5598.00000
0.43400	5573.00000
0.43440	5612.00000
0.43470	5641.00000
0.43510	5535.00000
0.43540	5602.00000
0.43580	5504.00000
0.43610	5559.00000
0.43650	5553.00000
0.43680	5486.00000
0.43720	5400.00000
0.43750	5517.00000
0.43790	5498.00000
0.43820	5428.00000
0.43860	5414.00000
0.43890	5478.00000
0.43930	5523.00000
0.43960	5519.00000
0.44000	5510.00000
0.44030	5453.00000
0.44070	5529.00000
0.44100	5574.00000
0.44140	5484.00000
0.44170	5517.00000
0.44210	5472.00000
0.44240	5523.00000
0.44280	5606.00000
0.44310	5370.00000
0.44350	5521.00000
0.44380	5470.00000
0.44420	5449.00000
0.44450	5483.00000
0.44490	5499.00000
0.44520	5611.00000
0.44560	5562.00000
0.44590	5517.00000
0.44630	5524.00000
0.44660	5558.00000
0.44700	5411.00000
0.44730	5492.00000
0.44770	5483.00000
0.44800	5372.00000
0.44840	5367.00000
0.44870	5411.00000
0.44900	5540.00000
0.44940	5474.00000
0.44970	5473.00000
0.45010	5442.00000
0.45040	5605.00000
0.45080	5444.00000
0.45110	5455.00000
0.45150	5599.00000
0.45180	5542.00000
0.45220	5479.00000
0.45250	5398.00000
0.45290	5459.00000
0.45320	5479.00000
0.45360	5493.00000
0.45390	5589.00000
0.45430	5474.00000
0.45460	5476.00000
0.45500	5476.00000
0.45530	5539.00000
0.45570	5480.00000
0.45600	5462.00000
0.45640	5513.00000
0.45670	5470.00000
0.45710	5403.00000
0.45740	5293.00000
0.45780	5374.00000
0.45810	5334.00000
0.45850	5360.00000
0.45880	5396.00000
0.45920	5484.00000
0.45950	5472.00000
0.45990	5349.00000
0.46020	5383.00000
0.46060	5428.00000
0.46090	5485.00000
0.46130	5489.00000
0.46160	5432.00000
0.46200	5464.00000
0.46230	5385.00000
0.46270	5480.00000
0.46300	5430.00000
0.46340	5425.00000
0.46370	5441.00000
0.46410	5407.00000
0.46440	5483.00000
0.46480	5433.00000
0.46510	5372.00000
0.46550	5522.00000
0.46580	5550.00000
0.46620	5498.00000
0.46650	5664.00000
0.46690	5516.00000
0.46720	5557.00000
0.46750	5726.00000
0.46790	5831.00000
0.46820	5808.00000
0.46860	5980.00000
0.46890	6057.00000
0.46930	6077.00000
0.46960	6309.00000
0.47000	6512.00000
0.47030	6818.00000
0.47070	7076.00000
0.47100	6987.00000
0.47140	6866.00000
0.47170	6975.00000
0.47210	6647.00000
0.47240	6278.00000
0.47280	6031.00000
0.47310	5850.00000
0.47350	5727.00000
0.47380	5622.00000
0.47420	5487.00000
0.47450	5527.00000
0.47490	5485.00000
0.47520	5361.00000
0.47560	5418.00000
0.47590	5488.00000
0.47630	5352.00000
0.47660	5240.00000
0.47700	5363.00000
0.47730	5402.00000
0.47770	5325.00000
0.47800	5306.00000
0.47840	5235.00000
0.47870	5260.00000
0.47910	5311.00000
0.47940	5338.00000
0.47980	5354.00000
0.48010	5334.00000
0.48050	5449.00000
0.48080	5386.00000
0.48120	5335.00000
0.48150	5404.00000
0.48190	5321.00000
0.48220	5413.00000
0.48260	5353.00000
0.48290	5366.00000
0.48330	5422.00000
0.48360	5275.00000
0.48400	5404.00000
0.48430	5331.00000
0.48470	5240.00000
0.48500	5271.00000
0.48540	5411.00000
0.48570	5303.00000
0.48600	5287.00000
0.48640	5249.00000
0.48670	5345.00000
0.48710	5285.00000
0.48740	5222.00000
0.48780	5286.00000
0.48810	5281.00000
0.48850	5296.00000
0.48880	5307.00000
0.48920	5397.00000
0.48950	5410.00000
0.48990	5448.00000
0.49020	5336.00000
0.49060	5227.00000
0.49090	5254.00000
0.49130	5340.00000
0.49160	5275.00000
0.49200	5335.00000
0.49230	5395.00000
0.49270	5316.00000
0.49300	5290.00000
0.49340	5337.00000
0.49370	5418.00000
0.49410	5358.00000
0.49440	5374.00000
0.49480	5203.00000
0.49510	5341.00000
0.49550	5368.00000
0.49580	5295.00000
0.49620	5345.00000
0.49650	5254.00000
0.49690	5279.00000
0.49720	5372.00000
0.49760	5275.00000
0.49790	5229.00000
0.49830	5226.00000
0.49860	5234.00000
0.49900	5165.00000
0.49930	5169.00000
0.49970	5300.00000
0.50000	5381.00000
0.50040	5363.00000
0.50070	5239.00000
0.50110	5260.00000
0.50140	5380.00000
0.50180	5267.00000
0.50210	5191.00000
0.50250	5382.00000
0.50280	5297.00000
0.50320	5223.00000
0.50350	5202.00000
0.50390	5194.00000
0.50420	5379.00000
0.50450	5299.00000
0.50490	5203.00000
0.50520	5236.00000
0.50560	5313.00000
0.50590	5250.00000
0.50630	5204.00000
0.50660	5275.00000
0.50700	5300.00000
0.50730	5354.00000
0.50770	5252.00000
0.50800	5130.00000
0.50840	5216.00000
0.50870	5209.00000
0.50910	5189.00000
0.50940	5278.00000
0.50980	5234.00000
0.51010	5181.00000
0.51050	5230.00000
0.51080	5130.00000
0.51120	5234.00000
0.51150	5300.00000
0.51190	5322.00000
0.51220	5305.00000
0.51260	5281.00000
0.51290	5355.00000
0.51330	5197.00000
0.51360	5226.00000
0.51400	5241.00000
0.51430	5148.00000
0.51470	5127.00000
0.51500	5204.00000
0.51540	5333.00000
0.51570	5214.00000
0.51610	5358.00000
0.51640	5284.00000
0.51680	5267.00000
0.51710	5249.00000
0.51750	5136.00000
0.51780	5270.00000
0.51820	5249.00000
0.51850	5243.00000
0.51890	5317.00000
0.51920	5233.00000
0.51960	5307.00000
0.51990	5289.00000
0.52030	5266.00000
0.52060	5171.00000
0.52100	5229.00000
0.52130	5226.00000
0.52170	5211.00000
0.52200	5249.00000
0.52240	5295.00000
0.52270	5230.00000
0.52310	5238.00000
0.52340	5223.00000
0.52370	5237.00000
0.52410	5202.00000
0.52440	5153.00000
0.52480	5059.00000
0.52510	5190.00000
0.52550	5098.00000
0.52580	5301.00000
0.52620	5304.00000
0.52650	5245.00000
0.52690	5141.00000
0.52720	5130.00000
0.52760	5124.00000
0.52790	5161.00000
0.52830	5126.00000
0.52860	5158.00000
0.52900	5186.00000
0.52930	5180.00000
0.52970	5169.00000
0.53000	5218.00000
0.53040	5145.00000
0.53070	5147.00000
0.53110	5140.00000
0.53140	5196.00000
0.53180	5182.00000
0.53210	5111.00000
0.53250	5144.00000
0.53280	5206.00000
0.53320	5224.00000
0.53350	5118.00000
0.53390	5138.00000
0.53420	5078.00000
0.53460	5186.00000
0.53490	5282.00000
0.53530	5169.00000
0.53560	5083.00000
0.53600	5177.00000
0.53630	5108.00000
0.53670	5096.00000
0.53700	5060.00000
0.53740	5127.00000
0.53770	5233.00000
0.53810	5223.00000
0.53840	5125.00000
0.53880	5121.00000
0.53910	5164.00000
0.53950	5219.00000
0.53980	5181.00000
0.54020	5169.00000
0.54050	5109.00000
0.54090	5194.00000
0.54120	5171.00000
0.54160	5022.00000
0.54190	5086.00000
0.54220	5142.00000
0.54260	5110.00000
0.54290	5160.00000
0.54330	5110.00000
0.54360	5139.00000
0.54400	5117.00000
0.54430	5174.00000
0.54470	5243.00000
0.54500	5178.00000
0.54540	5135.00000
0.54570	5155.00000
0.54610	5176.00000
0.54640	5092.00000
0.54680	5122.00000
0.54710	5185.00000
0.54750	5204.00000
0.54780	5283.00000
0.54820	5169.00000
0.54850	5162.00000
0.54890	5180.00000
0.54920	5128.00000
0.54960	5184.00000
0.54990	5128.00000
0.55030	5159.00000
0.55060	5125.00000
0.55100	5262.00000
0.55130	5213.00000
0.55170	5143.00000
0.55200	5099.00000
0.55240	5167.00000
0.55270	5220.00000
0.55310	5138.00000
0.55340	5177.00000
0.55380	5240.00000
0.55410	5285.00000
0.55450	5174.00000
0.55480	5136.00000
0.55520	5181.00000
0.55550	5088.00000
0.55590	5117.00000
0.55620	5170.00000
0.55660	5239.00000
0.55690	5258.00000
0.55730	5160.00000
0.55760	5149.00000
0.55800	5113.00000
0.55830	4996.00000
0.55870	5054.00000
0.55900	5131.00000
0.55940	5204.00000
0.55970	5086.00000
0.56010	5151.00000
0.56040	5126.00000
0.56070	5255.00000
0.56110	5081.00000
0.56140	5103.00000
0.56180	5278.00000
0.56210	5207.00000
0.56250	5210.00000
0.56280	5169.00000
0.56320	5138.00000
0.56350	5118.00000
0.56390	5129.00000
0.56420	5181.00000
0.56460	5184.00000
0.56490	5112.00000
0.56530	5193.00000
0.56560	5170.00000
0.56600	5182.00000
0.56630	5176.00000
0.56670	5210.00000
0.56700	5081.00000
0.56740	5232.00000
0.56770	5215.00000
0.56810	5274.00000
0.56840	5209.00000
0.56880	5221.00000
0.56910	5308.00000
0.56950	5243.00000
0.56980	5270.00000
0.57020	5304.00000
0.57050	5222.00000
0.57090	5255.00000
0.57120	5340.00000
0.57160	5488.00000
0.57190	5394.00000
0.57230	5514.00000
0.57260	5590.00000
0.57300	5594.00000
0.57330	5725.00000
0.57370	5835.00000
0.57400	5878.00000
0.57440	6051.00000
0.57470	6372.00000
0.57510	6539.00000
0.57540	7013.00000
0.57580	7438.00000
0.57610	7850.00000
0.57650	8325.00000
0.57680	8947.00000
0.57720	9206.00000
0.57750	9397.00000
0.57790	9470.00000
0.57820	9108.00000
0.57860	8627.00000
0.57890	7897.00000
0.57920	7299.00000
0.57960	6871.00000
0.57990	6611.00000
0.58030	6226.00000
0.58060	6089.00000
0.58100	5878.00000
0.58130	5560.00000
0.58170	5628.00000
0.58200	5610.00000
0.58240	5524.00000
0.58270	5650.00000
0.58310	5622.00000
0.58340	5592.00000
0.58380	5584.00000
0.58410	5589.00000
0.58450	5595.00000
0.58480	5664.00000
0.58520	5704.00000
0.58550	5720.00000
0.58590	5882.00000
0.58620	5901.00000
0.58660	6008.00000
0.58690	6233.00000
0.58730	6613.00000
0.58760	6751.00000
0.58800	7017.00000
0.58830	7625.00000
0.58870	8320.00000
0.58900	8909.00000
0.58940	10094.00000
0.58970	11627.00000
0.59010	13156.00000
0.59040	14677.00000
0.59080	16763.00000
0.59110	19259.00000
0.59150	21236.00000
0.59180	23479.00000
0.59220	24306.00000
0.59250	24427.00000
0.59290	23182.00000
0.59320	20306.00000
0.59360	17364.00000
0.59390	14440.00000
0.59430	11939.00000
0.59460	10002.00000
0.59500	8708.00000
0.59530	7809.00000
0.59570	7248.00000
0.59600	6947.00000
0.59640	6718.00000
0.59670	6602.00000
0.59710	6657.00000
0.59740	6763.00000
0.59780	6743.00000
0.59810	6933.00000
0.59840	7276.00000
0.59880	7663.00000
0.59910	8308.00000
0.59950	8645.00000
0.59980	9075.00000
0.60020	9359.00000
0.60050	9474.00000
0.60090	9579.00000
0.60120	9368.00000
0.60160	9021.00000
0.60190	8231.00000
0.60230	7570.00000
0.60260	6941.00000
0.60300	6511.00000
0.60330	6196.00000
0.60370	5823.00000
0.60400	5640.00000
0.60440	5597.00000
0.60470	5546.00000
0.60510	5511.00000
0.60540	5404.00000
0.60580	5445.00000
0.60610	5344.00000
0.60650	5435.00000
0.60680	5277.00000
0.60720	5248.00000
0.60750	5205.00000
0.60790	5253.00000
0.60820	5329.00000
0.60860	5205.00000
0.60890	5200.00000
0.60930	5322.00000
0.60960	5369.00000
0.61000	5310.00000
0.61030	5182.00000
0.61070	5217.00000
0.61100	5231.00000
0.61140	5403.00000
0.61170	5541.00000
0.61210	5537.00000
0.61240	5600.00000
0.61280	5796.00000
0.61310	5856.00000
0.61350	5847.00000
0.61380	5844.00000
0.61420	5685.00000
0.61450	5570.00000
0.61490	5475.00000
0.61520	5487.00000
0.61560	5369.00000
0.61590	5276.00000
0.61630	5196.00000
0.61660	5140.00000
0.61690	5120.00000
0.61730	5076.00000
0.61760	5090.00000
0.61800	5088.00000
0.61830	5019.00000
0.61870	5160.00000
0.61900	5044.00000
0.61940	5047.00000
0.61970	5026.00000
0.62010	4966.00000
0.62040	4945.00000
0.62080	5049.00000
0.62110	4967.00000
0.62150	4960.00000
0.62180	5003.00000
0.62220	5025.00000
0.62250	5061.00000
0.62290	5082.00000
0.62320	5034.00000
0.62360	5008.00000
0.62390	5025.00000
0.62430	4942.00000
0.62460	5014.00000
0.62500	5100.00000
0.62530	4997.00000
0.62570	5044.00000
0.62600	5046.00000
0.62640	5038.00000
0.62670	4969.00000
0.62710	4985.00000
0.62740	5044.00000
0.62780	5061.00000
0.62810	4949.00000
0.62850	4997.00000
0.62880	4972.00000
0.62920	4976.00000
0.62950	5028.00000
0.62990	5058.00000
0.63020	4987.00000
0.63060	5102.00000
0.63090	5099.00000
0.63130	5063.00000
0.63160	5103.00000
0.63200	5253.00000
0.63230	5281.00000
0.63270	5148.00000
0.63300	5194.00000
0.63340	5252.00000
0.63370	5180.00000
0.63410	5142.00000
0.63440	5101.00000
0.63480	5100.00000
0.63510	5148.00000
0.63540	5127.00000
0.63580	5137.00000
0.63610	5060.00000
0.63650	5041.00000
0.63680	5085.00000
0.63720	5067.00000
0.63750	5057.00000
0.63790	4991.00000
0.63820	5022.00000
0.63860	4963.00000
0.63890	4911.00000
0.63930	4944.00000
0.63960	4913.00000
0.64000	4934.00000
0.64030	4940.00000
0.64070	4882.00000
0.64100	4870.00000
0.64140	5039.00000
0.64170	4873.00000
0.64210	4919.00000
0.64240	4891.00000
0.64280	4880.00000
0.64310	4882.00000
0.64350	4907.00000
0.64380	4953.00000
0.64420	4938.00000
0.64450	4861.00000
0.64490	4833.00000
0.64520	4973.00000
0.64560	4933.00000
0.64590	4991.00000
0.64630	4955.00000
0.64660	4887.00000
0.64700	4840.00000
0.64730	4977.00000
0.64770	4902.00000
0.64800	4842.00000
0.64840	4956.00000
0.64870	5004.00000
0.64910	5074.00000
0.64940	4936.00000
0.64980	4962.00000
0.65010	4963.00000
0.65050	4991.00000
0.65080	4941.00000
0.65120	4899.00000
0.65150	4899.00000
0.65190	5002.00000
0.65220	4973.00000
0.65260	4952.00000
0.65290	4978.00000
0.65330	4889.00000
0.65360	4910.00000
0.65400	4862.00000
0.65430	4869.00000
0.65460	4865.00000
0.65500	4878.00000
0.65530	4909.00000
0.65570	4869.00000
0.65600	4934.00000
0.65640	4934.00000
0.65670	4929.00000
0.65710	4900.00000
0.65740	4936.00000
0.65780	4884.00000
0.65810	4888.00000
0.65850	4961.00000
0.65880	4909.00000
0.65920	4929.00000
0.65950	4940.00000
0.65990	4822.00000
0.66020	5005.00000
0.66060	4965.00000
0.66090	4957.00000
0.66130	4889.00000
0.66160	4879.00000
0.66200	4947.00000
0.66230	4998.00000
0.66270	4953.00000
0.66300	4982.00000
0.66340	5073.00000
0.66370	4951.00000
0.66410	4985.00000
0.66440	4998.00000
0.66480	4995.00000
0.66510	4981.00000
0.66550	4939.00000
0.66580	5072.00000
0.66620	4995.00000
0.66650	4906.00000
0.66690	4958.00000
0.66720	4938.00000
0.66760	4925.00000
0.66790	4901.00000
0.66830	4867.00000
0.66860	4846.00000
0.66900	4820.00000
0.66930	4908.00000
0.66970	4857.00000
0.67000	4856.00000
0.67040	4875.00000
0.67070	4882.00000
0.67110	4923.00000
0.67140	4884.00000
0.67180	4830.00000
0.67210	4832.00000
0.67250	4856.00000
0.67280	4905.00000
0.67310	4958.00000
0.67350	4867.00000
0.67380	4941.00000
0.67420	4882.00000
0.67450	4892.00000
0.67490	4867.00000
0.67520	4912.00000
0.67560	4862.00000
0.67590	4909.00000
0.67630	4815.00000
0.67660	4842.00000
0.67700	4871.00000
0.67730	4774.00000
0.67770	4885.00000
0.67800	4874.00000
0.67840	4934.00000
0.67870	4895.00000
0.67910	4917.00000
0.67940	5003.00000
0.67980	5037.00000
0.68010	4928.00000
0.68050	4914.00000
0.68080	5020.00000
0.68120	4903.00000
0.68150	4953.00000
0.68190	5015.00000
0.68220	4942.00000
0.68260	4887.00000
0.68290	4797.00000
0.68330	4990.00000
0.68360	5010.00000
0.68400	4811.00000
0.68430	4921.00000
0.68470	4860.00000
0.68500	4862.00000
0.68540	4830.00000
0.68570	4835.00000
0.68610	4881.00000
0.68640	4831.00000
0.68680	4853.00000
0.68710	4989.00000
0.68750	4904.00000
0.68780	4803.00000
0.68820	4900.00000
0.68850	4916.00000
0.68890	4940.00000
0.68920	4844.00000
0.68960	4917.00000
0.68990	5061.00000
0.69030	4925.00000
0.69060	4883.00000
0.69100	4919.00000
0.69130	4928.00000
0.69160	4950.00000
0.69200	4857.00000
0.69230	4847.00000
0.69270	4849.00000
0.69300	4925.00000
0.69340	5044.00000
0.69370	5138.00000
0.69410	5040.00000
0.69440	5137.00000
0.69480	5076.00000
0.69510	5133.00000
0.69550	5161.00000
0.69580	5332.00000
0.69620	5507.00000
0.69650	5608.00000
0.69690	5485.00000
0.69720	5472.00000
0.69760	5480.00000
0.69790	5318.00000
0.69830	5320.00000
0.69860	5156.00000
0.69900	5080.00000
0.69930	5090.00000
0.69970	4975.00000
0.70000	4940.00000
0.70040	4958.00000
0.70070	4895.00000
0.70110	4825.00000
0.70140	4878.00000
0.70180	4913.00000
0.70210	4961.00000
0.70250	4852.00000
0.70280	4889.00000
0.70320	4952.00000
0.70350	4854.00000
0.70390	4796.00000
0.70420	4818.00000
0.70460	4883.00000
0.70490	4847.00000
0.70530	4929.00000
0.70560	4914.00000
0.70600	4895.00000
0.70630	4925.00000
0.70670	4859.00000
0.70700	4844.00000
0.70740	4802.00000
0.70770	4969.00000
0.70810	4874.00000
0.70840	4815.00000
0.70880	4863.00000
0.70910	4864.00000
0.70950	4847.00000
0.70980	4778.00000
0.71010	4914.00000
0.71050	4837.00000
0.71080	4834.00000
0.71120	4787.00000
0.71150	4832.00000
0.71190	4889.00000
0.71220	4919.00000
0.71260	4919.00000
0.71290	4853.00000
0.71330	4904.00000
0.71360	4836.00000
0.71400	4814.00000
0.71430	5028.00000
0.71470	4907.00000
0.71500	4921.00000
0.71540	4960.00000
0.71570	4883.00000
0.71610	4929.00000
0.71640	4919.00000
0.71680	4885.00000
0.71710	4830.00000
0.71750	4862.00000
0.71780	4875.00000
0.71820	4904.00000
0.71850	4901.00000
0.71890	4956.00000
0.71920	4909.00000
0.71960	4898.00000
0.71990	4836.00000
0.72030	4919.00000
0.72060	4907.00000
0.72100	4901.00000
0.72130	4891.00000
0.72170	4821.00000
0.72200	4825.00000
0.72240	4799.00000
0.72270	4930.00000
0.72310	4892.00000
0.72340	4860.00000
0.72380	4831.00000
0.72410	4902.00000
0.72450	4893.00000
0.72480	4943.00000
0.72520	4910.00000
0.72550	4809.00000
0.72590	4839.00000
0.72620	4975.00000
0.72660	4936.00000
0.72690	4945.00000
0.72730	4968.00000
0.72760	4945.00000
0.72800	5053.00000
0.72830	5008.00000
0.72870	5095.00000
0.72900	5137.00000
0.72930	5219.00000
0.72970	5260.00000
0.73000	5327.00000
0.73040	5247.00000
0.73070	5189.00000
0.73110	5333.00000
0.73140	5299.00000
0.73180	5188.00000
0.73210	5240.00000
0.73250	5182.00000
0.73280	5143.00000
0.73320	5176.00000
0.73350	5000.00000
0.73390	4978.00000
0.73420	4962.00000
0.73460	4962.00000
0.73490	4984.00000
0.73530	4916.00000
0.73560	4868.00000
0.73600	4869.00000
0.73630	4870.00000
0.73670	4924.00000
0.73700	4926.00000
0.73740	4854.00000
0.73770	4869.00000
0.73810	4940.00000
0.73840	4842.00000
0.73880	4795.00000
0.73910	4890.00000
0.73950	4909.00000
0.73980	4963.00000
0.74020	4869.00000
0.74050	4873.00000
0.74090	4918.00000
0.74120	4865.00000
0.74160	4905.00000
0.74190	4829.00000
0.74230	4755.00000
0.74260	4817.00000
0.74300	4886.00000
0.74330	4783.00000
0.74370	4832.00000
0.74400	4947.00000
0.74440	4904.00000
0.74470	4781.00000
0.74510	4838.00000
0.74540	4816.00000
0.74580	4848.00000
0.74610	4791.00000
0.74650	4961.00000
0.74680	4925.00000
0.74720	4876.00000
0.74750	4788.00000
0.74780	4869.00000
0.74820	4877.00000
0.74850	4785.00000
0.74890	4880.00000
0.74920	5026.00000
0.74960	4958.00000
0.74990	4917.00000
0.75030	5032.00000
0.75060	5018.00000
0.75100	5087.00000
0.75130	5087.00000
0.75170	5080.00000
0.75200	5105.00000
0.75240	5127.00000
0.75270	5274.00000
0.75310	5398.00000
0.75340	5457.00000
0.75380	5444.00000
0.75410	5492.00000
0.75450	5365.00000
0.75480	5351.00000
0.75520	5296.00000
0.75550	5173.00000
0.75590	5069.00000
0.75620	5046.00000
0.75660	5063.00000
0.75690	4957.00000
0.75730	4893.00000
0.75760	4911.00000
0.75800	4870.00000
0.75830	4880.00000
0.75870	4932.00000
0.75900	4818.00000
0.75940	4737.00000
0.75970	4830.00000
0.76010	4836.00000
0.76040	4851.00000
0.76080	4871.00000
0.76110	4796.00000
0.76150	4880.00000
0.76180	4799.00000
0.76220	4786.00000
0.76250	4836.00000
0.76290	4779.00000
0.76320	4860.00000
0.76360	4878.00000
0.76390	4832.00000
0.76430	4834.00000
0.76460	4812.00000
0.76500	4836.00000
0.76530	4800.00000
0.76570	4859.00000
0.76600	4822.00000
0.76630	4828.00000
0.76670	4784.00000
0.76700	4883.00000
0.76740	4741.00000
0.76770	4819.00000
0.76810	4923.00000
0.76840	4947.00000
0.76880	4811.00000
0.76910	4760.00000
0.76950	4859.00000
0.76980	4885.00000
0.77020	4897.00000
0.77050	4965.00000
0.77090	4880.00000
0.77120	4996.00000
0.77160	4990.00000
0.77190	5008.00000
0.77230	5094.00000
0.77260	5118.00000
0.77300	5089.00000
0.77330	4951.00000
0.77370	4903.00000
0.77400	4958.00000
0.77440	4941.00000
0.77470	4800.00000
0.77510	4865.00000
0.77540	4849.00000
0.77580	4887.00000
0.77610	4849.00000
0.77650	4861.00000
0.77680	4912.00000
0.77720	4791.00000
0.77750	4736.00000
0.77790	4876.00000
0.77820	4841.00000
0.77860	4862.00000
0.77890	4842.00000
0.77930	4826.00000
0.77960	4755.00000
0.78000	4821.00000
0.78030	4787.00000
0.78070	4865.00000
0.78100	4828.00000
0.78140	4861.00000
0.78170	4981.00000
0.78210	4880.00000
0.78240	4885.00000
0.78280	4753.00000
0.78310	4751.00000
0.78350	4759.00000
0.78380	4811.00000
0.78420	4791.00000
0.78450	4849.00000
0.78480	4873.00000
0.78520	4911.00000
0.78550	4949.00000
0.78590	4924.00000
0.78620	4834.00000
0.78660	4858.00000
0.78690	4866.00000
0.78730	4959.00000
0.78760	4874.00000
0.78800	4891.00000
0.78830	4852.00000
0.78870	4907.00000
0.78900	4927.00000
0.78940	4844.00000
0.78970	4783.00000
0.79010	4826.00000
0.79040	4769.00000
0.79080	4813.00000
0.79110	4802.00000
0.79150	4799.00000
0.79180	4888.00000
0.79220	4857.00000
0.79250	4720.00000
0.79290	4719.00000
0.79320	4844.00000
0.79360	4841.00000
0.79390	4792.00000
0.79430	4774.00000
0.79460	4854.00000
0.79500	4891.00000
0.79530	4868.00000
0.79570	4744.00000
0.79600	4780.00000
0.79640	4798.00000
0.79670	4797.00000
0.79710	4763.00000
0.79740	4811.00000
0.79780	4818.00000
0.79810	4867.00000
0.79850	4844.00000
0.79880	4890.00000
0.79920	4830.00000
0.79950	4926.00000
0.79990	4881.00000
0.80020	4942.00000
0.80060	4818.00000
0.80090	4799.00000
0.80130	4819.00000
0.80160	4764.00000
0.80200	4836.00000
0.80230	4818.00000
0.80270	4805.00000
0.80300	4790.00000
0.80340	4863.00000
0.80370	4865.00000
0.80400	4866.00000
0.80440	4825.00000
0.80470	4838.00000
0.80510	4864.00000
0.80540	4802.00000
0.80580	4877.00000
0.80610	4894.00000
0.80650	4927.00000
0.80680	4805.00000
0.80720	4824.00000
0.80750	4826.00000
0.80790	4865.00000
0.80820	4879.00000
0.80860	4942.00000
0.80890	4801.00000
0.80930	4809.00000
0.80960	4836.00000
0.81000	4878.00000
0.81030	4803.00000
0.81070	4821.00000
0.81100	4762.00000
0.81140	4835.00000
0.81170	4901.00000
0.81210	4798.00000
0.81240	4772.00000
0.81280	4763.00000
0.81310	4797.00000
0.81350	4941.00000
0.81380	4827.00000
0.81420	4789.00000
0.81450	4800.00000
0.81490	4796.00000
0.81520	4809.00000
0.81560	4889.00000
0.81590	4868.00000
0.81630	4815.00000
0.81660	4858.00000
0.81700	4811.00000
0.81730	4891.00000
0.81770	4826.00000
0.81800	4826.00000
0.81840	4817.00000
0.81870	4894.00000
0.81910	4824.00000
0.81940	4797.00000
0.81980	4794.00000
0.82010	4918.00000
0.82050	4902.00000
0.82080	4842.00000
0.82120	4903.00000
0.82150	4868.00000
0.82190	4850.00000
0.82220	4813.00000
0.82250	4886.00000
0.82290	4890.00000
0.82320	4929.00000
0.82360	4989.00000
0.82390	4958.00000
0.82430	4821.00000
0.82460	4904.00000
0.82500	4858.00000
0.82530	4960.00000
0.82570	4951.00000
0.82600	5170.00000
0.82640	5171.00000
0.82670	5143.00000
0.82710	5133.00000
0.82740	5227.00000
0.82780	5462.00000
0.82810	5809.00000
0.82850	5939.00000
0.82880	6343.00000
0.82920	6903.00000
0.82950	7361.00000
0.82990	7702.00000
0.83020	8232.00000
0.83060	8727.00000
0.83090	8993.00000
0.83130	9049.00000
0.83160	8903.00000
0.83200	8592.00000
0.83230	7913.00000
0.83270	7212.00000
0.83300	6808.00000
0.83340	6279.00000
0.83370	6028.00000
0.83410	5758.00000
0.83440	5853.00000
0.83480	5681.00000
0.83510	5482.00000
0.83550	5529.00000
0.83580	5675.00000
0.83620	5739.00000
0.83650	5733.00000
0.83690	5763.00000
0.83720	5901.00000
0.83760	5937.00000
0.83790	6260.00000
0.83830	6220.00000
0.83860	6434.00000
0.83900	6636.00000
0.83930	6760.00000
0.83970	6848.00000
0.84000	6909.00000
0.84040	6750.00000
0.84070	6600.00000
0.84100	6570.00000
0.84140	6318.00000
0.84170	6054.00000
0.84210	5742.00000
0.84240	5699.00000
0.84280	5471.00000
0.84310	5390.00000
0.84350	5295.00000
0.84380	5186.00000
0.84420	5082.00000
0.84450	5065.00000
0.84490	5011.00000
0.84520	5091.00000
0.84560	5136.00000
0.84590	5033.00000
0.84630	4899.00000
0.84660	4907.00000
0.84700	4919.00000
0.84730	5025.00000
0.84770	5026.00000
0.84800	4943.00000
0.84840	4936.00000
0.84870	4956.00000
0.84910	4946.00000
0.84940	5007.00000
0.84980	4878.00000
0.85010	4906.00000
0.85050	5012.00000
0.85080	5136.00000
0.85120	5075.00000
0.85150	5045.00000
0.85190	5126.00000
0.85220	5313.00000
0.85260	5314.00000
0.85290	5387.00000
0.85330	5436.00000
0.85360	5427.00000
0.85400	5419.00000
0.85430	5480.00000
0.85470	5371.00000
0.85500	5510.00000
0.85540	5490.00000
0.85570	5491.00000
0.85610	5516.00000
0.85640	5480.00000
0.85680	5658.00000
0.85710	5683.00000
0.85750	5702.00000
0.85780	5831.00000
0.85820	5748.00000
0.85850	5676.00000
0.85890	5560.00000
0.85920	5349.00000
0.85950	5257.00000
0.85990	5207.00000
0.86020	5053.00000
0.86060	5014.00000
0.86090	5027.00000
0.86130	4956.00000
0.86160	4991.00000
0.86200	4954.00000
0.86230	4850.00000
0.86270	4796.00000
0.86300	4864.00000
0.86340	4897.00000
0.86370	4931.00000
0.86410	4879.00000
0.86440	4882.00000
0.86480	4895.00000
0.86510	4904.00000
0.86550	4853.00000
0.86580	4965.00000
0.86620	4842.00000
0.86650	4796.00000
0.86690	4783.00000
0.86720	4758.00000
0.86760	4800.00000
0.86790	4806.00000
0.86830	4838.00000
0.86860	4858.00000
0.86900	4908.00000
0.86930	4740.00000
0.86970	4846.00000
0.87000	4904.00000
0.87040	4799.00000
0.87070	4792.00000
0.87110	4793.00000
0.87140	4961.00000
0.87180	4873.00000
0.87210	4806.00000
0.87250	4863.00000
0.87280	4800.00000
0.87320	4798.00000
0.87350	4818.00000
0.87390	4840.00000
0.87420	4830.00000
0.87460	4872.00000
0.87490	4883.00000
0.87530	4759.00000
0.87560	4736.00000
0.87600	4860.00000
0.87630	4734.00000
0.87670	4793.00000
0.87700	4792.00000
0.87740	4785.00000
0.87770	4858.00000
0.87810	4890.00000
0.87840	4719.00000
0.87870	4733.00000
0.87910	4872.00000
0.87940	4818.00000
0.87980	4818.00000
0.88010	4781.00000
0.88050	4924.00000
0.88080	4850.00000
0.88120	4756.00000
0.88150	4764.00000
0.88190	4851.00000
0.88220	4735.00000
0.88260	4770.00000
0.88290	4768.00000
0.88330	4854.00000
0.88360	4762.00000
0.88400	4832.00000
0.88430	4835.00000
0.88470	4773.00000
0.88500	4833.00000
0.88540	4724.00000
0.88570	4846.00000
0.88610	4797.00000
0.88640	4809.00000
0.88680	4790.00000
0.88710	4844.00000
0.88750	4828.00000
0.88780	4813.00000
0.88820	4749.00000
0.88850	4691.00000
0.88890	4743.00000
0.88920	4787.00000
0.88960	4804.00000
0.88990	4723.00000
0.89030	4762.00000
0.89060	4778.00000
0.89100	4724.00000
0.89130	4778.00000
0.89170	4691.00000
0.89200	4627.00000
0.89240	4770.00000
0.89270	4786.00000
0.89310	4780.00000
0.89340	4819.00000
0.89380	4640.00000
0.89410	4693.00000
0.89450	4768.00000
0.89480	4721.00000
0.89520	4710.00000
0.89550	4778.00000
0.89590	4722.00000
0.89620	4786.00000
0.89660	4757.00000
0.89690	4783.00000
0.89720	4783.00000
0.89760	4698.00000
0.89790	4722.00000
0.89830	4716.00000
0.89860	4826.00000
0.89900	4840.00000
0.89930	4876.00000
0.89970	4764.00000
0.90000	4736.00000
0.90040	4742.00000
0.90070	4804.00000
0.90110	4757.00000
0.90140	4776.00000
0.90180	4813.00000
0.90210	4774.00000
0.90250	4760.00000
0.90280	4761.00000
0.90320	4673.00000
0.90350	4670.00000
0.90390	4786.00000
0.90420	4731.00000
0.90460	4800.00000
0.90490	4815.00000
0.90530	4809.00000
0.90560	4792.00000
0.90600	4708.00000
0.90630	4820.00000
0.90670	4834.00000
0.90700	4783.00000
0.90740	4806.00000
0.90770	4794.00000
0.90810	4774.00000
0.90840	4738.00000
0.90880	4763.00000
0.90910	4877.00000
0.90950	4826.00000
0.90980	4856.00000
0.91020	4753.00000
0.91050	4786.00000
0.91090	4815.00000
0.91120	4808.00000
0.91160	4875.00000
0.91190	4829.00000
0.91230	4845.00000
0.91260	4874.00000
0.91300	4952.00000
0.91330	4864.00000
0.91370	4932.00000
0.91400	4974.00000
0.91440	4950.00000
0.91470	5015.00000
0.91510	4986.00000
0.91540	5139.00000
0.91570	5153.00000
0.91610	5236.00000
0.91640	5293.00000
0.91680	5196.00000
0.91710	5135.00000
0.91750	5051.00000
0.91780	5076.00000
0.91820	4958.00000
0.91850	4922.00000
0.91890	4950.00000
0.91920	4839.00000
0.91960	4862.00000
0.91990	4867.00000
0.92030	4814.00000
0.92060	4861.00000
0.92100	4823.00000
0.92130	4856.00000
0.92170	4783.00000
0.92200	4787.00000
0.92240	4790.00000
0.92270	4812.00000
0.92310	4784.00000
0.92340	4764.00000
0.92380	4776.00000
0.92410	4734.00000
0.92450	4734.00000
0.92480	4824.00000
0.92520	4887.00000
0.92550	4745.00000
0.92590	4754.00000
0.92620	4787.00000
0.92660	4811.00000
0.92690	4805.00000
0.92730	4774.00000
0.92760	4789.00000
0.92800	4778.00000
0.92830	4802.00000
0.92870	4784.00000
0.92900	4813.00000
0.92940	4884.00000
0.92970	4760.00000
0.93010	4798.00000
0.93040	4772.00000
0.93080	4793.00000
0.93110	4799.00000
0.93150	4973.00000
0.93180	5084.00000
0.93220	5024.00000
0.93250	4916.00000
0.93290	4959.00000
0.93320	5076.00000
0.93360	4994.00000
0.93390	5058.00000
0.93420	5165.00000
0.93460	5108.00000
0.93490	5030.00000
0.93530	4959.00000
0.93560	4963.00000
0.93600	4950.00000
0.93630	5029.00000
0.93670	5209.00000
0.93700	5106.00000
0.93740	5214.00000
0.93770	5175.00000
0.93810	5222.00000
0.93840	5308.00000
0.93880	5494.00000
0.93910	5623.00000
0.93950	5682.00000
0.93980	5939.00000
0.94020	5937.00000
0.94050	5932.00000
0.94090	6082.00000
0.94120	6049.00000
0.94160	5812.00000
0.94190	5609.00000
0.94230	5529.00000
0.94260	5385.00000
0.94300	5243.00000
0.94330	5182.00000
0.94370	5249.00000
0.94400	5134.00000
0.94440	5158.00000
0.94470	5098.00000
0.94510	4956.00000
0.94540	4904.00000
0.94580	4996.00000
0.94610	4882.00000
0.94650	4863.00000
0.94680	4786.00000
0.94720	4824.00000
0.94750	4841.00000
0.94790	4846.00000
0.94820	4835.00000
0.94860	4776.00000
0.94890	4777.00000
0.94930	4762.00000
0.94960	4832.00000
0.95000	4826.00000
0.95030	4688.00000
0.95070	4721.00000
0.95100	4859.00000
0.95140	4755.00000
0.95170	4830.00000
0.95210	4809.00000
0.95240	4789.00000
0.95280	4790.00000
0.95310	4736.00000
0.95340	4832.00000
0.95380	4786.00000
0.95410	4685.00000
0.95450	4676.00000
0.95480	4725.00000
0.95520	4767.00000
0.95550	4803.00000
0.95590	4839.00000
0.95620	4747.00000
0.95660	4674.00000
0.95690	4744.00000
0.95730	4757.00000
0.95760	4843.00000
0.95800	4843.00000
0.95830	4844.00000
0.95870	4770.00000
0.95900	4731.00000
0.95940	4753.00000
0.95970	4681.00000
0.96010	4778.00000
0.96040	4713.00000
0.96080	4792.00000
0.96110	4786.00000
0.96150	4775.00000
0.96180	4701.00000
0.96220	4795.00000
0.96250	4707.00000
0.96290	4713.00000
0.96320	4747.00000
0.96360	4815.00000
0.96390	4825.00000
0.96430	4757.00000
0.96460	4805.00000
0.96500	4747.00000
0.96530	4694.00000
0.96570	4747.00000
0.96600	4803.00000
0.96640	4724.00000
0.96670	4824.00000
0.96710	4806.00000
0.96740	4764.00000
0.96780	4815.00000
0.96810	4799.00000
0.96850	4753.00000
0.96880	4740.00000
0.96920	4792.00000
0.96950	4807.00000
0.96990	4866.00000
0.97020	4949.00000
0.97060	5009.00000
0.97090	4884.00000
0.97130	4868.00000
0.97160	4988.00000
0.97190	4943.00000
0.97230	4916.00000
0.97260	4987.00000
0.97300	4868.00000
0.97330	4852.00000
0.97370	4938.00000
0.97400	4836.00000
0.97440	4768.00000
0.97470	4761.00000
0.97510	4837.00000
0.97540	4792.00000
0.97580	4791.00000
0.97610	4827.00000
0.97650	4777.00000
0.97680	4812.00000
0.97720	4711.00000
0.97750	4790.00000
0.97790	4725.00000
0.97820	4678.00000
0.97860	4746.00000
0.97890	4774.00000
0.97930	4659.00000
0.97960	4684.00000
0.98000	4831.00000
0.98030	4856.00000
0.98070	4809.00000
0.98100	4754.00000
0.98140	4790.00000
0.98170	4774.00000
0.98210	4773.00000
0.98240	4786.00000
0.98280	4688.00000
0.98310	4675.00000
0.98350	4700.00000
0.98380	4665.00000
0.98420	4682.00000
0.98450	4584.00000
0.98490	4673.00000
0.98520	4754.00000
0.98560	4816.00000
0.98590	4728.00000
0.98630	4673.00000
0.98660	4675.00000
0.98700	4693.00000
0.98730	4673.00000
0.98770	4711.00000
0.98800	4827.00000
0.98840	4699.00000
0.98870	4761.00000
0.98910	4768.00000
0.98940	4719.00000
0.98980	4667.00000
0.99010	4715.00000
0.99040	4672.00000
0.99080	4762.00000
0.99110	4728.00000
0.99150	4708.00000
0.99180	4672.00000
0.99220	4686.00000
0.99250	4712.00000
0.99290	4683.00000
0.99320	4805.00000
0.99360	4720.00000
0.99390	4688.00000
0.99430	4696.00000
0.99460	4734.00000
0.99500	4636.00000
0.99530	4675.00000
0.99570	4696.00000
0.99600	4729.00000
0.99640	4709.00000
0.99670	4723.00000
0.99710	4723.00000
0.99740	4690.00000
0.99780	4814.00000
0.99810	4720.00000
0.99850	4760.00000
0.99880	4761.00000
0.99920	4726.00000
0.99950	4646.00000
0.99990	4722.00000
1.00020	4775.00000
1.00060	4772.00000
1.00090	4742.00000
1.00130	4724.00000
1.00160	4716.00000
1.00200	4775.00000
1.00230	4651.00000
1.00270	4747.00000
1.00300	4753.00000
1.00340	4723.00000
1.00370	4752.00000
1.00410	4708.00000
1.00440	4765.00000
1.00480	4789.00000
1.00510	4688.00000
1.00550	4698.00000
1.00580	4815.00000
1.00620	4766.00000
1.00650	4788.00000
1.00690	4827.00000
1.00720	4869.00000
1.00760	4797.00000
1.00790	4775.00000
1.00830	4813.00000
1.00860	4911.00000
1.00890	5101.00000
1.00930	5106.00000
1.00960	5227.00000
1.01000	5390.00000
1.01030	5608.00000
1.01070	5749.00000
1.01100	5985.00000
1.01140	6225.00000
1.01170	6589.00000
1.01210	6709.00000
1.01240	6749.00000
1.01280	6695.00000
1.01310	6485.00000
1.01350	6332.00000
1.01380	6101.00000
1.01420	5902.00000
1.01450	5824.00000
1.01490	5546.00000
1.01520	5401.00000
1.01560	5230.00000
1.01590	5159.00000
1.01630	5059.00000
1.01660	5127.00000
1.01700	4995.00000
1.01730	5059.00000
1.01770	4925.00000
1.01800	4871.00000
1.01840	4888.00000
1.01870	4919.00000
1.01910	4980.00000
1.01940	4815.00000
1.01980	4784.00000
1.02010	4913.00000
1.02050	4921.00000
1.02080	4972.00000
1.02120	4957.00000
1.02150	4910.00000
1.02190	4947.00000
1.02220	5162.00000
1.02260	5199.00000
1.02290	5301.00000
1.02330	5436.00000
1.02360	5448.00000
1.02400	5724.00000
1.02430	5949.00000
1.02470	5936.00000
1.02500	6045.00000
1.02540	6226.00000
1.02570	6370.00000
1.02610	6238.00000
1.02640	5976.00000
1.02680	5944.00000
1.02710	5737.00000
1.02750	5549.00000
1.02780	5393.00000
1.02810	5212.00000
1.02850	5160.00000
1.02880	5119.00000
1.02920	4989.00000
1.02950	4977.00000
1.02990	4883.00000
1.03020	4877.00000
1.03060	4923.00000
1.03090	4827.00000
1.03130	4820.00000
1.03160	4828.00000
1.03200	4790.00000
1.03230	4918.00000
1.03270	4902.00000
1.03300	4972.00000
1.03340	4970.00000
1.03370	5011.00000
1.03410	4898.00000
1.03440	5087.00000
1.03480	5134.00000
1.03510	5116.00000
1.03550	5135.00000
1.03580	5308.00000
1.03620	5299.00000
1.03650	5510.00000
1.03690	5589.00000
1.03720	5767.00000
1.03760	5921.00000
1.03790	6247.00000
1.03830	6412.00000
1.03860	6754.00000
1.03900	7218.00000
1.03930	7617.00000
1.03970	7975.00000
1.04000	8187.00000
1.04040	8494.00000
1.04070	8704.00000
1.04110	8900.00000
1.04140	9061.00000
1.04180	8981.00000
1.04210	8938.00000
1.04250	8637.00000
1.04280	8140.00000
1.04320	7460.00000
1.04350	7152.00000
1.04390	6688.00000
1.04420	6368.00000
1.04460	6008.00000
1.04490	5830.00000
1.04530	5627.00000
1.04560	5505.00000
1.04600	5341.00000
1.04630	5216.00000
1.04660	5200.00000
1.04700	5132.00000
1.04730	5185.00000
1.04770	4966.00000
1.04800	4962.00000
1.04840	4964.00000
1.04870	4917.00000
1.04910	4865.00000
1.04940	4916.00000
1.04980	4877.00000
1.05010	4954.00000
1.05050	4954.00000
1.05080	4900.00000
1.05120	4972.00000
1.05150	5044.00000
1.05190	4975.00000
1.05220	5047.00000
1.05260	4973.00000
1.05290	4940.00000
1.05330	4894.00000
1.05360	4874.00000
1.05400	4840.00000
1.05430	4783.00000
1.05470	4800.00000
1.05500	4832.00000
1.05540	4852.00000
1.05570	4781.00000
1.05610	4777.00000
1.05640	4812.00000
1.05680	4752.00000
1.05710	4714.00000
1.05750	4649.00000
1.05780	4747.00000
1.05820	4777.00000
1.05850	4659.00000
1.05890	4669.00000
1.05920	4709.00000
1.05960	4746.00000
1.05990	4653.00000
1.06030	4753.00000
1.06060	4713.00000
1.06100	4665.00000
1.06130	4774.00000
1.06170	4739.00000
1.06200	4660.00000
1.06240	4731.00000
1.06270	4701.00000
1.06310	4635.00000
1.06340	4692.00000
1.06380	4731.00000
1.06410	4767.00000
1.06450	4768.00000
1.06480	4644.00000
1.06510	4544.00000
1.06550	4570.00000
1.06580	4681.00000
1.06620	4717.00000
1.06650	4669.00000
1.06690	4672.00000
1.06720	4694.00000
1.06760	4773.00000
1.06790	4656.00000
1.06830	4634.00000
1.06860	4598.00000
1.06900	4685.00000
1.06930	4652.00000
1.06970	4642.00000
1.07000	4670.00000
1.07040	4671.00000
1.07070	4684.00000
1.07110	4623.00000
1.07140	4637.00000
1.07180	4613.00000
1.07210	4589.00000
1.07250	4743.00000
1.07280	4696.00000
1.07320	4565.00000
1.07350	4700.00000
1.07390	4772.00000
1.07420	4677.00000
1.07460	4657.00000
1.07490	4603.00000
1.07530	4700.00000
1.07560	4605.00000
1.07600	4682.00000
1.07630	4659.00000
1.07670	4651.00000
1.07700	4695.00000
1.07740	4709.00000
1.07770	4705.00000
1.07810	4684.00000
1.07840	4705.00000
1.07880	4704.00000
1.07910	4774.00000
1.07950	4767.00000
1.07980	4692.00000
1.08020	4732.00000
1.08050	4736.00000
1.08090	4695.00000
1.08120	4742.00000
1.08160	4676.00000
1.08190	4676.00000
1.08230	4690.00000
1.08260	4664.00000
1.08300	4618.00000
1.08330	4624.00000
1.08370	4682.00000
1.08400	4589.00000
1.08430	4592.00000
1.08470	4653.00000
1.08500	4679.00000
1.08540	4629.00000
1.08570	4645.00000
1.08610	4655.00000
1.08640	4600.00000
1.08680	4641.00000
1.08710	4620.00000
1.08750	4724.00000
1.08780	4808.00000
1.08820	4692.00000
1.08850	4664.00000
1.08890	4666.00000
1.08920	4631.00000
1.08960	4653.00000
1.08990	4586.00000
1.09030	4679.00000
1.09060	4629.00000
1.09100	4562.00000
1.09130	4649.00000
1.09170	4714.00000
1.09200	4632.00000
1.09240	4702.00000
1.09270	4622.00000
1.09310	4656.00000
1.09340	4672.00000
1.09380	4744.00000
1.09410	4671.00000
1.09450	4661.00000
1.09480	4751.00000
1.09520	4711.00000
1.09550	4648.00000
1.09590	4684.00000
1.09620	4759.00000
1.09660	4651.00000
1.09690	4718.00000
1.09730	4582.00000
1.09760	4597.00000
1.09800	4655.00000
1.09830	4612.00000
1.09870	4604.00000
1.09900	4583.00000
1.09940	4661.00000
1.09970	4601.00000
1.10010	4533.00000
1.10040	4692.00000
1.10080	4730.00000
1.10110	4695.00000
1.10150	4720.00000
1.10180	4679.00000
1.10220	4613.00000
1.10250	4697.00000
1.10280	4653.00000
1.10320	4704.00000
1.10350	4658.00000
1.10390	4704.00000
1.10420	4653.00000
1.10460	4618.00000
1.10490	4726.00000
1.10530	4649.00000
1.10560	4584.00000
1.10600	4613.00000
1.10630	4666.00000
1.10670	4725.00000
1.10700	4622.00000
1.10740	4647.00000
1.10770	4602.00000
1.10810	4575.00000
1.10840	4740.00000
1.10880	4705.00000
1.10910	4718.00000
1.10950	4731.00000
1.10980	4764.00000
1.11020	4594.00000
1.11050	4654.00000
1.11090	4661.00000
1.11120	4657.00000
1.11160	4683.00000
1.11190	4698.00000
1.11230	4639.00000
1.11260	4642.00000
1.11300	4724.00000
1.11330	4656.00000
1.11370	4642.00000
1.11400	4629.00000
1.11440	4594.00000
1.11470	4653.00000
1.11510	4642.00000
1.11540	4765.00000
1.11580	4748.00000
1.11610	4763.00000
1.11650	4764.00000
1.11680	4700.00000
1.11720	4673.00000
1.11750	4639.00000
1.11790	4597.00000
1.11820	4665.00000
1.11860	4635.00000
1.11890	4572.00000
1.11930	4674.00000
1.11960	4685.00000
1.12000	4706.00000
1.12030	4709.00000
1.12070	4757.00000
1.12100	4730.00000
1.12130	4670.00000
1.12170	4734.00000
1.12200	4837.00000
1.12240	4861.00000
1.12270	4842.00000
1.12310	4898.00000
1.12340	4951.00000
1.12380	5006.00000
1.12410	5133.00000
1.12450	5134.00000
1.12480	5161.00000
1.12520	5204.00000
1.12550	5192.00000
1.12590	5089.00000
1.12620	5045.00000
1.12660	4988.00000
1.12690	4942.00000
1.12730	4940.00000
1.12760	4954.00000
1.12800	4811.00000
1.12830	4784.00000
1.12870	4728.00000
1.12900	4701.00000
1.12940	4802.00000
1.12970	4782.00000
1.13010	4759.00000
1.13040	4729.00000
1.13080	4605.00000
1.13110	4711.00000
1.13150	4799.00000
1.13180	4672.00000
1.13220	4635.00000
1.13250	4544.00000
1.13290	4678.00000
1.13320	4625.00000
1.13360	4676.00000
1.13390	4642.00000
1.13430	4605.00000
1.13460	4668.00000
1.13500	4633.00000
1.13530	4615.00000
1.13570	4689.00000
1.13600	4629.00000
1.13640	4658.00000
1.13670	4703.00000
1.13710	4734.00000
1.13740	4701.00000
1.13780	4677.00000
1.13810	4656.00000
1.13850	4632.00000
1.13880	4572.00000
1.13920	4619.00000
1.13950	4610.00000
1.13980	4562.00000
1.14020	4611.00000
1.14050	4610.00000
1.14090	4644.00000
1.14120	4573.00000
1.14160	4588.00000
1.14190	4582.00000
1.14230	4685.00000
1.14260	4584.00000
1.14300	4648.00000
1.14330	4587.00000
1.14370	4600.00000
1.14400	4629.00000
1.14440	4634.00000
1.14470	4696.00000
1.14510	4682.00000
1.14540	4707.00000
1.14580	4581.00000
1.14610	4682.00000
1.14650	4601.00000
1.14680	4646.00000
1.14720	4601.00000
1.14750	4652.00000
1.14790	4588.00000
1.14820	4569.00000
1.14860	4667.00000
1.14890	4604.00000
1.14930	4559.00000
1.14960	4551.00000
1.15000	4685.00000
1.15030	4717.00000
1.15070	4591.00000
1.15100	4597.00000
1.15140	4619.00000
1.15170	4635.00000
1.15210	4725.00000
1.15240	4662.00000
1.15280	4658.00000
1.15310	4589.00000
1.15350	4620.00000
1.15380	4663.00000
1.15420	4619.00000
1.15450	4676.00000
1.15490	4739.00000
1.15520	4628.00000
1.15560	4644.00000
1.15590	4756.00000
1.15630	4608.00000
1.15660	4559.00000
1.15700	4573.00000
1.15730	4624.00000
1.15770	4575.00000
1.15800	4513.00000
1.15840	4607.00000
1.15870	4638.00000
1.15900	4526.00000
1.15940	4710.00000
1.15970	4646.00000
1.16010	4557.00000
1.16040	4597.00000
1.16080	4537.00000
1.16110	4648.00000
1.16150	4658.00000
1.16180	4579.00000
1.16220	4606.00000
1.16250	4570.00000
1.16290	4649.00000
1.16320	4597.00000
1.16360	4609.00000
1.16390	4538.00000
1.16430	4598.00000
1.16460	4641.00000
1.16500	4629.00000
1.16530	4652.00000
1.16570	4623.00000
1.16600	4611.00000
1.16640	4620.00000
1.16670	4651.00000
1.16710	4724.00000
1.16740	4721.00000
1.16780	4716.00000
1.16810	4782.00000
1.16850	4729.00000
1.16880	4647.00000
1.16920	4695.00000
1.16950	4783.00000
1.16990	4748.00000
1.17020	4669.00000
1.17060	4823.00000
1.17090	4773.00000
1.17130	4786.00000
1.17160	4716.00000
1.17200	4705.00000
1.17230	4731.00000
1.17270	4700.00000
1.17300	4703.00000
1.17340	4712.00000
1.17370	4701.00000
1.17410	4578.00000
1.17440	4614.00000
1.17480	4624.00000
1.17510	4715.00000
1.17550	4678.00000
1.17580	4624.00000
1.17620	4580.00000
1.17650	4640.00000
1.17690	4636.00000
1.17720	4695.00000
1.17750	4689.00000
1.17790	4684.00000
1.17820	4643.00000
1.17860	4719.00000
1.17890	4654.00000
1.17930	4644.00000
1.17960	4632.00000
1.18000	4589.00000
1.18030	4689.00000
1.18070	4686.00000
1.18100	4548.00000
1.18140	4566.00000
1.18170	4678.00000
1.18210	4575.00000
1.18240	4674.00000
1.18280	4568.00000
1.18310	4779.00000
1.18350	4573.00000
1.18380	4606.00000
1.18420	4670.00000
1.18450	4588.00000
1.18490	4573.00000
1.18520	4668.00000
1.18560	4602.00000
1.18590	4607.00000
1.18630	4650.00000
1.18660	4645.00000
1.18700	4687.00000
1.18730	4666.00000
1.18770	4582.00000
1.18800	4649.00000
1.18840	4701.00000
1.18870	4624.00000
1.18910	4615.00000
1.18940	4794.00000
1.18980	4757.00000
1.19010	4833.00000
1.19050	4735.00000
1.19080	4857.00000
1.19120	4849.00000
1.19150	4815.00000
1.19190	4820.00000
1.19220	4809.00000
1.19260	4737.00000
1.19290	4715.00000
1.19330	4840.00000
1.19360	4639.00000
1.19400	4674.00000
1.19430	4701.00000
1.19470	4729.00000
1.19500	4758.00000
1.19540	4779.00000
1.19570	4737.00000
1.19600	4725.00000
1.19640	4675.00000
1.19670	4749.00000
1.19710	4731.00000
1.19740	4751.00000
1.19780	4726.00000
1.19810	4656.00000
1.19850	4768.00000
1.19880	4646.00000
1.19920	4835.00000
1.19950	4947.00000
1.19990	4927.00000
1.20020	5007.00000
1.20060	5001.00000
1.20090	5068.00000
1.20130	5146.00000
1.20160	5232.00000
1.20200	5357.00000
1.20230	5616.00000
1.20270	5738.00000
1.20300	5754.00000
1.20340	5968.00000
1.20370	6074.00000
1.20410	6215.00000
1.20440	6095.00000
1.20480	6109.00000
1.20510	5971.00000
1.20550	5764.00000
1.20580	5721.00000
1.20620	5562.00000
1.20650	5266.00000
1.20690	5197.00000
1.20720	5072.00000
1.20760	4956.00000
1.20790	5019.00000
1.20830	4848.00000
1.20860	4834.00000
1.20900	4854.00000
1.20930	4816.00000
1.20970	4784.00000
1.21000	4836.00000
1.21040	4719.00000
1.21070	4706.00000
1.21110	4762.00000
1.21140	4760.00000
1.21180	4688.00000
1.21210	4755.00000
1.21250	4733.00000
1.21280	4723.00000
1.21320	4680.00000
1.21350	4707.00000
1.21390	4707.00000
1.21420	4670.00000
1.21450	4822.00000
1.21490	4706.00000
1.21520	4655.00000
1.21560	4519.00000
1.21590	4574.00000
1.21630	4589.00000
1.21660	4628.00000
1.21700	4684.00000
1.21730	4678.00000
1.21770	4708.00000
1.21800	4678.00000
1.21840	4712.00000
1.21870	4663.00000
1.21910	4648.00000
1.21940	4659.00000
1.21980	4692.00000
1.22010	4681.00000
1.22050	4778.00000
1.22080	4735.00000
1.22120	4765.00000
1.22150	4864.00000
1.22190	4893.00000
1.22220	4978.00000
1.22260	4947.00000
1.22290	4982.00000
1.22330	4987.00000
1.22360	5003.00000
1.22400	5130.00000
1.22430	5097.00000
1.22470	4999.00000
1.22500	4920.00000
1.22540	4891.00000
1.22570	5019.00000
1.22610	4804.00000
1.22640	4741.00000
1.22680	4775.00000
1.22710	4838.00000
1.22750	4751.00000
1.22780	4705.00000
1.22820	4696.00000
1.22850	4703.00000
1.22890	4677.00000
1.22920	4624.00000
1.22960	4609.00000
1.22990	4539.00000
1.23030	4586.00000
1.23060	4589.00000
1.23100	4653.00000
1.23130	4643.00000
1.23170	4759.00000
1.23200	4581.00000
1.23240	4652.00000
1.23270	4579.00000
1.23310	4534.00000
1.23340	4564.00000
1.23370	4523.00000
1.23410	4558.00000
1.23440	4541.00000
1.23480	4658.00000
1.23510	4707.00000
1.23550	4665.00000
1.23580	4742.00000
1.23620	4686.00000
1.23650	4598.00000
1.23690	4653.00000
1.23720	4616.00000
1.23760	4576.00000
1.23790	4635.00000
1.23830	4700.00000
1.23860	4575.00000
1.23900	4623.00000
1.23930	4690.00000
1.23970	4673.00000
1.24000	4590.00000
1.24040	4586.00000
1.24070	4615.00000
1.24110	4634.00000
1.24140	4670.00000
1.24180	4725.00000
1.24210	4670.00000
1.24250	4606.00000
1.24280	4580.00000
1.24320	4556.00000
1.24350	4671.00000
1.24390	4603.00000
1.24420	4647.00000
1.24460	4648.00000
1.24490	4588.00000
1.24530	4662.00000
1.24560	4581.00000
1.24600	4679.00000
1.24630	4569.00000
1.24670	4557.00000
1.24700	4557.00000
1.24740	4558.00000
1.24770	4698.00000
1.24810	4630.00000
1.24840	4623.00000
1.24880	4686.00000
1.24910	4660.00000
1.24950	4658.00000
1.24980	4604.00000
1.25020	4692.00000
1.25050	4637.00000
1.25090	4705.00000
1.25120	4637.00000
1.25160	4724.00000
1.25190	4680.00000
1.25220	4709.00000
1.25260	4836.00000
1.25290	4844.00000
1.25330	4780.00000
1.25360	4791.00000
1.25400	4809.00000
1.25430	4802.00000
1.25470	4762.00000
1.25500	4714.00000
1.25540	4778.00000
1.25570	4784.00000
1.25610	4778.00000
1.25640	4733.00000
1.25680	4680.00000
1.25710	4657.00000
1.25750	4738.00000
1.25780	4708.00000
1.25820	4604.00000
1.25850	4636.00000
1.25890	4626.00000
1.25920	4584.00000
1.25960	4629.00000
1.25990	4698.00000
1.26030	4679.00000
1.26060	4668.00000
1.26100	4665.00000
1.26130	4683.00000
1.26170	4669.00000
1.26200	4685.00000
1.26240	4715.00000
1.26270	4693.00000
1.26310	4675.00000
1.26340	4713.00000
1.26380	4625.00000
1.26410	4637.00000
1.26450	4678.00000
1.26480	4636.00000
1.26520	4589.00000
1.26550	4548.00000
1.26590	4656.00000
1.26620	4694.00000
1.26660	4737.00000
1.26690	4542.00000
1.26730	4624.00000
1.26760	4672.00000
1.26800	4641.00000
1.26830	4614.00000
1.26870	4673.00000
1.26900	4719.00000
1.26940	4667.00000
1.26970	4680.00000
1.27010	4718.00000
1.27040	4817.00000
1.27070	4763.00000
1.27110	4807.00000
1.27140	4841.00000
1.27180	4835.00000
1.27210	4762.00000
1.27250	5004.00000
1.27280	5009.00000
1.27320	5006.00000
1.27350	4855.00000
1.27390	4730.00000
1.27420	4722.00000
1.27460	4742.00000
1.27490	4749.00000
1.27530	4717.00000
1.27560	4698.00000
1.27600	4649.00000
1.27630	4655.00000
1.27670	4699.00000
1.27700	4626.00000
1.27740	4736.00000
1.27770	4691.00000
1.27810	4760.00000
1.27840	4602.00000
1.27880	4652.00000
1.27910	4687.00000
1.27950	4774.00000
1.27980	4807.00000
1.28020	4753.00000
1.28050	4643.00000
1.28090	4635.00000
1.28120	4714.00000
1.28160	4679.00000
1.28190	4696.00000
1.28230	4626.00000
1.28260	4665.00000
1.28300	4734.00000
1.28330	4652.00000
1.28370	4662.00000
1.28400	4716.00000
1.28440	4605.00000
1.28470	4674.00000
1.28510	4689.00000
1.28540	4761.00000
1.28580	4547.00000
1.28610	4635.00000
1.28650	4575.00000
1.28680	4575.00000
1.28720	4621.00000
1.28750	4585.00000
1.28790	4703.00000
1.28820	4648.00000
1.28860	4636.00000
1.28890	4714.00000
1.28920	4664.00000
1.28960	4652.00000
1.28990	4645.00000
1.29030	4572.00000
1.29060	4550.00000
1.29100	4623.00000
1.29130	4650.00000
1.29170	4581.00000
1.29200	4718.00000
1.29240	4631.00000
1.29270	4637.00000
1.29310	4581.00000
1.29340	4603.00000
1.29380	4601.00000
1.29410	4696.00000
1.29450	4684.00000
1.29480	4671.00000
1.29520	4697.00000
1.29550	4659.00000
1.29590	4659.00000
1.29620	4729.00000
1.29660	4744.00000
1.29690	4836.00000
1.29730	4774.00000
1.29760	4872.00000
1.29800	4907.00000
1.29830	4887.00000
1.29870	4852.00000
1.29900	4890.00000
1.29940	4879.00000
1.29970	4790.00000
1.30010	4867.00000
1.30040	4915.00000
1.30080	4895.00000
1.30110	4773.00000
1.30150	4630.00000
1.30180	4750.00000
1.30220	4796.00000
1.30250	4762.00000
1.30290	4658.00000
1.30320	4758.00000
1.30360	4665.00000
1.30390	4598.00000
1.30430	4664.00000
1.30460	4711.00000
1.30500	4701.00000
1.30530	4699.00000
1.30570	4685.00000
1.30600	4653.00000
1.30640	4613.00000
1.30670	4724.00000
1.30710	4810.00000
1.30740	4597.00000
1.30780	4556.00000
1.30810	4606.00000
1.30840	4697.00000
1.30880	4618.00000
1.30910	4614.00000
1.30950	4635.00000
1.30980	4667.00000
1.31020	4675.00000
1.31050	4609.00000
1.31090	4595.00000
1.31120	4597.00000
1.31160	4620.00000
1.31190	4580.00000
1.31230	4604.00000
1.31260	4565.00000
1.31300	4608.00000
1.31330	4511.00000
1.31370	4552.00000
1.31400	4543.00000
1.31440	4561.00000
1.31470	4580.00000
1.31510	4568.00000
1.31540	4624.00000
1.31580	4635.00000
1.31610	4657.00000
1.31650	4567.00000
1.31680	4589.00000
1.31720	4620.00000
1.31750	4644.00000
1.31790	4545.00000
1.31820	4527.00000
1.31860	4697.00000
1.31890	4685.00000
1.31930	4618.00000
1.31960	4581.00000
1.32000	4528.00000
1.32030	4587.00000
1.32070	4678.00000
1.32100	4670.00000
1.32140	4658.00000
1.32170	4498.00000
1.32210	4612.00000
1.32240	4661.00000
1.32280	4602.00000
1.32310	4657.00000
1.32350	4633.00000
1.32380	4668.00000
1.32420	4674.00000
1.32450	4585.00000
1.32490	4719.00000
1.32520	4647.00000
1.32560	4636.00000
1.32590	4606.00000
1.32630	4619.00000
1.32660	4566.00000
1.32690	4626.00000
1.32730	4581.00000
1.32760	4627.00000
1.32800	4549.00000
1.32830	4581.00000
1.32870	4643.00000
1.32900	4480.00000
1.32940	4533.00000
1.32970	4544.00000
1.33010	4569.00000
1.33040	4553.00000
1.33080	4708.00000
1.33110	4588.00000
1.33150	4578.00000
1.33180	4604.00000
1.33220	4628.00000
1.33250	4746.00000
1.33290	4634.00000
1.33320	4616.00000
1.33360	4747.00000
1.33390	4744.00000
1.33430	4738.00000
1.33460	4719.00000
1.33500	4676.00000
1.33530	4619.00000
1.33570	4666.00000
1.33600	4741.00000
1.33640	4684.00000
1.33670	4749.00000
1.33710	4751.00000
1.33740	4792.00000
1.33780	4905.00000
1.33810	4820.00000
1.33850	4783.00000
1.33880	4780.00000
1.33920	4840.00000
1.33950	4787.00000
1.33990	4788.00000
1.34020	4728.00000
1.34060	4620.00000
1.34090	4675.00000
1.34130	4762.00000
1.34160	4783.00000
1.34200	4651.00000
1.34230	4743.00000
1.34270	4640.00000
1.34300	4672.00000
1.34340	4591.00000
1.34370	4668.00000
1.34410	4705.00000
1.34440	4704.00000
1.34480	4661.00000
1.34510	4626.00000
1.34540	4679.00000
1.34580	4695.00000
1.34610	4564.00000
1.34650	4613.00000
1.34680	4675.00000
1.34720	4625.00000
1.34750	4641.00000
1.34790	4670.00000
1.34820	4568.00000
1.34860	4619.00000
1.34890	4604.00000
1.34930	4648.00000
1.34960	4744.00000
1.35000	4616.00000
1.35030	4678.00000
1.35070	4603.00000
1.35100	4628.00000
1.35140	4670.00000
1.35170	4634.00000
1.35210	4679.00000
1.35240	4730.00000
1.35280	4702.00000
1.35310	4785.00000
1.35350	4728.00000
1.35380	4745.00000
1.35420	4877.00000
1.35450	4903.00000
1.35490	4923.00000
1.35520	4962.00000
1.35560	4999.00000
1.35590	5070.00000
1.35630	5028.00000
1.35660	5187.00000
1.35700	5116.00000
1.35730	5220.00000
1.35770	5291.00000
1.35800	5325.00000
1.35840	5362.00000
1.35870	5460.00000
1.35910	5460.00000
1.35940	5441.00000
1.35980	5305.00000
1.36010	5306.00000
1.36050	5149.00000
1.36080	5174.00000
1.36120	5032.00000
1.36150	5023.00000
1.36190	4922.00000
1.36220	4935.00000
1.36260	4956.00000
1.36290	4869.00000
1.36330	4874.00000
1.36360	4875.00000
1.36390	4840.00000
1.36430	4808.00000
1.36460	4853.00000
1.36500	4792.00000
1.36530	4727.00000
1.36570	4772.00000
1.36600	4756.00000
1.36640	4888.00000
1.36670	4804.00000
1.36710	4956.00000
1.36740	4904.00000
1.36780	4933.00000
1.36810	5070.00000
1.36850	5099.00000
1.36880	5072.00000
1.36920	5070.00000
1.36950	5144.00000
1.36990	5206.00000
1.37020	5220.00000
1.37060	5223.00000
1.37090	5473.00000
1.37130	5510.00000
1.37160	5488.00000
1.37200	5343.00000
1.37230	5334.00000
1.37270	5422.00000
1.37300	5497.00000
1.37340	5398.00000
1.37370	5348.00000
1.37410	5403.00000
1.37440	5409.00000
1.37480	5496.00000
1.37510	5295.00000
1.37550	5365.00000
1.37580	5261.00000
1.37620	5247.00000
1.37650	5154.00000
1.37690	5189.00000
1.37720	5190.00000
1.37760	5060.00000
1.37790	5041.00000
1.37830	5049.00000
1.37860	4974.00000
1.37900	4836.00000
1.37930	4871.00000
1.37970	4824.00000
1.38000	4817.00000
1.38040	4804.00000
1.38070	4800.00000
1.38110	4772.00000
1.38140	4866.00000
1.38180	4770.00000
1.38210	4790.00000
1.38250	4831.00000
1.38280	4762.00000
1.38310	4731.00000
1.38350	4740.00000
1.38380	4797.00000
1.38420	4789.00000
1.38450	4731.00000
1.38490	4740.00000
1.38520	4733.00000
1.38560	4781.00000
1.38590	4798.00000
1.38630	4821.00000
1.38660	4836.00000
1.38700	4856.00000
1.38730	4726.00000
1.38770	4811.00000
1.38800	4791.00000
1.38840	4786.00000
1.38870	4768.00000
1.38910	4736.00000
1.38940	4802.00000
1.38980	4747.00000
1.39010	4738.00000
1.39050	4754.00000
1.39080	4846.00000
1.39120	4822.00000
1.39150	4771.00000
1.39190	4744.00000
1.39220	4811.00000
1.39260	4808.00000
1.39290	4722.00000
1.39330	4792.00000
1.39360	4782.00000
1.39400	4756.00000
1.39430	4802.00000
1.39470	4789.00000
1.39500	4781.00000
1.39540	4826.00000
1.39570	4837.00000
1.39610	4827.00000
1.39640	4744.00000
1.39680	4794.00000
1.39710	4867.00000
1.39750	4762.00000
1.39780	4846.00000
1.39820	4806.00000
1.39850	4803.00000
1.39890	4786.00000
1.39920	4717.00000
1.39960	4770.00000
1.39990	4638.00000
1.40030	4739.00000
1.40060	4722.00000
1.40100	4658.00000
1.40130	4784.00000
1.40160	4685.00000
1.40200	4753.00000
1.40230	4745.00000
1.40270	4729.00000
1.40300	4634.00000
1.40340	4727.00000
1.40370	4781.00000
1.40410	4737.00000
1.40440	4732.00000
1.40480	4765.00000
1.40510	4677.00000
1.40550	4669.00000
1.40580	4722.00000
1.40620	4840.00000
1.40650	4689.00000
1.40690	4721.00000
1.40720	4813.00000
1.40760	4780.00000
1.40790	4749.00000
1.40830	4665.00000
1.40860	4798.00000
1.40900	4704.00000
1.40930	4795.00000
1.40970	4789.00000
1.41000	4787.00000
1.41040	4691.00000
1.41070	4646.00000
1.41110	4777.00000
1.41140	4762.00000
1.41180	4658.00000
1.41210	4636.00000
1.41250	4712.00000
1.41280	4776.00000
1.41320	4803.00000
1.41350	4777.00000
1.41390	4739.00000
1.41420	4797.00000
1.41460	4903.00000
1.41490	4788.00000
1.41530	4865.00000
1.41560	4846.00000
1.41600	4897.00000
1.41630	4889.00000
1.41670	4980.00000
1.41700	4989.00000
1.41740	4924.00000
1.41770	4843.00000
1.41810	4973.00000
1.41840	4995.00000
1.41880	4894.00000
1.41910	4900.00000
1.41950	4880.00000
1.41980	4765.00000
1.42010	4868.00000
1.42050	4767.00000
1.42080	4767.00000
1.42120	4798.00000
1.42150	4792.00000
1.42190	4819.00000
1.42220	4700.00000
1.42260	4741.00000
1.42290	4719.00000
1.42330	4716.00000
1.42360	4710.00000
1.42400	4741.00000
1.42430	4755.00000
1.42470	4797.00000
1.42500	4873.00000
1.42540	4776.00000
1.42570	4751.00000
1.42610	4676.00000
1.42640	4722.00000
1.42680	4706.00000
1.42710	4782.00000
1.42750	4659.00000
1.42780	4700.00000
1.42820	4797.00000
1.42850	4717.00000
1.42890	4680.00000
1.42920	4723.00000
1.42960	4744.00000
1.42990	4764.00000
1.43030	4739.00000
1.43060	4806.00000
1.43100	4720.00000
1.43130	4679.00000
1.43170	4720.00000
1.43200	4738.00000
1.43240	4791.00000
1.43270	4761.00000
1.43310	4771.00000
1.43340	4752.00000
1.43380	4649.00000
1.43410	4731.00000
1.43450	4686.00000
1.43480	4690.00000
1.43520	4726.00000
1.43550	4671.00000
1.43590	4680.00000
1.43620	4689.00000
1.43660	4668.00000
1.43690	4680.00000
1.43730	4721.00000
1.43760	4794.00000
1.43800	4701.00000
1.43830	4762.00000
1.43870	4708.00000
1.43900	4724.00000
1.43930	4755.00000
1.43970	4644.00000
1.44000	4671.00000
1.44040	4694.00000
1.44070	4673.00000
1.44110	4670.00000
1.44140	4817.00000
1.44180	4737.00000
1.44210	4746.00000
1.44250	4684.00000
1.44280	4741.00000
1.44320	4855.00000
1.44350	4755.00000
1.44390	4754.00000
1.44420	4674.00000
1.44460	4783.00000
1.44490	4795.00000
1.44530	4818.00000
1.44560	4782.00000
1.44600	4721.00000
1.44630	4688.00000
1.44670	4823.00000
1.44700	4774.00000
1.44740	4773.00000
1.44770	4780.00000
1.44810	4866.00000
1.44840	4815.00000
1.44880	4750.00000
1.44910	4901.00000
1.44950	4872.00000
1.44980	4848.00000
1.45020	4969.00000
1.45050	4924.00000
1.45090	4919.00000
1.45120	4821.00000
1.45160	5011.00000
1.45190	5054.00000
1.45230	4957.00000
1.45260	4964.00000
1.45300	5066.00000
1.45330	5042.00000
1.45370	4965.00000
1.45400	4966.00000
1.45440	4883.00000
1.45470	4891.00000
1.45510	4960.00000
1.45540	5023.00000
1.45580	5031.00000
1.45610	4902.00000
1.45650	4892.00000
1.45680	4952.00000
1.45720	4983.00000
1.45750	5002.00000
1.45780	5012.00000
1.45820	4928.00000
1.45850	4925.00000
1.45890	5009.00000
1.45920	4984.00000
1.45960	4844.00000
1.45990	4832.00000
1.46030	4778.00000
1.46060	4875.00000
1.46100	4767.00000
1.46130	4798.00000
1.46170	4762.00000
1.46200	4770.00000
1.46240	4836.00000
1.46270	4748.00000
1.46310	4778.00000
1.46340	4877.00000
1.46380	4763.00000
1.46410	4770.00000
1.46450	4734.00000
1.46480	4752.00000
1.46520	4722.00000
1.46550	4687.00000
1.46590	4671.00000
1.46620	4654.00000
1.46660	4755.00000
1.46690	4755.00000
1.46730	4793.00000
1.46760	4766.00000
1.46800	4803.00000
1.46830	4777.00000
1.46870	4687.00000
1.46900	4787.00000
1.46940	4689.00000
1.46970	4697.00000
1.47010	4763.00000
1.47040	4700.00000
1.47080	4737.00000
1.47110	4780.00000
1.47150	4793.00000
1.47180	4798.00000
1.47220	4795.00000
1.47250	4749.00000
1.47290	4778.00000
1.47320	4820.00000
1.47360	4710.00000
1.47390	4672.00000
1.47430	4697.00000
1.47460	4823.00000
1.47500	4822.00000
1.47530	4732.00000
1.47570	4699.00000
1.47600	4715.00000
1.47630	4832.00000
1.47670	4704.00000
1.47700	4773.00000
1.47740	4770.00000
1.47770	4707.00000
1.47810	4711.00000
1.47840	4722.00000
1.47880	4751.00000
1.47910	4704.00000
1.47950	4776.00000
1.47980	4823.00000
1.48020	4711.00000
1.48050	4735.00000
1.48090	4730.00000
1.48120	4676.00000
1.48160	4753.00000
1.48190	4718.00000
1.48230	4744.00000
1.48260	4795.00000
1.48300	4759.00000
1.48330	4736.00000
1.48370	4683.00000
1.48400	4757.00000
1.48440	4772.00000
1.48470	4723.00000
1.48510	4795.00000
1.48540	4757.00000
1.48580	4695.00000
1.48610	4679.00000
1.48650	4758.00000
1.48680	4788.00000
1.48720	4698.00000
1.48750	4731.00000
1.48790	4775.00000
1.48820	4769.00000
1.48860	4688.00000
1.48890	4806.00000
1.48930	4870.00000
1.48960	4783.00000
1.49000	4712.00000
1.49030	4720.00000
1.49070	4793.00000
1.49100	4840.00000
1.49140	4865.00000
1.49170	4954.00000
1.49210	4928.00000
1.49240	4889.00000
1.49280	4857.00000
1.49310	4829.00000
1.49350	4925.00000
1.49380	4908.00000
1.49420	4891.00000
1.49450	4871.00000
1.49480	4819.00000
1.49520	4853.00000
1.49550	4872.00000
1.49590	4883.00000
1.49620	4792.00000
1.49660	4708.00000
1.49690	4773.00000
1.49730	4721.00000
1.49760	4764.00000
1.49800	4745.00000
1.49830	4656.00000
1.49870	4749.00000
1.49900	4725.00000
1.49940	4731.00000
1.49970	4787.00000
1.50010	4716.00000
1.50040	4731.00000
1.50080	4698.00000
1.50110	4702.00000
1.50150	4730.00000
1.50180	4776.00000
1.50220	4713.00000
1.50250	4664.00000
1.50290	4738.00000
1.50320	4743.00000
1.50360	4856.00000
1.50390	4750.00000
1.50430	4685.00000
1.50460	4727.00000
1.50500	4718.00000
1.50530	4682.00000
1.50570	4653.00000
1.50600	4768.00000
1.50640	4745.00000
1.50670	4721.00000
1.50710	4735.00000
1.50740	4748.00000
1.50780	4640.00000
1.50810	4655.00000
1.50850	4715.00000
1.50880	4727.00000
1.50920	4764.00000
1.50950	4783.00000
1.50990	4777.00000
1.51020	4804.00000
1.51060	4800.00000
1.51090	4848.00000
1.51130	4787.00000
1.51160	4826.00000
1.51200	4888.00000
1.51230	4779.00000
1.51270	4763.00000
1.51300	4839.00000
1.51340	4884.00000
1.51370	4970.00000
1.51400	4910.00000
1.51440	5014.00000
1.51470	5050.00000
1.51510	5020.00000
1.51540	5025.00000
1.51580	4897.00000
1.51610	4926.00000
1.51650	4888.00000
1.51680	4934.00000
1.51720	4891.00000
1.51750	4954.00000
1.51790	4803.00000
1.51820	4838.00000
1.51860	4854.00000
1.51890	4900.00000
1.51930	4721.00000
1.51960	4882.00000
1.52000	4805.00000
1.52030	4820.00000
1.52070	4826.00000
1.52100	4721.00000
1.52140	4641.00000
1.52170	4747.00000
1.52210	4789.00000
1.52240	4741.00000
1.52280	4768.00000
1.52310	4707.00000
1.52350	4777.00000
1.52380	4735.00000
1.52420	4680.00000
1.52450	4725.00000
1.52490	4685.00000
1.52520	4703.00000
1.52560	4676.00000
1.52590	4713.00000
1.52630	4675.00000
1.52660	4815.00000
1.52700	4746.00000
1.52730	4677.00000
1.52770	4789.00000
1.52800	4748.00000
1.52840	4744.00000
1.52870	4741.00000
1.52910	4760.00000
1.52940	4645.00000
1.52980	4681.00000
1.53010	4681.00000
1.53050	4635.00000
1.53080	4642.00000
1.53120	4712.00000
1.53150	4936.00000
1.53190	4826.00000
1.53220	4793.00000
1.53250	4846.00000
1.53290	4826.00000
1.53320	4749.00000
1.53360	4705.00000
1.53390	4761.00000
1.53430	4779.00000
1.53460	4715.00000
1.53500	4759.00000
1.53530	4803.00000
1.53570	4823.00000
1.53600	4728.00000
1.53640	4789.00000
1.53670	4746.00000
1.53710	4791.00000
1.53740	4793.00000
1.53780	4858.00000
1.53810	4864.00000
1.53850	4834.00000
1.53880	4934.00000
1.53920	4818.00000
1.53950	4966.00000
1.53990	5054.00000
1.54020	5074.00000
1.54060	4994.00000
1.54090	5078.00000
1.54130	5046.00000
1.54160	5048.00000
1.54200	5034.00000
1.54230	5015.00000
1.54270	4968.00000
1.54300	4953.00000
1.54340	4971.00000
1.54370	4991.00000
1.54410	4918.00000
1.54440	4883.00000
1.54480	4848.00000
1.54510	4949.00000
1.54550	4886.00000
1.54580	4889.00000
1.54620	4860.00000
1.54650	4940.00000
1.54690	4879.00000
1.54720	4829.00000
1.54760	4952.00000
1.54790	4867.00000
1.54830	4897.00000
1.54860	4815.00000
1.54900	4821.00000
1.54930	4836.00000
1.54970	4917.00000
1.55000	4834.00000
1.55040	4984.00000
1.55070	5002.00000
1.55100	5002.00000
1.55140	4907.00000
1.55170	4943.00000
1.55210	5021.00000
1.55240	4869.00000
1.55280	4959.00000
1.55310	4813.00000
1.55350	4847.00000
1.55380	4783.00000
1.55420	4818.00000
1.55450	4761.00000
1.55490	4686.00000
1.55520	4717.00000
1.55560	4714.00000
1.55590	4769.00000
1.55630	4685.00000
1.55660	4760.00000
1.55700	4756.00000
1.55730	4832.00000
1.55770	4772.00000
1.55800	4764.00000
1.55840	4697.00000
1.55870	4796.00000
1.55910	4742.00000
1.55940	4716.00000
1.55980	4742.00000
1.56010	4766.00000
1.56050	4660.00000
1.56080	4695.00000
1.56120	4671.00000
1.56150	4763.00000
1.56190	4798.00000
1.56220	4739.00000
1.56260	4774.00000
1.56290	4741.00000
1.56330	4708.00000
1.56360	4771.00000
1.56400	4702.00000
1.56430	4749.00000
1.56470	4781.00000
1.56500	4749.00000
1.56540	4847.00000
1.56570	4894.00000
1.56610	4837.00000
1.56640	4902.00000
1.56680	4859.00000
1.56710	4735.00000
1.56750	4705.00000
1.56780	4795.00000
1.56820	4956.00000
1.56850	4792.00000
1.56890	4931.00000
1.56920	4964.00000
1.56950	4857.00000
1.56990	4900.00000
1.57020	4834.00000
1.57060	4827.00000
1.57090	4785.00000
1.57130	4798.00000
1.57160	4757.00000
1.57200	4851.00000
1.57230	4793.00000
1.57270	4832.00000
1.57300	4838.00000
1.57340	4803.00000
1.57370	4755.00000
1.57410	4824.00000
1.57440	4785.00000
1.57480	4747.00000
1.57510	4756.00000
1.57550	4670.00000
1.57580	4740.00000
1.57620	4741.00000
1.57650	4778.00000
1.57690	4780.00000
1.57720	4747.00000
1.57760	4658.00000
1.57790	4621.00000
1.57830	4744.00000
1.57860	4674.00000
1.57900	4711.00000
1.57930	4725.00000
1.57970	4722.00000
1.58000	4759.00000
1.58040	4849.00000
1.58070	4798.00000
1.58110	4779.00000
1.58140	4716.00000
1.58180	4765.00000
1.58210	4714.00000
1.58250	4715.00000
1.58280	4796.00000
1.58320	4782.00000
1.58350	4713.00000
1.58390	4722.00000
1.58420	4705.00000
1.58460	4747.00000
1.58490	4740.00000
1.58530	4724.00000
1.58560	4766.00000
1.58600	4781.00000
1.58630	4710.00000
1.58670	4786.00000
1.58700	4669.00000
1.58740	4699.00000
1.58770	4693.00000
1.58810	4669.00000
1.58840	4680.00000
1.58870	4724.00000
1.58910	4714.00000
1.58940	4713.00000
1.58980	4737.00000
1.59010	4689.00000
1.59050	4656.00000
1.59080	4761.00000
1.59120	4720.00000
1.59150	4845.00000
1.59190	4736.00000
1.59220	4745.00000
1.59260	4772.00000
1.59290	4695.00000
1.59330	4677.00000
1.59360	4708.00000
1.59400	4764.00000
1.59430	4837.00000
1.59470	4782.00000
1.59500	4769.00000
1.59540	4725.00000
1.59570	4728.00000
1.59610	4726.00000
1.59640	4713.00000
1.59680	4692.00000
1.59710	4706.00000
1.59750	4698.00000
1.59780	4598.00000
1.59820	4640.00000
1.59850	4722.00000
1.59890	4731.00000
1.59920	4811.00000
1.59960	4699.00000
1.59990	4677.00000
1.60030	4797.00000
1.60060	4738.00000
1.60100	4736.00000
1.60130	4718.00000
1.60170	4666.00000
1.60200	4622.00000
1.60240	4762.00000
1.60270	4748.00000
1.60310	4713.00000
1.60340	4787.00000
1.60380	4727.00000
1.60410	4718.00000
1.60450	4725.00000
1.60480	4673.00000
1.60520	4737.00000
1.60550	4813.00000
1.60590	4769.00000
1.60620	4729.00000
1.60660	4753.00000
1.60690	4787.00000
1.60720	4769.00000
1.60760	4718.00000
1.60790	4646.00000
1.60830	4720.00000
1.60860	4705.00000
1.60900	4724.00000
1.60930	4768.00000
1.60970	4771.00000
1.61000	4700.00000
1.61040	4695.00000
1.61070	4659.00000
1.61110	4710.00000
1.61140	4700.00000
1.61180	4651.00000
1.61210	4718.00000
1.61250	4708.00000
1.61280	4675.00000
1.61320	4652.00000
1.61350	4628.00000
1.61390	4689.00000
1.61420	4707.00000
1.61460	4695.00000
1.61490	4755.00000
1.61530	4743.00000
1.61560	4760.00000
1.61600	4742.00000
1.61630	4736.00000
1.61670	4695.00000
1.61700	4754.00000
1.61740	4668.00000
1.61770	4671.00000
1.61810	4802.00000
1.61840	4630.00000
1.61880	4664.00000
1.61910	4708.00000
1.61950	4678.00000
1.61980	4680.00000
1.62020	4747.00000
1.62050	4696.00000
1.62090	4721.00000
1.62120	4744.00000
1.62160	4804.00000
1.62190	4717.00000
1.62230	4767.00000
1.62260	4755.00000
1.62300	4818.00000
1.62330	4712.00000
1.62370	4753.00000
1.62400	4737.00000
1.62440	4841.00000
1.62470	4819.00000
1.62510	4758.00000
1.62540	4798.00000
1.62570	4752.00000
1.62610	4812.00000
1.62640	4830.00000
1.62680	4858.00000
1.62710	4882.00000
1.62750	4772.00000
1.62780	4736.00000
1.62820	4799.00000
1.62850	4786.00000
1.62890	4852.00000
1.62920	4756.00000
1.62960	4732.00000
1.62990	4750.00000
1.63030	4683.00000
1.63060	4737.00000
1.63100	4741.00000
1.63130	4773.00000
1.63170	4780.00000
1.63200	4740.00000
1.63240	4707.00000
1.63270	4768.00000
1.63310	4711.00000
1.63340	4732.00000
1.63380	4760.00000
1.63410	4650.00000
1.63450	4713.00000
1.63480	4729.00000
1.63520	4831.00000
1.63550	4742.00000
1.63590	4740.00000
1.63620	4765.00000
1.63660	4723.00000
1.63690	4751.00000
1.63730	4820.00000
1.63760	4765.00000
1.63800	4762.00000
1.63830	4799.00000
1.63870	4784.00000
1.63900	4693.00000
1.63940	4806.00000
1.63970	4777.00000
1.64010	4729.00000
1.64040	4726.00000
1.64080	4698.00000
1.64110	4745.00000
1.64150	4755.00000
1.64180	4792.00000
1.64220	4768.00000
1.64250	4726.00000
1.64290	4691.00000
1.64320	4754.00000
1.64360	4758.00000
1.64390	4759.00000
1.64420	4696.00000
1.64460	4683.00000
1.64490	4805.00000
1.64530	4812.00000
1.64560	4675.00000
1.64600	4780.00000
1.64630	4772.00000
1.64670	4753.00000
1.64700	4746.00000
1.64740	4853.00000
1.64770	4883.00000
1.64810	4897.00000
1.64840	4862.00000
1.64880	4837.00000
1.64910	4870.00000
1.64950	4992.00000
1.64980	4947.00000
1.65020	4888.00000
1.65050	4859.00000
1.65090	4924.00000
1.65120	4881.00000
1.65160	5014.00000
1.65190	4918.00000
1.65230	4900.00000
1.65260	4815.00000
1.65300	4764.00000
1.65330	4801.00000
1.65370	4748.00000
1.65400	4854.00000
1.65440	4776.00000
1.65470	4841.00000
1.65510	4843.00000
1.65540	4821.00000
1.65580	4817.00000
1.65610	4853.00000
1.65650	4839.00000
1.65680	4838.00000
1.65720	4782.00000
1.65750	4732.00000
1.65790	4788.00000
1.65820	4834.00000
1.65860	4764.00000
1.65890	4811.00000
1.65930	4818.00000
1.65960	4827.00000
1.66000	4823.00000
1.66030	4904.00000
1.66070	4826.00000
1.66100	4833.00000
1.66140	4881.00000
1.66170	4816.00000
1.66210	4854.00000
1.66240	4894.00000
1.66280	4984.00000
1.66310	5026.00000
1.66340	5036.00000
1.66380	4967.00000
1.66410	5033.00000
1.66450	4994.00000
1.66480	5003.00000
1.66520	5049.00000
1.66550	5147.00000
1.66590	5122.00000
1.66620	5156.00000
1.66660	5043.00000
1.66690	4974.00000
1.66730	5104.00000
1.66760	5028.00000
1.66800	5018.00000
1.66830	5039.00000
1.66870	4921.00000
1.66900	4956.00000
1.66940	4846.00000
1.66970	4814.00000
1.67010	4841.00000
1.67040	4849.00000
1.67080	4751.00000
1.67110	4824.00000
1.67150	4798.00000
1.67180	4807.00000
1.67220	4853.00000
1.67250	4867.00000
1.67290	4842.00000
1.67320	4768.00000
1.67360	4751.00000
1.67390	4729.00000
1.67430	4717.00000
1.67460	4753.00000
1.67500	4773.00000
1.67530	4796.00000
1.67570	4707.00000
1.67600	4753.00000
1.67640	4727.00000
1.67670	4696.00000
1.67710	4789.00000
1.67740	4766.00000
1.67780	4715.00000
1.67810	4772.00000
1.67850	4814.00000
1.67880	4871.00000
1.67920	4735.00000
1.67950	4822.00000
1.67990	4737.00000
1.68020	4871.00000
1.68060	4914.00000
1.68090	4857.00000
1.68130	4852.00000
1.68160	4897.00000
1.68190	4912.00000
1.68230	4988.00000
1.68260	4973.00000
1.68300	5045.00000
1.68330	4981.00000
1.68370	5036.00000
1.68400	5139.00000
1.68440	5175.00000
1.68470	5097.00000
1.68510	5193.00000
1.68540	5195.00000
1.68580	5291.00000
1.68610	5301.00000
1.68650	5337.00000
1.68680	5329.00000
1.68720	5422.00000
1.68750	5434.00000
1.68790	5357.00000
1.68820	5388.00000
1.68860	5522.00000
1.68890	5483.00000
1.68930	5483.00000
1.68960	5491.00000
1.69000	5606.00000
1.69030	5361.00000
1.69070	5342.00000
1.69100	5364.00000
1.69140	5340.00000
1.69170	5187.00000
1.69210	5228.00000
1.69240	5196.00000
1.69280	5074.00000
1.69310	5128.00000
1.69350	5123.00000
1.69380	5128.00000
1.69420	5042.00000
1.69450	5004.00000
1.69490	4940.00000
1.69520	4954.00000
1.69560	4945.00000
1.69590	5014.00000
1.69630	5066.00000
1.69660	4967.00000
1.69700	4924.00000
1.69730	5039.00000
1.69770	5030.00000
1.69800	4985.00000
1.69840	5126.00000
1.69870	5165.00000
1.69910	5198.00000
1.69940	5109.00000
1.69980	5156.00000
1.70010	5225.00000
1.70040	5262.00000
1.70080	5207.00000
1.70110	5303.00000
1.70150	5291.00000
1.70180	5211.00000
1.70220	5199.00000
1.70250	5127.00000
1.70290	5164.00000
1.70320	5085.00000
1.70360	5123.00000
1.70390	5087.00000
1.70430	5044.00000
1.70460	5063.00000
1.70500	4999.00000
1.70530	4882.00000
1.70570	4921.00000
1.70600	4902.00000
1.70640	4823.00000
1.70670	4923.00000
1.70710	4847.00000
1.70740	4812.00000
1.70780	4774.00000
1.70810	4731.00000
1.70850	4795.00000
1.70880	4957.00000
1.70920	4732.00000
1.70950	4803.00000
1.70990	4811.00000
1.71020	4820.00000
1.71060	4720.00000
1.71090	4675.00000
1.71130	4729.00000
1.71160	4753.00000
1.71200	4812.00000
1.71230	4799.00000
1.71270	4806.00000
1.71300	4756.00000
1.71340	4679.00000
1.71370	4794.00000
1.71410	4717.00000
1.71440	4746.00000
1.71480	4715.00000
1.71510	4850.00000
1.71550	4844.00000
1.71580	4762.00000
1.71620	4734.00000
1.71650	4709.00000
1.71690	4788.00000
1.71720	4811.00000
1.71760	4693.00000
1.71790	4692.00000
1.71830	4827.00000
1.71860	4743.00000
1.71890	4795.00000
1.71930	4895.00000
1.71960	4784.00000
1.72000	4789.00000
1.72030	4803.00000
1.72070	4857.00000
1.72100	4757.00000
1.72140	4895.00000
1.72170	4812.00000
1.72210	4880.00000
1.72240	4888.00000
1.72280	4895.00000
1.72310	4837.00000
1.72350	4940.00000
1.72380	4942.00000
1.72420	4896.00000
1.72450	4884.00000
1.72490	4796.00000
1.72520	4934.00000
1.72560	4889.00000
1.72590	4833.00000
1.72630	4873.00000
1.72660	4852.00000
1.72700	4740.00000
1.72730	4725.00000
1.72770	4801.00000
1.72800	4810.00000
1.72840	4643.00000
1.72870	4725.00000
1.72910	4799.00000
1.72940	4765.00000
1.72980	4839.00000
1.73010	4789.00000
1.73050	4795.00000
1.73080	4780.00000
1.73120	4747.00000
1.73150	4721.00000
1.73190	4761.00000
1.73220	4668.00000
1.73260	4668.00000
1.73290	4728.00000
1.73330	4769.00000
1.73360	4725.00000
1.73400	4664.00000
1.73430	4705.00000
1.73470	4759.00000
1.73500	4696.00000
1.73540	4800.00000
1.73570	4739.00000
1.73610	4703.00000
1.73640	4727.00000
1.73680	4772.00000
1.73710	4781.00000
1.73750	4768.00000
1.73780	4675.00000
1.73810	4789.00000
1.73850	4719.00000
1.73880	4705.00000
1.73920	4606.00000
1.73950	4689.00000
1.73990	4772.00000
1.74020	4693.00000
1.74060	4707.00000
1.74090	4689.00000
1.74130	4642.00000
1.74160	4733.00000
1.74200	4693.00000
1.74230	4800.00000
1.74270	4703.00000
1.74300	4637.00000
1.74340	4739.00000
1.74370	4725.00000
1.74410	4648.00000
1.74440	4732.00000
1.74480	4685.00000
1.74510	4666.00000
1.74550	4653.00000
1.74580	4704.00000
1.74620	4774.00000
1.74650	4748.00000
1.74690	4705.00000
1.74720	4730.00000
1.74760	4715.00000
1.74790	4677.00000
1.74830	4692.00000
1.74860	4655.00000
1.74900	4755.00000
1.74930	4728.00000
1.74970	4716.00000
1.75000	4655.00000
1.75040	4658.00000
1.75070	4738.00000
1.75110	4760.00000
1.75140	4731.00000
1.75180	4727.00000
1.75210	4691.00000
1.75250	4722.00000
1.75280	4687.00000
1.75320	4699.00000
1.75350	4667.00000
1.75390	4720.00000
1.75420	4682.00000
1.75460	4669.00000
1.75490	4705.00000
1.75530	4743.00000
1.75560	4721.00000
1.75600	4698.00000
1.75630	4696.00000
1.75660	4787.00000
1.75700	4708.00000
1.75730	4651.00000
1.75770	4739.00000
1.75800	4685.00000
1.75840	4698.00000
1.75870	4722.00000
1.75910	4691.00000
1.75940	4691.00000
1.75980	4674.00000
1.76010	4726.00000
1.76050	4740.00000
1.76080	4673.00000
1.76120	4692.00000
1.76150	4778.00000
1.76190	4719.00000
1.76220	4731.00000
1.76260	4768.00000
1.76290	4741.00000
1.76330	4757.00000
1.76360	4762.00000
1.76400	4742.00000
1.76430	4745.00000
1.76470	4818.00000
1.76500	4804.00000
1.76540	4811.00000
1.76570	4692.00000
1.76610	4724.00000
1.76640	4783.00000
1.76680	4718.00000
1.76710	4807.00000
1.76750	4796.00000
1.76780	4760.00000
1.76820	4722.00000
1.76850	4758.00000
1.76890	4820.00000
1.76920	4737.00000
1.76960	4721.00000
1.76990	4796.00000
1.77030	4748.00000
1.77060	4723.00000
1.77100	4735.00000
1.77130	4712.00000
1.77170	4788.00000
1.77200	4748.00000
1.77240	4786.00000
1.77270	4737.00000
1.77310	4658.00000
1.77340	4645.00000
1.77380	4723.00000
1.77410	4700.00000
1.77450	4735.00000
1.77480	4740.00000
1.77510	4628.00000
1.77550	4653.00000
1.77580	4731.00000
1.77620	4780.00000
1.77650	4749.00000
1.77690	4630.00000
1.77720	4698.00000
