1.00840	2178.00000
1.02511	2199.00000
1.04182	2287.00000
1.05853	2293.00000
1.07524	2277.00000
1.09195	2437.00000
1.10867	2592.00000
1.12538	2504.00000
1.14209	2591.00000
1.15880	2687.00000
1.17551	2772.00000
1.19222	2810.00000
1.20893	2930.00000
1.22564	2815.00000
1.24235	2848.00000
1.25906	2814.00000
1.27578	2948.00000
1.29249	3000.00000
1.30920	2941.00000
1.32591	2907.00000
1.34262	2988.00000
1.35933	2929.00000
1.37604	2864.00000
1.39275	2956.00000
1.40946	2995.00000
1.42617	2828.00000
1.44289	2889.00000
1.45960	2801.00000
1.47631	2955.00000
1.49302	2825.00000
1.50973	2817.00000
1.52644	2922.00000
1.54315	2836.00000
1.55986	2748.00000
1.57657	2807.00000
1.59328	2846.00000
1.61000	2807.00000
1.62671	2891.00000
1.64342	2913.00000
1.66013	2805.00000
1.67684	2820.00000
1.69355	2883.00000
1.71026	2747.00000
1.72697	2791.00000
1.74368	2781.00000
1.76039	2775.00000
1.77711	2753.00000
1.79382	2735.00000
1.81053	2762.00000
1.82724	2681.00000
1.84395	2731.00000
1.86066	2821.00000
1.87737	2804.00000
1.89408	2770.00000
1.91079	2755.00000
1.92750	2762.00000
1.94422	2844.00000
1.96093	2731.00000
1.97764	2669.00000
1.99435	2839.00000
2.01106	2772.00000
2.02777	2836.00000
2.04448	2794.00000
2.06119	2860.00000
2.07790	2741.00000
2.09461	2865.00000
2.11133	2673.00000
2.12804	2767.00000
2.14475	2725.00000
2.16146	2761.00000
2.17817	2736.00000
2.19488	2806.00000
2.21159	2787.00000
2.22830	2770.00000
2.24501	2815.00000
2.26172	2784.00000
2.27844	2692.00000
2.29515	2774.00000
2.31186	2758.00000
2.32857	2813.00000
2.34528	2771.00000
2.36199	2705.00000
2.37870	2783.00000
2.39541	2721.00000
2.41212	2801.00000
2.42883	2771.00000
2.44555	2771.00000
2.46226	2741.00000
2.47897	2737.00000
2.49568	2759.00000
2.51239	2770.00000
2.52910	2794.00000
2.54581	2720.00000
2.56252	2846.00000
2.57923	2790.00000
2.59594	2720.00000
2.61266	2726.00000
2.62937	2877.00000
2.64608	2902.00000
2.66279	2786.00000
2.67950	2891.00000
2.69621	2759.00000
2.71292	2852.00000
2.72963	2906.00000
2.74634	2741.00000
2.76305	2847.00000
2.77977	2921.00000
2.79648	2890.00000
2.81319	3015.00000
2.82990	3050.00000
2.84661	2904.00000
2.86332	3061.00000
2.88003	3064.00000
2.89674	3058.00000
2.91345	3102.00000
2.93016	3096.00000
2.94688	3167.00000
2.96359	3332.00000
2.98030	3317.00000
2.99701	3279.00000
3.01372	3457.00000
3.03043	3485.00000
3.04714	3439.00000
3.06385	3645.00000
3.08056	3769.00000
3.09727	3825.00000
3.11399	3982.00000
3.13070	4164.00000
3.14741	4134.00000
3.16412	4384.00000
3.18083	4606.00000
3.19754	4741.00000
3.21425	5116.00000
3.23096	5327.00000
3.24767	5625.00000
3.26438	5967.00000
3.28110	6279.00000
3.29781	6640.00000
3.31452	7169.00000
3.33123	7812.00000
3.34794	8585.00000
3.36465	9323.00000
3.38136	10104.00000
3.39807	11368.00000
3.41478	12593.00000
3.43149	13976.00000
3.44821	15572.00000
3.46492	17955.00000
3.48163	20738.00000
3.49834	24969.00000
3.51505	30994.00000
3.53176	42392.00000
3.54847	52523.00000
3.56518	43221.00000
3.58189	27181.00000
3.59860	13237.00000
3.61532	6006.00000
3.63203	4358.00000
3.64874	3822.00000
3.66545	3660.00000
3.68216	3488.00000
3.69887	3415.00000
3.71558	3496.00000
3.73229	3340.00000
3.74900	3471.00000
3.76571	3559.00000
3.78243	3813.00000
3.79914	3901.00000
3.81585	4187.00000
3.83256	4483.00000
3.84927	4225.00000
3.86598	3797.00000
3.88269	3365.00000
3.89940	2957.00000
3.91611	2928.00000
3.93282	2755.00000
3.94954	2781.00000
3.96625	2798.00000
3.98296	2754.00000
3.99967	2784.00000
4.01638	2797.00000
4.03309	2663.00000
4.04980	2763.00000
4.06651	2696.00000
4.08322	2717.00000
4.09993	2767.00000
4.11665	2813.00000
4.13336	2742.00000
4.15007	2803.00000
4.16678	2828.00000
4.18349	2741.00000
4.20020	2833.00000
4.21691	2732.00000
4.23362	2802.00000
4.25033	2705.00000
4.26704	2791.00000
4.28376	2635.00000
4.30047	2681.00000
4.31718	2841.00000
4.33389	2624.00000
4.35060	2744.00000
4.36731	2758.00000
4.38402	2702.00000
4.40073	2701.00000
4.41744	2761.00000
4.43415	2615.00000
4.45087	2742.00000
4.46758	2750.00000
4.48429	2777.00000
4.50100	2705.00000
4.51771	2787.00000
4.53442	2731.00000
4.55113	2740.00000
4.56784	2656.00000
4.58455	2782.00000
4.60126	2621.00000
4.61798	2642.00000
4.63469	2718.00000
4.65140	2703.00000
4.66811	2746.00000
4.68482	2715.00000
4.70153	2715.00000
4.71824	2707.00000
4.73495	2775.00000
4.75166	2746.00000
4.76837	2719.00000
4.78509	2668.00000
4.80180	2777.00000
4.81851	2695.00000
4.83522	2770.00000
4.85193	2812.00000
4.86864	2772.00000
4.88535	2758.00000
4.90206	2757.00000
4.91877	2742.00000
4.93548	2738.00000
4.95220	2724.00000
4.96891	2673.00000
4.98562	2735.00000
5.00233	2737.00000
5.01904	2730.00000
5.03575	2726.00000
5.05246	2769.00000
5.06917	2777.00000
5.08588	2696.00000
5.10259	2755.00000
5.11931	2714.00000
5.13602	2688.00000
5.15273	2803.00000
5.16944	2675.00000
5.18615	2745.00000
5.20286	2718.00000
5.21957	2681.00000
5.23628	2728.00000
5.25299	2779.00000
5.26970	2643.00000
5.28642	2684.00000
5.30313	2735.00000
5.31984	2701.00000
5.33655	2738.00000
5.35326	2719.00000
5.36997	2557.00000
5.38668	2744.00000
5.40339	2699.00000
5.42010	2682.00000
5.43681	2751.00000
5.45353	2733.00000
5.47024	2684.00000
5.48695	2719.00000
5.50366	2671.00000
5.52037	2744.00000
5.53708	2674.00000
5.55379	2657.00000
5.57050	2738.00000
5.58721	2752.00000
5.60392	2704.00000
5.62064	2718.00000
5.63735	2681.00000
5.65406	2653.00000
5.67077	2726.00000
5.68748	2712.00000
5.70419	2714.00000
5.72090	2569.00000
5.73761	2726.00000
5.75432	2778.00000
5.77103	2671.00000
5.78775	2695.00000
5.80446	2767.00000
5.82117	2671.00000
5.83788	2656.00000
5.85459	2751.00000
5.87130	2784.00000
5.88801	2714.00000
5.90472	2829.00000
5.92143	2696.00000
5.93814	2619.00000
5.95486	2729.00000
5.97157	2730.00000
5.98828	2752.00000
6.00499	2695.00000
6.02170	2768.00000
6.03841	2770.00000
6.05512	2765.00000
6.07183	2706.00000
6.08854	2782.00000
6.10525	2753.00000
6.12197	2651.00000
6.13868	2715.00000
6.15539	2807.00000
6.17210	2728.00000
6.18881	2719.00000
6.20552	2688.00000
6.22223	2772.00000
6.23894	2800.00000
6.25565	2810.00000
6.27236	2745.00000
6.28908	2769.00000
6.30579	2838.00000
6.32250	2889.00000
6.33921	3085.00000
6.35592	2956.00000
6.37263	2903.00000
6.38934	2905.00000
6.40605	2876.00000
6.42276	2808.00000
6.43947	2849.00000
6.45619	2845.00000
6.47290	3001.00000
6.48961	3046.00000
6.50632	2961.00000
6.52303	2889.00000
6.53974	2989.00000
6.55645	2992.00000
6.57316	2816.00000
6.58987	2909.00000
6.60658	2926.00000
6.62330	2888.00000
6.64001	2893.00000
6.65672	2989.00000
6.67343	3091.00000
6.69014	3175.00000
6.70685	3179.00000
6.72356	3659.00000
6.74027	3524.00000
6.75698	3302.00000
6.77369	3246.00000
6.79041	3042.00000
6.80712	2922.00000
6.82383	2784.00000
6.84054	2852.00000
6.85725	2763.00000
6.87396	2803.00000
6.89067	2848.00000
6.90738	2888.00000
6.92409	2835.00000
6.94080	2806.00000
6.95752	2747.00000
6.97423	2831.00000
6.99094	2855.00000
7.00765	2890.00000
7.02436	2885.00000
7.04107	2828.00000
7.05778	2921.00000
7.07449	3048.00000
7.09120	3042.00000
7.10791	3194.00000
7.12463	3251.00000
7.14134	3227.00000
7.15805	3439.00000
7.17476	3733.00000
7.19147	3666.00000
7.20818	3509.00000
7.22489	3223.00000
7.24160	3157.00000
7.25831	2959.00000
7.27502	2851.00000
7.29174	2931.00000
7.30845	2965.00000
7.32516	2851.00000
7.34187	2870.00000
7.35858	2829.00000
7.37529	2713.00000
7.39200	2821.00000
7.40871	2774.00000
7.42542	2847.00000
7.44213	2818.00000
7.45885	2840.00000
7.47556	2899.00000
7.49227	2862.00000
7.50898	2865.00000
7.52569	2761.00000
7.54240	2954.00000
7.55911	2881.00000
7.57582	2823.00000
7.59253	2834.00000
7.60924	2847.00000
7.62596	2907.00000
7.64267	2839.00000
7.65938	2807.00000
7.67609	2981.00000
7.69280	2982.00000
7.70951	3025.00000
7.72622	2990.00000
7.74293	3126.00000
7.75964	3095.00000
7.77635	3155.00000
7.79307	3046.00000
7.80978	3001.00000
7.82649	3009.00000
7.84320	3042.00000
7.85991	2926.00000
7.87662	2874.00000
7.89333	2901.00000
7.91004	2862.00000
7.92675	3015.00000
7.94346	2881.00000
7.96018	2918.00000
7.97689	2967.00000
7.99360	2983.00000
8.01031	2801.00000
8.02702	2898.00000
8.04373	2930.00000
8.06044	2966.00000
8.07715	2945.00000
8.09386	3029.00000
8.11057	2890.00000
8.12729	3020.00000
8.14400	2915.00000
8.16071	3073.00000
8.17742	3146.00000
8.19413	3240.00000
8.21084	3201.00000
8.22755	3145.00000
8.24426	3149.00000
8.26097	3129.00000
8.27768	3115.00000
8.29440	2965.00000
8.31111	2791.00000
8.32782	3004.00000
8.34453	2961.00000
8.36124	3073.00000
8.37795	2930.00000
8.39466	2943.00000
8.41137	2998.00000
8.42808	2993.00000
8.44479	3098.00000
8.46151	3051.00000
8.47822	2984.00000
8.49493	3158.00000
8.51164	2988.00000
8.52835	3125.00000
8.54506	3229.00000
8.56177	3286.00000
8.57848	3403.00000
8.59519	3457.00000
8.61190	3465.00000
8.62862	3630.00000
8.64533	3869.00000
8.66204	4206.00000
8.67875	4724.00000
8.69546	5521.00000
8.71217	5934.00000
8.72888	5183.00000
8.74559	4747.00000
8.76230	4465.00000
8.77901	4199.00000
8.79573	3651.00000
8.81244	3424.00000
8.82915	3527.00000
8.84586	3525.00000
8.86257	3589.00000
8.87928	3806.00000
8.89599	3654.00000
8.91270	3657.00000
8.92941	3564.00000
8.94612	3406.00000
8.96284	3519.00000
8.97955	3386.00000
8.99626	3451.00000
9.01297	3427.00000
9.02968	3518.00000
9.04639	3585.00000
9.06310	3655.00000
9.07981	3765.00000
9.09652	3938.00000
9.11323	4203.00000
9.12995	4571.00000
9.14666	5192.00000
9.16337	6048.00000
9.18008	7345.00000
9.19679	7565.00000
9.21350	6395.00000
9.23021	5444.00000
9.24692	5457.00000
9.26363	5350.00000
9.28034	4696.00000
9.29706	4293.00000
9.31377	3799.00000
9.33048	3738.00000
9.34719	3742.00000
9.36390	3644.00000
9.38061	3657.00000
9.39732	3584.00000
9.41403	3584.00000
9.43074	3857.00000
9.44745	4034.00000
9.46417	4295.00000
9.48088	4225.00000
9.49759	3968.00000
9.51430	3805.00000
9.53101	3897.00000
9.54772	3778.00000
9.56443	3596.00000
9.58114	3398.00000
9.59785	3416.00000
9.61456	3375.00000
9.63128	3455.00000
9.64799	3397.00000
9.66470	3500.00000
9.68141	3563.00000
9.69812	3648.00000
9.71483	3656.00000
9.73154	3946.00000
9.74825	3893.00000
9.76496	4126.00000
9.78167	4541.00000
9.79839	5153.00000
9.81510	6091.00000
9.83181	6298.00000
9.84852	5658.00000
9.86523	5375.00000
9.88194	5576.00000
9.89865	5931.00000
9.91536	5901.00000
9.93207	6156.00000
9.94878	7271.00000
9.96550	8964.00000
9.98221	10403.00000
9.99892	9194.00000
10.01563	6846.00000
10.03234	6347.00000
10.04905	6564.00000
10.06576	5705.00000
10.08247	4288.00000
10.09918	3837.00000
10.11589	3580.00000
10.13261	3498.00000
10.14932	3578.00000
10.16603	3541.00000
10.18274	3420.00000
10.19945	3333.00000
10.21616	3435.00000
10.23287	3366.00000
10.24958	3386.00000
10.26629	3588.00000
10.28300	3481.00000
10.29972	3684.00000
10.31643	3530.00000
10.33314	3662.00000
10.34985	3572.00000
10.36656	3542.00000
10.38327	3591.00000
10.39998	3494.00000
10.41669	3576.00000
10.43340	3557.00000
10.45011	3444.00000
10.46683	3524.00000
10.48354	3529.00000
10.50025	3649.00000
10.51696	3881.00000
10.53367	3881.00000
10.55038	4099.00000
10.56709	4323.00000
10.58380	4802.00000
10.60051	5328.00000
10.61722	5836.00000
10.63394	7120.00000
10.65065	8977.00000
10.66736	11992.00000
10.68407	14504.00000
10.70078	15711.00000
10.71749	16929.00000
10.73420	17267.00000
10.75091	14308.00000
10.76762	10969.00000
10.78433	9932.00000
10.80105	9497.00000
10.81776	7994.00000
10.83447	6415.00000
10.85118	5748.00000
10.86789	6444.00000
10.88460	7262.00000
10.90131	7632.00000
10.91802	8190.00000
10.93473	8220.00000
10.95144	7067.00000
10.96816	6481.00000
10.98487	6449.00000
11.00158	6238.00000
11.01829	5552.00000
11.03500	4754.00000
11.05171	4371.00000
11.06842	4012.00000
11.08513	3779.00000
11.10184	3738.00000
11.11855	3637.00000
11.13527	3563.00000
11.15198	3372.00000
11.16869	3225.00000
11.18540	3264.00000
11.20211	3243.00000
11.21882	3284.00000
11.23553	3330.00000
11.25224	3265.00000
11.26895	3238.00000
11.28566	3179.00000
11.30238	3082.00000
11.31909	3151.00000
11.33580	3113.00000
11.35251	3229.00000
11.36922	3212.00000
11.38593	3063.00000
11.40264	3132.00000
11.41935	3133.00000
11.43606	3183.00000
11.45277	3205.00000
11.46949	3284.00000
11.48620	3353.00000
11.50291	3435.00000
11.51962	3410.00000
11.53633	3290.00000
11.55304	3431.00000
11.56975	3372.00000
11.58646	3306.00000
11.60317	3273.00000
11.61988	3276.00000
11.63660	3214.00000
11.65331	3133.00000
11.67002	3201.00000
11.68673	3070.00000
11.70344	3143.00000
11.72015	3119.00000
11.73686	3176.00000
11.75357	3192.00000
11.77028	3291.00000
11.78699	3367.00000
11.80371	3518.00000
11.82042	3844.00000
11.83713	3676.00000
11.85384	3574.00000
11.87055	3482.00000
11.88726	3617.00000
11.90397	3721.00000
11.92068	3831.00000
11.93739	3823.00000
11.95410	4038.00000
11.97082	4536.00000
11.98753	5029.00000
12.00424	6278.00000
12.02095	7610.00000
12.03766	10180.00000
12.05437	12322.00000
12.07108	11257.00000
12.08779	8409.00000
12.10450	6882.00000
12.12121	7069.00000
12.13793	7447.00000
12.15464	6481.00000
12.17135	4761.00000
12.18806	3622.00000
12.20477	3390.00000
12.22148	3254.00000
12.23819	3297.00000
12.25490	3240.00000
12.27161	3144.00000
12.28832	3269.00000
12.30504	3182.00000
12.32175	3147.00000
12.33846	3172.00000
12.35517	3308.00000
12.37188	3358.00000
12.38859	3417.00000
12.40530	3314.00000
12.42201	3251.00000
12.43872	3114.00000
12.45543	3209.00000
12.47215	3204.00000
12.48886	3354.00000
12.50557	3369.00000
12.52228	3328.00000
12.53899	3353.00000
12.55570	3476.00000
12.57241	3736.00000
12.58912	3953.00000
12.60583	4377.00000
12.62254	4591.00000
12.63926	4141.00000
12.65597	3899.00000
12.67268	3953.00000
12.68939	4152.00000
12.70610	4509.00000
12.72281	4281.00000
12.73952	3766.00000
12.75623	3378.00000
12.77294	3444.00000
12.78965	3521.00000
12.80637	3481.00000
12.82308	3334.00000
12.83979	3213.00000
12.85650	3324.00000
12.87321	3345.00000
12.88992	3365.00000
12.90663	3538.00000
12.92334	3739.00000
12.94005	4150.00000
12.95676	4645.00000
12.97348	5708.00000
12.99019	6888.00000
13.00690	8531.00000
13.02361	8692.00000
13.04032	7525.00000
13.05703	6707.00000
13.07374	6805.00000
13.09045	7396.00000
13.10716	6720.00000
13.12387	5493.00000
13.14059	4550.00000
13.15730	4240.00000
13.17401	4069.00000
13.19072	3862.00000
13.20743	3439.00000
13.22414	3226.00000
13.24085	3112.00000
13.25756	3040.00000
13.27427	3253.00000
13.29098	3209.00000
13.30770	3111.00000
13.32441	3318.00000
13.34112	3195.00000
13.35783	3279.00000
13.37454	3281.00000
13.39125	3583.00000
13.40796	3783.00000
13.42467	3974.00000
13.44138	4403.00000
13.45809	4948.00000
13.47481	6126.00000
13.49152	7579.00000
13.50823	7880.00000
13.52494	6675.00000
13.54165	5113.00000
13.55836	4876.00000
13.57507	5405.00000
13.59178	5576.00000
13.60849	5124.00000
13.62520	4221.00000
13.64192	3778.00000
13.65863	3625.00000
13.67534	3770.00000
13.69205	4227.00000
13.70876	4485.00000
13.72547	5060.00000
13.74218	6165.00000
13.75889	7274.00000
13.77560	7796.00000
13.79231	6666.00000
13.80903	5360.00000
13.82574	5004.00000
13.84245	5282.00000
13.85916	5379.00000
13.87587	5082.00000
13.89258	4359.00000
13.90929	4014.00000
13.92600	3963.00000
13.94271	4306.00000
13.95942	4696.00000
13.97614	4822.00000
13.99285	5102.00000
14.00956	5772.00000
14.02627	6282.00000
14.04298	6463.00000
14.05969	5906.00000
14.07640	5760.00000
14.09311	6012.00000
14.10982	6419.00000
14.12653	6953.00000
14.14325	7689.00000
14.15996	8780.00000
14.17667	10397.00000
14.19338	10144.00000
14.21009	8714.00000
14.22680	8117.00000
14.24351	8499.00000
14.26022	8389.00000
14.27693	8232.00000
14.29364	7457.00000
14.31036	6650.00000
14.32707	6415.00000
14.34378	6768.00000
14.36049	7394.00000
14.37720	8680.00000
14.39391	10853.00000
14.41062	12933.00000
14.42733	11882.00000
14.44404	9885.00000
14.46075	8350.00000
14.47747	8413.00000
14.49418	9388.00000
14.51089	10808.00000
14.52760	11456.00000
14.54431	12266.00000
14.56102	12134.00000
14.57773	10311.00000
14.59444	8592.00000
14.61115	8960.00000
14.62786	10518.00000
14.64458	11830.00000
14.66129	11579.00000
14.67800	9333.00000
14.69471	7710.00000
14.71142	7988.00000
14.72813	8457.00000
14.74484	8471.00000
14.76155	7073.00000
14.77826	5564.00000
14.79497	4919.00000
14.81169	4889.00000
14.82840	4997.00000
14.84511	4882.00000
14.86182	4585.00000
14.87853	4684.00000
14.89524	4681.00000
14.91195	4255.00000
14.92866	3841.00000
14.94537	3558.00000
14.96208	3658.00000
14.97880	3794.00000
14.99551	3815.00000
15.01222	3580.00000
15.02893	3375.00000
15.04564	3481.00000
15.06235	3668.00000
15.07906	3826.00000
15.09577	4383.00000
15.11248	5220.00000
15.12919	5914.00000
15.14591	6239.00000
15.16262	6027.00000
15.17933	6251.00000
15.19604	7038.00000
15.21275	6848.00000
15.22946	6523.00000
15.24617	6193.00000
15.26288	6090.00000
15.27959	6183.00000
15.29630	5701.00000
15.31302	5161.00000
15.32973	4256.00000
15.34644	4086.00000
15.36315	4153.00000
15.37986	4026.00000
15.39657	3862.00000
15.41328	3440.00000
15.42999	3271.00000
15.44670	3161.00000
15.46341	3200.00000
15.48013	3324.00000
15.49684	3243.00000
15.51355	3425.00000
15.53026	3392.00000
15.54697	3745.00000
15.56368	4029.00000
15.58039	4447.00000
15.59710	4485.00000
15.61381	4300.00000
15.63052	3772.00000
15.64724	3631.00000
15.66395	3618.00000
15.68066	3631.00000
15.69737	3707.00000
15.71408	3545.00000
15.73079	3324.00000
15.74750	3153.00000
15.76421	3055.00000
15.78092	3020.00000
15.79763	3154.00000
15.81435	3331.00000
15.83106	3511.00000
15.84777	3887.00000
15.86448	4612.00000
15.88119	5529.00000
15.89790	6534.00000
15.91461	6497.00000
15.93132	5359.00000
15.94803	4406.00000
15.96474	4146.00000
15.98146	4441.00000
15.99817	5068.00000
16.01488	5113.00000
16.03159	5079.00000
16.04830	5061.00000
16.06501	5169.00000
16.08172	4987.00000
16.09843	4383.00000
16.11514	3853.00000
16.13185	3594.00000
16.14857	3687.00000
16.16528	3981.00000
16.18199	4144.00000
16.19870	3655.00000
16.21541	3456.00000
16.23212	3086.00000
16.24883	3095.00000
16.26554	3016.00000
16.28225	2976.00000
16.29896	3096.00000
16.31568	3040.00000
16.33239	3051.00000
16.34910	3108.00000
16.36581	3247.00000
16.38252	3434.00000
16.39923	3717.00000
16.41594	4357.00000
16.43265	4994.00000
16.44936	6058.00000
16.46607	7210.00000
16.48279	8009.00000
16.49950	7538.00000
16.51621	6155.00000
16.53292	5073.00000
16.54963	4949.00000
16.56634	5280.00000
16.58305	5639.00000
16.59976	5417.00000
16.61647	4700.00000
16.63318	3827.00000
16.64990	3399.00000
16.66661	3251.00000
16.68332	3198.00000
16.70003	3120.00000
16.71674	3046.00000
16.73345	3089.00000
16.75016	3144.00000
16.76687	3240.00000
16.78358	3548.00000
16.80029	3689.00000
16.81701	3820.00000
16.83372	3755.00000
16.85043	3288.00000
16.86714	3203.00000
16.88385	3098.00000
16.90056	3284.00000
16.91727	3307.00000
16.93398	3292.00000
16.95069	3144.00000
16.96740	3144.00000
16.98412	2899.00000
17.00083	2879.00000
17.01754	2749.00000
17.03425	2799.00000
17.05096	2900.00000
17.06767	2813.00000
17.08438	2849.00000
17.10109	2917.00000
17.11780	3000.00000
17.13451	3100.00000
17.15123	3236.00000
17.16794	3766.00000
17.18465	4076.00000
17.20136	4922.00000
17.21807	5831.00000
17.23478	6431.00000
17.25149	6360.00000
17.26820	5147.00000
17.28491	4332.00000
17.30162	4113.00000
17.31834	4322.00000
17.33505	4629.00000
17.35176	4775.00000
17.36847	4438.00000
17.38518	4048.00000
17.40189	3782.00000
17.41860	3928.00000
17.43531	4352.00000
17.45202	4756.00000
17.46873	5653.00000
17.48545	5654.00000
17.50216	4907.00000
17.51887	4158.00000
17.53558	3937.00000
17.55229	3920.00000
17.56900	4113.00000
17.58571	4412.00000
17.60242	4481.00000
17.61913	3893.00000
17.63584	3639.00000
17.65256	3516.00000
17.66927	3559.00000
17.68598	3949.00000
17.70269	4581.00000
17.71940	5199.00000
17.73611	5771.00000
17.75282	6105.00000
17.76953	6212.00000
17.78624	6762.00000
17.80295	8024.00000
17.81967	8978.00000
17.83638	9450.00000
17.85309	9969.00000
17.86980	10702.00000
17.88651	10806.00000
17.90322	9625.00000
17.91993	8829.00000
17.93664	8300.00000
17.95335	7428.00000
17.97006	7051.00000
17.98678	6978.00000
18.00349	6504.00000
18.02020	5568.00000
18.03691	5026.00000
18.05362	4416.00000
18.07033	4087.00000
18.08704	3672.00000
18.10375	3432.00000
18.12046	3202.00000
18.13717	3158.00000
18.15389	3149.00000
18.17060	3111.00000
18.18731	2987.00000
18.20402	3045.00000
18.22073	2936.00000
18.23744	2967.00000
18.25415	2874.00000
18.27086	2880.00000
18.28757	2978.00000
18.30428	2841.00000
18.32100	2929.00000
18.33771	2928.00000
18.35442	3064.00000
18.37113	3006.00000
18.38784	3230.00000
18.40455	3494.00000
18.42126	3794.00000
18.43797	4299.00000
18.45468	4685.00000
18.47139	4317.00000
18.48811	3864.00000
18.50482	3427.00000
18.52153	3300.00000
18.53824	3524.00000
18.55495	3844.00000
18.57166	4043.00000
18.58837	4009.00000
18.60508	3807.00000
18.62179	3894.00000
18.63850	4106.00000
18.65522	4375.00000
18.67193	4033.00000
18.68864	3684.00000
18.70535	3446.00000
18.72206	3197.00000
18.73877	3423.00000
18.75548	3667.00000
18.77219	3733.00000
18.78890	3855.00000
18.80561	3776.00000
18.82233	3888.00000
18.83904	4241.00000
18.85575	4530.00000
18.87246	4927.00000
18.88917	5121.00000
18.90588	5418.00000
18.92259	5413.00000
18.93930	5159.00000
18.95601	4904.00000
18.97272	5225.00000
18.98944	5904.00000
19.00615	6408.00000
19.02286	6931.00000
19.03957	6274.00000
19.05628	5284.00000
19.07299	4439.00000
19.08970	4054.00000
19.10641	4246.00000
19.12312	4451.00000
19.13983	4615.00000
19.15655	4382.00000
19.17326	3920.00000
19.18997	3493.00000
19.20668	3281.00000
19.22339	3179.00000
19.24010	3350.00000
19.25681	3467.00000
19.27352	3539.00000
19.29023	3514.00000
19.30694	3468.00000
19.32366	3215.00000
19.34037	3128.00000
19.35708	3039.00000
19.37379	3020.00000
19.39050	3066.00000
19.40721	3095.00000
19.42392	3064.00000
19.44063	2954.00000
19.45734	2950.00000
19.47405	3105.00000
19.49077	2976.00000
19.50748	3215.00000
19.52419	3248.00000
19.54090	3202.00000
19.55761	3185.00000
19.57432	3062.00000
19.59103	3106.00000
19.60774	2957.00000
19.62445	3023.00000
19.64116	2933.00000
19.65788	2996.00000
19.67459	3081.00000
19.69130	2966.00000
19.70801	2944.00000
19.72472	3145.00000
19.74143	2999.00000
19.75814	3060.00000
19.77485	3273.00000
19.79156	3329.00000
19.80827	3580.00000
19.82499	3705.00000
19.84170	3625.00000
19.85841	3847.00000
19.87512	4223.00000
19.89183	4439.00000
19.90854	4205.00000
19.92525	3942.00000
19.94196	3691.00000
19.95867	3491.00000
19.97538	3627.00000
19.99210	3895.00000
20.00881	4265.00000
20.02552	4454.00000
20.04223	4063.00000
20.05894	3753.00000
20.07565	3623.00000
20.09236	3449.00000
20.10907	3418.00000
20.12578	3778.00000
20.14249	3716.00000
20.15921	3760.00000
20.17592	3558.00000
20.19263	3233.00000
20.20934	3217.00000
20.22605	3015.00000
20.24276	3067.00000
20.25947	3294.00000
20.27618	3374.00000
20.29289	3478.00000
20.30960	3639.00000
20.32632	3485.00000
20.34303	3361.00000
20.35974	3130.00000
20.37645	3259.00000
20.39316	3164.00000
20.40987	3294.00000
20.42658	3346.00000
20.44329	3265.00000
20.46000	3118.00000
20.47671	3264.00000
20.49343	3380.00000
20.51014	3306.00000
20.52685	3194.00000
20.54356	3184.00000
20.56027	3187.00000
20.57698	3092.00000
20.59369	3169.00000
20.61040	3089.00000
20.62711	3069.00000
20.64382	2993.00000
20.66054	3081.00000
20.67725	3148.00000
20.69396	3285.00000
20.71067	3236.00000
20.72738	3087.00000
20.74409	3113.00000
20.76080	2999.00000
20.77751	3036.00000
20.79422	3157.00000
20.81093	3264.00000
20.82765	3486.00000
20.84436	3764.00000
20.86107	4111.00000
20.87778	4051.00000
20.89449	3974.00000
20.91120	4144.00000
20.92791	4414.00000
20.94462	4361.00000
20.96133	4350.00000
20.97804	3937.00000
20.99476	3765.00000
21.01147	3506.00000
21.02818	3545.00000
21.04489	3428.00000
21.06160	3478.00000
21.07831	3426.00000
21.09502	3417.00000
21.11173	3251.00000
21.12844	2985.00000
21.14515	3056.00000
21.16187	2883.00000
21.17858	2765.00000
21.19529	2861.00000
21.21200	2704.00000
21.22871	2745.00000
21.24542	2839.00000
21.26213	2792.00000
21.27884	2963.00000
21.29555	2890.00000
21.31226	2759.00000
21.32898	2766.00000
21.34569	2766.00000
21.36240	2775.00000
21.37911	2835.00000
21.39582	2966.00000
21.41253	3180.00000
21.42924	3232.00000
21.44595	3674.00000
21.46266	4116.00000
21.47937	4227.00000
21.49609	3939.00000
21.51280	3566.00000
21.52951	3534.00000
21.54622	3472.00000
21.56293	3406.00000
21.57964	3514.00000
21.59635	3512.00000
21.61306	3601.00000
21.62977	3439.00000
21.64648	3293.00000
21.66320	3316.00000
21.67991	3144.00000
21.69662	3118.00000
21.71333	2981.00000
21.73004	2828.00000
21.74675	2878.00000
21.76346	2791.00000
21.78017	2894.00000
21.79688	2855.00000
21.81359	3015.00000
21.83031	3125.00000
21.84702	3314.00000
21.86373	3561.00000
21.88044	3889.00000
21.89715	3970.00000
21.91386	4083.00000
21.93057	4163.00000
21.94728	3937.00000
21.96399	3701.00000
21.98070	3571.00000
21.99742	3462.00000
22.01413	3372.00000
22.03084	3467.00000
22.04755	3480.00000
22.06426	3576.00000
22.08097	3826.00000
22.09768	3870.00000
22.11439	3725.00000
22.13110	3623.00000
22.14781	3243.00000
22.16453	3152.00000
22.18124	3196.00000
22.19795	3117.00000
22.21466	3310.00000
22.23137	3589.00000
22.24808	3859.00000
22.26479	3982.00000
22.28150	3740.00000
22.29821	3414.00000
22.31492	3159.00000
22.33164	2946.00000
22.34835	2825.00000
22.36506	3116.00000
22.38177	3063.00000
22.39848	3237.00000
22.41519	3247.00000
22.43190	3317.00000
22.44861	3151.00000
22.46532	2929.00000
22.48203	2861.00000
22.49875	3034.00000
22.51546	2858.00000
22.53217	2937.00000
22.54888	2849.00000
22.56559	2988.00000
22.58230	3087.00000
22.59901	3215.00000
22.61572	3276.00000
22.63243	3452.00000
22.64914	3642.00000
22.66586	3616.00000
22.68257	3660.00000
22.69928	3521.00000
22.71599	3660.00000
22.73270	3633.00000
22.74941	3765.00000
22.76612	3701.00000
22.78283	3675.00000
22.79954	3575.00000
22.81625	3414.00000
22.83297	3431.00000
22.84968	3314.00000
22.86639	3284.00000
22.88310	3554.00000
22.89981	3733.00000
22.91652	3745.00000
22.93323	3819.00000
22.94994	3597.00000
22.96665	3150.00000
22.98336	3071.00000
23.00008	3050.00000
23.01679	2993.00000
23.03350	3134.00000
23.05021	3274.00000
23.06692	3330.00000
23.08363	3200.00000
23.10034	2964.00000
23.11705	2884.00000
23.13376	2855.00000
23.15047	2750.00000
23.16719	2758.00000
23.18390	2884.00000
23.20061	2781.00000
23.21732	2848.00000
23.23403	2844.00000
23.25074	2799.00000
23.26745	2632.00000
23.28416	2771.00000
23.30087	2701.00000
23.31758	2706.00000
23.33430	2615.00000
23.35101	2722.00000
23.36772	2777.00000
23.38443	2762.00000
23.40114	2767.00000
23.41785	2890.00000
23.43456	2768.00000
23.45127	2883.00000
23.46798	2883.00000
23.48469	3035.00000
23.50141	2963.00000
23.51812	2940.00000
23.53483	2854.00000
23.55154	2800.00000
23.56825	2765.00000
23.58496	2790.00000
23.60167	2990.00000
23.61838	2976.00000
23.63509	3037.00000
23.65180	3298.00000
23.66852	3611.00000
23.68523	3782.00000
23.70194	3886.00000
23.71865	3774.00000
23.73536	3728.00000
23.75207	3577.00000
23.76878	3782.00000
23.78549	3923.00000
23.80220	3940.00000
23.81891	4029.00000
23.83563	3769.00000
23.85234	3622.00000
23.86905	3577.00000
23.88576	3604.00000
23.90247	3810.00000
23.91918	4102.00000
23.93589	4180.00000
23.95260	4038.00000
23.96931	3658.00000
23.98602	3274.00000
24.00274	3029.00000
24.01945	2911.00000
24.03616	2885.00000
24.05287	2928.00000
24.06958	3227.00000
24.08629	3105.00000
24.10300	3202.00000
24.11971	3142.00000
24.13642	2954.00000
24.15313	2888.00000
24.16985	2825.00000
24.18656	2855.00000
24.20327	2821.00000
24.21998	3042.00000
24.23669	3164.00000
24.25340	3502.00000
24.27011	3557.00000
24.28682	3595.00000
24.30353	3383.00000
24.32024	3101.00000
24.33696	2947.00000
24.35367	2911.00000
24.37038	2947.00000
24.38709	2889.00000
24.40380	2957.00000
24.42051	3080.00000
24.43722	3127.00000
24.45393	3147.00000
24.47064	3141.00000
24.48735	3017.00000
24.50407	3145.00000
24.52078	3128.00000
24.53749	3043.00000
24.55420	2974.00000
24.57091	2886.00000
24.58762	2855.00000
24.60433	2785.00000
24.62104	2744.00000
24.63775	2723.00000
24.65446	2670.00000
24.67118	2791.00000
24.68789	2881.00000
24.70460	2722.00000
24.72131	2843.00000
24.73802	2771.00000
24.75473	2695.00000
24.77144	2814.00000
24.78815	2800.00000
24.80486	2876.00000
24.82157	2836.00000
24.83829	2966.00000
24.85500	2941.00000
24.87171	2795.00000
24.88842	2769.00000
24.90513	2840.00000
24.92184	2941.00000
24.93855	3164.00000
24.95526	3195.00000
24.97197	3455.00000
24.98868	3665.00000
25.00540	3353.00000
25.02211	3287.00000
25.03882	3094.00000
25.05553	2981.00000
25.07224	3163.00000
25.08895	3380.00000
25.10566	3513.00000
25.12237	3463.00000
25.13908	3398.00000
25.15579	3317.00000
25.17251	3281.00000
25.18922	3252.00000
25.20593	3216.00000
25.22264	3230.00000
25.23935	3207.00000
25.25606	3377.00000
25.27277	3486.00000
25.28948	3547.00000
25.30619	3633.00000
25.32290	3548.00000
25.33962	3306.00000
25.35633	3168.00000
25.37304	2961.00000
25.38975	3019.00000
25.40646	3083.00000
25.42317	3244.00000
25.43988	3317.00000
25.45659	3241.00000
25.47330	3241.00000
25.49001	3028.00000
25.50673	3013.00000
25.52344	2814.00000
25.54015	2881.00000
25.55686	2822.00000
25.57357	2977.00000
25.59028	2963.00000
25.60699	3089.00000
25.62370	3042.00000
25.64041	3192.00000
25.65712	3163.00000
25.67384	3051.00000
25.69055	2846.00000
25.70726	2799.00000
25.72397	2777.00000
25.74068	2770.00000
25.75739	2763.00000
25.77410	2909.00000
25.79081	3101.00000
25.80752	2995.00000
25.82423	2949.00000
25.84095	2795.00000
25.85766	2815.00000
25.87437	2705.00000
25.89108	2779.00000
25.90779	2818.00000
25.92450	2863.00000
25.94121	2863.00000
25.95792	3007.00000
25.97463	3178.00000
25.99134	3422.00000
26.00806	3425.00000
26.02477	3648.00000
26.04148	3577.00000
26.05819	3477.00000
26.07490	3457.00000
26.09161	3427.00000
26.10832	3562.00000
26.12503	3831.00000
26.14174	4481.00000
26.15845	4639.00000
26.17517	4691.00000
26.19188	4635.00000
26.20859	4243.00000
26.22530	3787.00000
26.24201	3517.00000
26.25872	3332.00000
26.27543	3534.00000
26.29214	3723.00000
26.30885	4019.00000
26.32556	4613.00000
26.34228	4876.00000
26.35899	5060.00000
26.37570	4884.00000
26.39241	4452.00000
26.40912	3855.00000
26.42583	3544.00000
26.44254	3342.00000
26.45925	3315.00000
26.47596	3359.00000
26.49267	3223.00000
26.50939	3504.00000
26.52610	3606.00000
26.54281	3556.00000
26.55952	3513.00000
26.57623	3302.00000
26.59294	3197.00000
26.60965	3109.00000
26.62636	3139.00000
26.64307	3035.00000
26.65978	3158.00000
26.67650	3142.00000
26.69321	3464.00000
26.70992	3562.00000
26.72663	3876.00000
26.74334	3967.00000
26.76005	4226.00000
26.77676	4498.00000
26.79347	4612.00000
26.81018	4734.00000
26.82689	4508.00000
26.84361	4227.00000
26.86032	4012.00000
26.87703	3878.00000
26.89374	3734.00000
26.91045	3667.00000
26.92716	3593.00000
26.94387	3557.00000
26.96058	3798.00000
26.97729	3871.00000
26.99400	3772.00000
27.01072	3651.00000
27.02743	3528.00000
27.04414	3504.00000
27.06085	3558.00000
27.07756	3559.00000
27.09427	3686.00000
27.11098	3976.00000
27.12769	3894.00000
27.14440	3952.00000
27.16111	3831.00000
27.17783	3832.00000
27.19454	3919.00000
27.21125	3908.00000
27.22796	3836.00000
27.24467	3758.00000
27.26138	3717.00000
27.27809	3677.00000
27.29480	3592.00000
27.31151	3664.00000
27.32822	3738.00000
27.34494	3712.00000
27.36165	3887.00000
27.37836	3843.00000
27.39507	3779.00000
27.41178	3522.00000
27.42849	3372.00000
27.44520	3178.00000
27.46191	3056.00000
27.47862	3026.00000
27.49533	3094.00000
27.51205	3075.00000
27.52876	3176.00000
27.54547	3323.00000
27.56218	3452.00000
27.57889	3472.00000
27.59560	3468.00000
27.61231	3304.00000
27.62902	3191.00000
27.64573	3251.00000
27.66244	3315.00000
27.67916	3462.00000
27.69587	3452.00000
27.71258	3703.00000
27.72929	3521.00000
27.74600	3450.00000
27.76271	3394.00000
27.77942	3326.00000
27.79613	3117.00000
27.81284	3092.00000
27.82955	3120.00000
27.84627	3276.00000
27.86298	3294.00000
27.87969	3378.00000
27.89640	3384.00000
27.91311	3350.00000
27.92982	3225.00000
27.94653	3198.00000
27.96324	3013.00000
27.97995	3036.00000
27.99666	2897.00000
28.01338	2995.00000
28.03009	2781.00000
28.04680	2810.00000
28.06351	2895.00000
28.08022	2926.00000
28.09693	2974.00000
28.11364	3119.00000
28.13035	3157.00000
28.14706	3403.00000
28.16377	3201.00000
28.18049	3238.00000
28.19720	3087.00000
28.21391	2995.00000
28.23062	3097.00000
28.24733	3164.00000
28.26404	3220.00000
28.28075	3419.00000
28.29746	3342.00000
28.31417	3244.00000
28.33088	3204.00000
28.34760	3218.00000
28.36431	3276.00000
28.38102	3225.00000
28.39773	3375.00000
28.41444	3530.00000
28.43115	3394.00000
28.44786	3460.00000
28.46457	3649.00000
28.48128	3452.00000
28.49799	3299.00000
28.51471	3139.00000
28.53142	3036.00000
28.54813	3086.00000
28.56484	3081.00000
28.58155	3150.00000
28.59826	3088.00000
28.61497	3170.00000
28.63168	3264.00000
28.64839	3394.00000
28.66510	3130.00000
28.68182	3168.00000
28.69853	3023.00000
28.71524	3168.00000
28.73195	3137.00000
28.74866	3270.00000
28.76537	3391.00000
28.78208	3433.00000
28.79879	3324.00000
28.81550	3164.00000
28.83221	3005.00000
28.84893	3100.00000
28.86564	2966.00000
28.88235	2971.00000
28.89906	3016.00000
28.91577	3100.00000
28.93248	3053.00000
28.94919	3172.00000
28.96590	3039.00000
28.98261	3066.00000
28.99932	3255.00000
29.01604	3253.00000
29.03275	3328.00000
29.04946	3194.00000
29.06617	3334.00000
29.08288	3257.00000
29.09959	3283.00000
29.11630	3396.00000
29.13301	3426.00000
29.14972	3381.00000
29.16643	3424.00000
29.18315	3440.00000
29.19986	3312.00000
29.21657	3315.00000
29.23328	3528.00000
29.24999	3506.00000
29.26670	3494.00000
29.28341	3523.00000
29.30012	3367.00000
29.31683	3372.00000
29.33354	3131.00000
29.35026	3158.00000
29.36697	3116.00000
29.38368	3146.00000
29.40039	3034.00000
29.41710	3161.00000
29.43381	3441.00000
29.45052	3604.00000
29.46723	3499.00000
29.48394	3436.00000
29.50065	3375.00000
29.51737	3184.00000
29.53408	3003.00000
29.55079	2951.00000
29.56750	2877.00000
29.58421	2894.00000
29.60092	2866.00000
29.61763	2966.00000
29.63434	2973.00000
29.65105	2956.00000
29.66776	3023.00000
29.68448	3003.00000
29.70119	3002.00000
29.71790	3132.00000
29.73461	3039.00000
29.75132	2832.00000
29.76803	2933.00000
29.78474	2832.00000
29.80145	2913.00000
29.81816	2797.00000
29.83487	2844.00000
29.85159	2890.00000
29.86830	2759.00000
29.88501	2829.00000
29.90172	2838.00000
29.91843	2977.00000
29.93514	2871.00000
29.95185	2894.00000
29.96856	2904.00000
29.98527	2898.00000
30.00198	2742.00000
30.01870	2810.00000
30.03541	2868.00000
30.05212	2906.00000
30.06883	2921.00000
30.08554	3110.00000
30.10225	3255.00000
30.11896	3492.00000
30.13567	3613.00000
30.15238	3665.00000
30.16909	3512.00000
30.18581	3283.00000
30.20252	3248.00000
30.21923	3115.00000
30.23594	3106.00000
30.25265	3125.00000
30.26936	3010.00000
30.28607	3042.00000
30.30278	2970.00000
30.31949	3127.00000
30.33620	3053.00000
30.35292	3029.00000
30.36963	3147.00000
30.38634	3058.00000
30.40305	3000.00000
30.41976	3015.00000
30.43647	3064.00000
30.45318	2895.00000
30.46989	2830.00000
30.48660	2827.00000
30.50331	2848.00000
30.52003	2709.00000
30.53674	2680.00000
30.55345	2744.00000
30.57016	2706.00000
30.58687	2714.00000
30.60358	2857.00000
30.62029	2734.00000
30.63700	2857.00000
30.65371	2685.00000
30.67042	2791.00000
30.68714	2757.00000
30.70385	2812.00000
30.72056	2665.00000
30.73727	2719.00000
30.75398	2736.00000
30.77069	2732.00000
30.78740	2735.00000
30.80411	2778.00000
30.82082	2757.00000
30.83753	2780.00000
30.85425	2798.00000
30.87096	2702.00000
30.88767	2781.00000
30.90438	2745.00000
30.92109	2713.00000
30.93780	2674.00000
30.95451	2887.00000
30.97122	2617.00000
30.98793	2723.00000
31.00464	2672.00000
31.02136	2615.00000
31.03807	2759.00000
31.05478	2719.00000
31.07149	2736.00000
31.08820	2832.00000
31.10491	2836.00000
31.12162	2871.00000
31.13833	2923.00000
31.15504	2828.00000
31.17175	2835.00000
31.18847	2910.00000
31.20518	2946.00000
31.22189	2990.00000
31.23860	2996.00000
31.25531	2955.00000
31.27202	3069.00000
31.28873	2990.00000
31.30544	3152.00000
31.32215	3088.00000
31.33886	3087.00000
31.35558	3053.00000
31.37229	3055.00000
31.38900	2948.00000
31.40571	2938.00000
31.42242	2930.00000
31.43913	3033.00000
31.45584	3196.00000
31.47255	3182.00000
31.48926	3129.00000
31.50597	3091.00000
31.52269	3037.00000
31.53940	2964.00000
31.55611	2931.00000
31.57282	3010.00000
31.58953	2947.00000
31.60624	3077.00000
31.62295	3075.00000
31.63966	3254.00000
31.65637	3383.00000
31.67308	3358.00000
31.68980	3626.00000
31.70651	3420.00000
31.72322	3344.00000
31.73993	3275.00000
31.75664	3137.00000
31.77335	3244.00000
31.79006	3049.00000
31.80677	3056.00000
31.82348	3104.00000
31.84019	2983.00000
31.85691	3047.00000
31.87362	3178.00000
31.89033	3155.00000
31.90704	3304.00000
31.92375	3354.00000
31.94046	3343.00000
31.95717	3303.00000
31.97388	3343.00000
31.99059	3027.00000
32.00730	3082.00000
32.02402	3050.00000
32.04073	2999.00000
32.05744	2973.00000
32.07415	3014.00000
32.09086	3150.00000
32.10757	3370.00000
32.12428	3629.00000
32.14099	3846.00000
32.15770	3764.00000
32.17441	3753.00000
32.19113	3506.00000
32.20784	3367.00000
32.22455	3243.00000
32.24126	3185.00000
32.25797	3063.00000
32.27468	3101.00000
32.29139	3054.00000
32.30810	3170.00000
32.32481	3379.00000
32.34152	3302.00000
32.35824	3356.00000
32.37495	3411.00000
32.39166	3106.00000
32.40837	3178.00000
32.42508	3133.00000
32.44179	3187.00000
32.45850	3177.00000
32.47521	2921.00000
32.49192	3080.00000
32.50863	3033.00000
32.52535	2863.00000
32.54206	2988.00000
32.55877	2871.00000
32.57548	3061.00000
32.59219	2992.00000
32.60890	3027.00000
32.62561	2973.00000
32.64232	3075.00000
32.65903	3004.00000
32.67574	2913.00000
32.69246	2960.00000
32.70917	2870.00000
32.72588	2992.00000
32.74259	2957.00000
32.75930	3040.00000
32.77601	2990.00000
32.79272	2999.00000
32.80943	3060.00000
32.82614	3179.00000
32.84285	3282.00000
32.85957	3164.00000
32.87628	3271.00000
32.89299	3255.00000
32.90970	3242.00000
32.92641	3306.00000
32.94312	3403.00000
32.95983	3365.00000
32.97654	3269.00000
32.99325	3449.00000
33.00996	3257.00000
33.02668	3246.00000
33.04339	3240.00000
33.06010	3144.00000
33.07681	3098.00000
33.09352	3121.00000
33.11023	3089.00000
33.12694	3058.00000
33.14365	3138.00000
33.16036	3127.00000
33.17707	2961.00000
33.19379	3063.00000
33.21050	3087.00000
33.22721	2920.00000
33.24392	2945.00000
33.26063	3045.00000
33.27734	2976.00000
33.29405	2937.00000
33.31076	3000.00000
33.32747	2896.00000
33.34418	2839.00000
33.36090	2856.00000
33.37761	2911.00000
33.39432	2758.00000
33.41103	2758.00000
33.42774	2847.00000
33.44445	2843.00000
33.46116	2885.00000
33.47787	2924.00000
33.49458	2907.00000
33.51129	2920.00000
33.52801	2866.00000
33.54472	2938.00000
33.56143	2895.00000
33.57814	2734.00000
33.59485	2775.00000
33.61156	2702.00000
33.62827	2808.00000
33.64498	2757.00000
33.66169	2837.00000
33.67840	2950.00000
33.69512	2863.00000
33.71183	2844.00000
33.72854	2772.00000
33.74525	2901.00000
33.76196	2688.00000
33.77867	2957.00000
33.79538	2857.00000
33.81209	2795.00000
33.82880	2837.00000
33.84551	2917.00000
33.86223	2837.00000
33.87894	2870.00000
33.89565	2830.00000
33.91236	2730.00000
33.92907	2692.00000
33.94578	2753.00000
33.96249	2728.00000
33.97920	2763.00000
33.99591	2907.00000
34.01262	2955.00000
34.02934	2973.00000
34.04605	2964.00000
34.06276	2891.00000
34.07947	2903.00000
34.09618	2913.00000
34.11289	2961.00000
34.12960	3125.00000
34.14631	3203.00000
34.16302	3219.00000
34.17973	3255.00000
34.19645	3190.00000
34.21316	3175.00000
34.22987	3211.00000
34.24658	3299.00000
34.26329	3149.00000
34.28000	3095.00000
34.29671	3104.00000
34.31342	3081.00000
34.33013	3093.00000
34.34684	3116.00000
34.36356	3183.00000
34.38027	3160.00000
34.39698	3255.00000
34.41369	3223.00000
34.43040	3138.00000
34.44711	3062.00000
34.46382	3097.00000
34.48053	3007.00000
34.49724	2901.00000
34.51395	2951.00000
34.53067	2817.00000
34.54738	2781.00000
34.56409	2829.00000
34.58080	2903.00000
34.59751	2941.00000
34.61422	3046.00000
34.63093	2960.00000
34.64764	2977.00000
34.66435	3003.00000
34.68106	2919.00000
34.69778	2964.00000
34.71449	2870.00000
34.73120	2748.00000
34.74791	2804.00000
34.76462	2740.00000
34.78133	2761.00000
34.79804	2876.00000
34.81475	2839.00000
34.83146	2687.00000
34.84817	2894.00000
34.86489	2947.00000
34.88160	2981.00000
34.89831	2896.00000
34.91502	2949.00000
34.93173	3069.00000
34.94844	2960.00000
34.96515	2803.00000
34.98186	2901.00000
34.99857	2876.00000
35.01528	2828.00000
35.03200	2839.00000
35.04871	2781.00000
35.06542	2729.00000
35.08213	2734.00000
35.09884	2778.00000
35.11555	2855.00000
35.13226	2819.00000
35.14897	2824.00000
35.16568	2854.00000
35.18239	2847.00000
35.19911	2850.00000
35.21582	2838.00000
35.23253	2711.00000
35.24924	2658.00000
35.26595	2654.00000
35.28266	2651.00000
35.29937	2683.00000
35.31608	2584.00000
35.33279	2639.00000
35.34950	2614.00000
35.36622	2621.00000
35.38293	2580.00000
35.39964	2679.00000
35.41635	2696.00000
35.43306	2606.00000
35.44977	2667.00000
35.46648	2639.00000
35.48319	2655.00000
35.49990	2581.00000
35.51661	2663.00000
35.53333	2642.00000
35.55004	2562.00000
35.56675	2567.00000
35.58346	2693.00000
35.60017	2617.00000
35.61688	2701.00000
35.63359	2678.00000
35.65030	2819.00000
35.66701	2698.00000
35.68372	2746.00000
35.70044	2742.00000
35.71715	2761.00000
35.73386	2896.00000
35.75057	2662.00000
35.76728	2742.00000
35.78399	2712.00000
35.80070	2709.00000
35.81741	2731.00000
35.83412	2619.00000
35.85083	2735.00000
35.86755	2774.00000
35.88426	2719.00000
35.90097	2912.00000
35.91768	2891.00000
35.93439	2953.00000
35.95110	2872.00000
35.96781	2976.00000
35.98452	2965.00000
36.00123	2962.00000
36.01794	3015.00000
36.03466	2834.00000
36.05137	2783.00000
36.06808	2849.00000
36.08479	2777.00000
36.10150	2739.00000
36.11821	2682.00000
36.13492	2840.00000
36.15163	2840.00000
36.16834	2870.00000
36.18505	2917.00000
36.20177	2985.00000
36.21848	2829.00000
36.23519	2946.00000
36.25190	2946.00000
36.26861	2810.00000
36.28532	2855.00000
36.30203	2814.00000
36.31874	2754.00000
36.33545	2695.00000
36.35216	2932.00000
36.36888	2772.00000
36.38559	2625.00000
36.40230	2702.00000
36.41901	2621.00000
36.43572	2729.00000
36.45243	2795.00000
36.46914	2799.00000
36.48585	2833.00000
36.50256	2959.00000
36.51927	2921.00000
36.53599	3025.00000
36.55270	2887.00000
36.56941	2872.00000
36.58612	2821.00000
36.60283	2747.00000
36.61954	2605.00000
36.63625	2734.00000
36.65296	2658.00000
36.66967	2617.00000
36.68638	2648.00000
36.70310	2685.00000
36.71981	2735.00000
36.73652	2646.00000
36.75323	2672.00000
36.76994	2749.00000
36.78665	2722.00000
36.80336	2657.00000
36.82007	2653.00000
36.83678	2711.00000
36.85349	2599.00000
36.87021	2649.00000
36.88692	2645.00000
36.90363	2711.00000
36.92034	2687.00000
36.93705	2759.00000
36.95376	2782.00000
36.97047	2830.00000
36.98718	2759.00000
37.00389	2797.00000
37.02060	2748.00000
37.03732	2713.00000
37.05403	2769.00000
37.07074	2723.00000
37.08745	2761.00000
37.10416	2782.00000
37.12087	2888.00000
37.13758	2850.00000
37.15429	2919.00000
37.17100	3016.00000
37.18771	2835.00000
37.20443	2894.00000
37.22114	2885.00000
37.23785	2914.00000
37.25456	2922.00000
37.27127	2839.00000
37.28798	2988.00000
37.30469	2960.00000
37.32140	2983.00000
37.33811	3012.00000
37.35482	2967.00000
37.37154	2914.00000
37.38825	2919.00000
37.40496	2966.00000
37.42167	2815.00000
37.43838	2794.00000
37.45509	2772.00000
37.47180	2771.00000
37.48851	2655.00000
37.50522	2733.00000
37.52193	2808.00000
37.53865	2894.00000
37.55536	2805.00000
37.57207	2930.00000
37.58878	2865.00000
37.60549	2749.00000
37.62220	2836.00000
37.63891	2693.00000
37.65562	2631.00000
37.67233	2752.00000
37.68904	2534.00000
37.70576	2630.00000
37.72247	2686.00000
37.73918	2640.00000
37.75589	2658.00000
37.77260	2706.00000
37.78931	2663.00000
37.80602	2665.00000
37.82273	2659.00000
37.83944	2690.00000
37.85615	2705.00000
37.87287	2702.00000
37.88958	2738.00000
37.90629	2709.00000
37.92300	2651.00000
37.93971	2640.00000
37.95642	2718.00000
37.97313	2774.00000
37.98984	2808.00000
38.00655	2753.00000
38.02326	2848.00000
38.03998	2752.00000
38.05669	2757.00000
38.07340	2811.00000
38.09011	2774.00000
38.10682	2794.00000
38.12353	2626.00000
38.14024	2783.00000
38.15695	2773.00000
38.17366	2740.00000
38.19037	2882.00000
38.20709	2762.00000
38.22380	2812.00000
38.24051	2825.00000
38.25722	2810.00000
38.27393	2896.00000
38.29064	2762.00000
38.30735	2718.00000
38.32406	2854.00000
38.34077	2750.00000
38.35748	2763.00000
38.37420	2707.00000
38.39091	2829.00000
38.40762	2857.00000
38.42433	2823.00000
38.44104	2720.00000
38.45775	2887.00000
38.47446	2738.00000
38.49117	2643.00000
38.50788	2641.00000
38.52459	2739.00000
38.54131	2639.00000
38.55802	2652.00000
38.57473	2825.00000
38.59144	2882.00000
38.60815	2938.00000
38.62486	2979.00000
38.64157	2967.00000
38.65828	2939.00000
38.67499	2778.00000
38.69170	2818.00000
38.70842	2773.00000
38.72513	2847.00000
38.74184	2905.00000
38.75855	2877.00000
38.77526	2812.00000
38.79197	2848.00000
38.80868	2785.00000
38.82539	2817.00000
38.84210	2810.00000
38.85881	2831.00000
38.87553	2900.00000
38.89224	2880.00000
38.90895	2802.00000
38.92566	2839.00000
38.94237	2816.00000
38.95908	2817.00000
38.97579	2934.00000
38.99250	2761.00000
39.00921	2887.00000
39.02592	2806.00000
39.04264	2806.00000
39.05935	2858.00000
39.07606	2894.00000
39.09277	2854.00000
39.10948	2719.00000
39.12619	2700.00000
39.14290	2715.00000
39.15961	2745.00000
39.17632	2751.00000
39.19303	2712.00000
39.20975	2777.00000
39.22646	2737.00000
39.24317	2797.00000
39.25988	2764.00000
39.27659	2745.00000
39.29330	2664.00000
39.31001	2825.00000
39.32672	2762.00000
39.34343	2901.00000
39.36014	2734.00000
39.37686	2762.00000
39.39357	2655.00000
39.41028	2770.00000
39.42699	2813.00000
39.44370	2779.00000
39.46041	2715.00000
39.47712	2684.00000
39.49383	2646.00000
39.51054	2665.00000
39.52725	2620.00000
39.54397	2652.00000
39.56068	2617.00000
39.57739	2878.00000
39.59410	2741.00000
39.61081	2699.00000
39.62752	2787.00000
39.64423	2856.00000
39.66094	2833.00000
39.67765	2930.00000
39.69436	2948.00000
39.71108	2792.00000
39.72779	2782.00000
39.74450	2797.00000
39.76121	2671.00000
39.77792	2668.00000
39.79463	2614.00000
39.81134	2592.00000
39.82805	2597.00000
39.84476	2651.00000
39.86147	2728.00000
39.87819	2744.00000
39.89490	2814.00000
39.91161	2827.00000
39.92832	2845.00000
39.94503	2837.00000
39.96174	2784.00000
39.97845	2833.00000
39.99516	2720.00000
40.01187	2660.00000
40.02858	2658.00000
40.04530	2660.00000
40.06201	2624.00000
40.07872	2599.00000
40.09543	2619.00000
40.11214	2599.00000
40.12885	2704.00000
40.14556	2636.00000
40.16227	2654.00000
40.17898	2713.00000
40.19569	2662.00000
40.21241	2716.00000
40.22912	2535.00000
40.24583	2767.00000
40.26254	2587.00000
40.27925	2634.00000
40.29596	2660.00000
40.31267	2678.00000
40.32938	2598.00000
40.34609	2608.00000
40.36280	2575.00000
40.37952	2635.00000
40.39623	2666.00000
40.41294	2637.00000
40.42965	2763.00000
40.44636	2686.00000
40.46307	2588.00000
40.47978	2715.00000
40.49649	2722.00000
40.51320	2756.00000
40.52991	2696.00000
40.54663	2734.00000
40.56334	2810.00000
40.58005	2774.00000
40.59676	2799.00000
40.61347	2657.00000
40.63018	2576.00000
40.64689	2754.00000
40.66360	2697.00000
40.68031	2717.00000
40.69702	2670.00000
40.71374	2655.00000
40.73045	2658.00000
40.74716	2777.00000
40.76387	2662.00000
40.78058	2633.00000
40.79729	2726.00000
40.81400	2614.00000
40.83071	2674.00000
40.84742	2624.00000
40.86413	2802.00000
40.88085	2618.00000
40.89756	2621.00000
40.91427	2691.00000
40.93098	2596.00000
40.94769	2761.00000
40.96440	2475.00000
40.98111	2655.00000
40.99782	2610.00000
41.01453	2581.00000
41.03124	2557.00000
41.04796	2539.00000
41.06467	2571.00000
41.08138	2532.00000
41.09809	2467.00000
41.11480	2588.00000
41.13151	2655.00000
41.14822	2547.00000
41.16493	2572.00000
41.18164	2482.00000
41.19835	2597.00000
41.21507	2603.00000
41.23178	2549.00000
41.24849	2683.00000
41.26520	2612.00000
41.28191	2660.00000
41.29862	2724.00000
41.31533	2568.00000
41.33204	2648.00000
41.34875	2591.00000
41.36546	2633.00000
41.38218	2586.00000
41.39889	2597.00000
41.41560	2535.00000
41.43231	2613.00000
41.44902	2646.00000
41.46573	2619.00000
41.48244	2566.00000
41.49915	2569.00000
41.51586	2673.00000
41.53257	2646.00000
41.54929	2544.00000
41.56600	2536.00000
41.58271	2618.00000
41.59942	2513.00000
41.61613	2520.00000
41.63284	2520.00000
41.64955	2604.00000
41.66626	2543.00000
41.68297	2662.00000
41.69968	2682.00000
41.71640	2525.00000
41.73311	2630.00000
41.74982	2604.00000
41.76653	2592.00000
41.78324	2633.00000
41.79995	2608.00000
41.81666	2518.00000
41.83337	2709.00000
41.85008	2596.00000
41.86679	2625.00000
41.88351	2573.00000
41.90022	2614.00000
41.91693	2544.00000
41.93364	2517.00000
41.95035	2590.00000
41.96706	2579.00000
41.98377	2613.00000
42.00048	2600.00000
42.01719	2615.00000
42.03390	2653.00000
42.05062	2516.00000
42.06733	2585.00000
42.08404	2573.00000
42.10075	2588.00000
42.11746	2564.00000
42.13417	2588.00000
42.15088	2554.00000
42.16759	2490.00000
42.18430	2656.00000
42.20101	2503.00000
42.21773	2467.00000
42.23444	2521.00000
42.25115	2539.00000
42.26786	2525.00000
42.28457	2558.00000
42.30128	2507.00000
42.31799	2529.00000
42.33470	2562.00000
42.35141	2542.00000
42.36812	2440.00000
42.38484	2395.00000
42.40155	2433.00000
42.41826	2516.00000
42.43497	2534.00000
42.45168	2485.00000
42.46839	2573.00000
42.48510	2518.00000
42.50181	2523.00000
42.51852	2532.00000
42.53523	2527.00000
42.55195	2577.00000
42.56866	2546.00000
42.58537	2530.00000
42.60208	2580.00000
42.61879	2597.00000
42.63550	2713.00000
42.65221	2612.00000
42.66892	2673.00000
42.68563	2602.00000
42.70234	2674.00000
42.71906	2596.00000
42.73577	2544.00000
42.75248	2565.00000
42.76919	2514.00000
42.78590	2527.00000
42.80261	2538.00000
42.81932	2520.00000
42.83603	2590.00000
42.85274	2489.00000
42.86945	2703.00000
42.88617	2521.00000
42.90288	2690.00000
42.91959	2584.00000
42.93630	2616.00000
42.95301	2547.00000
42.96972	2655.00000
42.98643	2609.00000
43.00314	2525.00000
43.01985	2490.00000
43.03656	2482.00000
43.05328	2616.00000
43.06999	2646.00000
43.08670	2588.00000
43.10341	2544.00000
43.12012	2491.00000
43.13683	2459.00000
43.15354	2577.00000
43.17025	2498.00000
43.18696	2615.00000
43.20367	2563.00000
43.22039	2539.00000
43.23710	2511.00000
43.25381	2573.00000
43.27052	2593.00000
43.28723	2541.00000
43.30394	2507.00000
43.32065	2518.00000
43.33736	2544.00000
43.35407	2577.00000
43.37078	2525.00000
43.38750	2496.00000
43.40421	2531.00000
43.42092	2553.00000
43.43763	2636.00000
43.45434	2606.00000
43.47105	2598.00000
43.48776	2547.00000
43.50447	2584.00000
43.52118	2691.00000
43.53789	2625.00000
43.55461	2542.00000
43.57132	2520.00000
43.58803	2511.00000
43.60474	2504.00000
43.62145	2583.00000
43.63816	2560.00000
43.65487	2548.00000
43.67158	2503.00000
43.68829	2441.00000
43.70500	2526.00000
43.72172	2557.00000
43.73843	2577.00000
43.75514	2603.00000
43.77185	2591.00000
43.78856	2647.00000
43.80527	2499.00000
43.82198	2572.00000
43.83869	2501.00000
43.85540	2501.00000
43.87211	2428.00000
43.88883	2509.00000
43.90554	2475.00000
43.92225	2475.00000
43.93896	2435.00000
43.95567	2426.00000
43.97238	2517.00000
43.98909	2563.00000
44.00580	2472.00000
44.02251	2454.00000
44.03922	2560.00000
44.05594	2585.00000
44.07265	2610.00000
44.08936	2593.00000
44.10607	2411.00000
44.12278	2482.00000
44.13949	2464.00000
44.15620	2460.00000
44.17291	2559.00000
44.18962	2486.00000
44.20633	2474.00000
44.22305	2576.00000
44.23976	2465.00000
44.25647	2587.00000
44.27318	2447.00000
44.28989	2535.00000
44.30660	2553.00000
44.32331	2577.00000
44.34002	2519.00000
44.35673	2585.00000
44.37344	2602.00000
44.39016	2626.00000
44.40687	2539.00000
44.42358	2566.00000
44.44029	2696.00000
44.45700	2564.00000
44.47371	2634.00000
44.49042	2597.00000
44.50713	2572.00000
44.52384	2606.00000
44.54055	2613.00000
44.55727	2576.00000
44.57398	2616.00000
44.59069	2540.00000
44.60740	2640.00000
44.62411	2626.00000
44.64082	2583.00000
44.65753	2657.00000
44.67424	2510.00000
44.69095	2519.00000
44.70766	2458.00000
44.72438	2474.00000
44.74109	2560.00000
44.75780	2466.00000
44.77451	2530.00000
44.79122	2506.00000
44.80793	2467.00000
44.82464	2468.00000
44.84135	2575.00000
44.85806	2566.00000
44.87477	2486.00000
44.89149	2490.00000
44.90820	2581.00000
44.92491	2527.00000
44.94162	2551.00000
44.95833	2476.00000
44.97504	2488.00000
44.99175	2576.00000
45.00846	2525.00000
45.02517	2527.00000
45.04188	2543.00000
45.05860	2556.00000
45.07531	2407.00000
45.09202	2563.00000
45.10873	2483.00000
45.12544	2547.00000
45.14215	2470.00000
45.15886	2566.00000
45.17557	2579.00000
45.19228	2625.00000
45.20899	2530.00000
45.22571	2504.00000
45.24242	2518.00000
45.25913	2533.00000
45.27584	2576.00000
45.29255	2497.00000
45.30926	2494.00000
45.32597	2474.00000
45.34268	2550.00000
45.35939	2474.00000
45.37610	2502.00000
45.39282	2491.00000
45.40953	2556.00000
45.42624	2609.00000
45.44295	2514.00000
45.45966	2547.00000
45.47637	2373.00000
45.49308	2582.00000
45.50979	2643.00000
45.52650	2596.00000
45.54321	2480.00000
45.55993	2553.00000
45.57664	2705.00000
45.59335	2571.00000
45.61006	2496.00000
45.62677	2595.00000
45.64348	2567.00000
45.66019	2547.00000
45.67690	2583.00000
45.69361	2565.00000
45.71032	2577.00000
45.72704	2648.00000
45.74375	2623.00000
45.76046	2544.00000
45.77717	2469.00000
45.79388	2480.00000
45.81059	2550.00000
45.82730	2509.00000
45.84401	2502.00000
45.86072	2540.00000
45.87743	2544.00000
45.89415	2556.00000
45.91086	2507.00000
45.92757	2602.00000
45.94428	2576.00000
45.96099	2425.00000
45.97770	2554.00000
45.99441	2475.00000
46.01112	2496.00000
46.02783	2567.00000
46.04454	2562.00000
46.06126	2518.00000
46.07797	2540.00000
46.09468	2483.00000
46.11139	2538.00000
46.12810	2467.00000
46.14481	2566.00000
46.16152	2586.00000
46.17823	2486.00000
46.19494	2520.00000
46.21165	2591.00000
46.22837	2581.00000
46.24508	2527.00000
46.26179	2546.00000
46.27850	2497.00000
46.29521	2613.00000
46.31192	2470.00000
46.32863	2652.00000
46.34534	2551.00000
46.36205	2670.00000
46.37876	2567.00000
46.39548	2624.00000
46.41219	2598.00000
46.42890	2606.00000
46.44561	2509.00000
46.46232	2549.00000
46.47903	2559.00000
46.49574	2500.00000
46.51245	2531.00000
46.52916	2573.00000
46.54587	2412.00000
46.56259	2431.00000
46.57930	2508.00000
46.59601	2509.00000
46.61272	2547.00000
46.62943	2571.00000
46.64614	2470.00000
46.66285	2527.00000
46.67956	2562.00000
46.69627	2543.00000
46.71298	2628.00000
46.72970	2626.00000
46.74641	2531.00000
46.76312	2583.00000
46.77983	2631.00000
46.79654	2550.00000
46.81325	2579.00000
46.82996	2625.00000
46.84667	2595.00000
46.86338	2464.00000
46.88009	2596.00000
46.89681	2518.00000
46.91352	2526.00000
46.93023	2466.00000
46.94694	2605.00000
46.96365	2547.00000
46.98036	2531.00000
46.99707	2485.00000
47.01378	2546.00000
47.03049	2532.00000
47.04720	2439.00000
47.06392	2537.00000
47.08063	2633.00000
47.09734	2509.00000
47.11405	2622.00000
47.13076	2501.00000
47.14747	2570.00000
47.16418	2579.00000
47.18089	2719.00000
47.19760	2484.00000
47.21431	2543.00000
47.23103	2521.00000
47.24774	2568.00000
47.26445	2483.00000
47.28116	2529.00000
47.29787	2488.00000
47.31458	2553.00000
47.33129	2638.00000
47.34800	2564.00000
47.36471	2497.00000
47.38142	2566.00000
47.39814	2590.00000
47.41485	2613.00000
47.43156	2642.00000
47.44827	2603.00000
47.46498	2585.00000
47.48169	2527.00000
47.49840	2555.00000
47.51511	2598.00000
47.53182	2525.00000
47.54853	2612.00000
47.56525	2517.00000
47.58196	2434.00000
47.59867	2483.00000
47.61538	2502.00000
47.63209	2560.00000
47.64880	2536.00000
47.66551	2444.00000
47.68222	2493.00000
47.69893	2587.00000
47.71564	2456.00000
47.73236	2540.00000
47.74907	2496.00000
47.76578	2543.00000
47.78249	2568.00000
47.79920	2491.00000
47.81591	2588.00000
47.83262	2582.00000
47.84933	2693.00000
47.86604	2480.00000
47.88275	2473.00000
47.89947	2474.00000
47.91618	2556.00000
47.93289	2461.00000
47.94960	2471.00000
47.96631	2510.00000
47.98302	2494.00000
47.99973	2547.00000
48.01644	2552.00000
48.03315	2568.00000
48.04986	2535.00000
48.06658	2504.00000
48.08329	2452.00000
48.10000	2461.00000
48.11671	2438.00000
48.13342	2422.00000
48.15013	2442.00000
48.16684	2506.00000
48.18355	2393.00000
48.20026	2414.00000
48.21697	2483.00000
48.23369	2411.00000
48.25040	2466.00000
48.26711	2455.00000
48.28382	2329.00000
48.30053	2434.00000
48.31724	2494.00000
48.33395	2523.00000
48.35066	2494.00000
48.36737	2447.00000
48.38408	2531.00000
48.40080	2348.00000
48.41751	2557.00000
48.43422	2508.00000
48.45093	2421.00000
48.46764	2423.00000
48.48435	2487.00000
48.50106	2461.00000
48.51777	2422.00000
48.53448	2350.00000
48.55119	2360.00000
48.56791	2291.00000
48.58462	2342.00000
48.60133	2466.00000
48.61804	2405.00000
48.63475	2399.00000
48.65146	2378.00000
48.66817	2431.00000
48.68488	2470.00000
48.70159	2437.00000
48.71830	2347.00000
48.73502	2379.00000
48.75173	2420.00000
48.76844	2497.00000
48.78515	2311.00000
48.80186	2366.00000
48.81857	2392.00000
48.83528	2452.00000
48.85199	2302.00000
48.86870	2334.00000
48.88541	2265.00000
48.90213	2409.00000
48.91884	2366.00000
48.93555	2428.00000
48.95226	2419.00000
48.96897	2390.00000
48.98568	2399.00000
49.00239	2459.00000
49.01910	2424.00000
49.03581	2402.00000
49.05252	2411.00000
49.06924	2459.00000
49.08595	2489.00000
49.10266	2435.00000
49.11937	2536.00000
49.13608	2471.00000
49.15279	2544.00000
49.16950	2548.00000
49.18621	2412.00000
49.20292	2487.00000
49.21963	2591.00000
49.23635	2502.00000
49.25306	2480.00000
49.26977	2402.00000
49.28648	2360.00000
49.30319	2388.00000
49.31990	2464.00000
49.33661	2397.00000
49.35332	2412.00000
49.37003	2481.00000
49.38674	2497.00000
49.40346	2507.00000
49.42017	2367.00000
49.43688	2472.00000
49.45359	2450.00000
49.47030	2483.00000
49.48701	2472.00000
49.50372	2493.00000
49.52043	2395.00000
49.53714	2431.00000
49.55385	2513.00000
49.57057	2464.00000
49.58728	2524.00000
49.60399	2353.00000
49.62070	2340.00000
49.63741	2461.00000
49.65412	2400.00000
49.67083	2409.00000
49.68754	2493.00000
49.70425	2358.00000
49.72096	2523.00000
49.73768	2419.00000
49.75439	2388.00000
49.77110	2415.00000
49.78781	2406.00000
49.80452	2345.00000
49.82123	2359.00000
49.83794	2394.00000
49.85465	2339.00000
49.87136	2412.00000
49.88807	2371.00000
49.90479	2424.00000
49.92150	2351.00000
49.93821	2328.00000
49.95492	2414.00000
49.97163	2473.00000
49.98834	2358.00000
