15.04300	2157.00000
15.06000	2186.00000
15.07700	2151.00000
15.09400	2256.00000
15.11100	2148.00000
15.12800	2208.00000
15.14500	2246.00000
15.16200	2196.00000
15.17900	2261.00000
15.19600	2219.00000
15.21300	2236.00000
15.23000	2229.00000
15.24700	2255.00000
15.26400	2135.00000
15.28100	2200.00000
15.29800	2312.00000
15.31500	2266.00000
15.33200	2232.00000
15.34900	2105.00000
15.36600	2209.00000
15.38300	2298.00000
15.40000	2336.00000
15.41700	2365.00000
15.43400	2296.00000
15.45100	2261.00000
15.46800	2270.00000
15.48500	2320.00000
15.50200	2345.00000
15.51900	2320.00000
15.53600	2356.00000
15.55300	2360.00000
15.57000	2210.00000
15.58700	2300.00000
15.60400	2221.00000
15.62100	2203.00000
15.63800	2241.00000
15.65500	2189.00000
15.67200	2278.00000
15.68900	2249.00000
15.70600	2289.00000
15.72300	2280.00000
15.74000	2229.00000
15.75700	2257.00000
15.77400	2252.00000
15.79100	2197.00000
15.80800	2197.00000
15.82500	2332.00000
15.84200	2295.00000
15.85900	2188.00000
15.87600	2248.00000
15.89300	2276.00000
15.91000	2170.00000
15.92700	2190.00000
15.94400	2199.00000
15.96100	2250.00000
15.97800	2231.00000
15.99500	2318.00000
16.01200	2295.00000
16.02900	2289.00000
16.04600	2277.00000
16.06300	2362.00000
16.08000	2330.00000
16.09700	2295.00000
16.11400	2333.00000
16.13100	2345.00000
16.14800	2270.00000
16.16500	2353.00000
16.18200	2328.00000
16.19900	2254.00000
16.21600	2255.00000
16.23300	2238.00000
16.25000	2248.00000
16.26700	2208.00000
16.28400	2221.00000
16.30100	2296.00000
16.31800	2275.00000
16.33500	2284.00000
16.35200	2265.00000
16.36900	2224.00000
16.38600	2214.00000
16.40300	2332.00000
16.42000	2298.00000
16.43700	2264.00000
16.45400	2302.00000
16.47100	2312.00000
16.48800	2332.00000
16.50500	2307.00000
16.52200	2289.00000
16.53900	2352.00000
16.55600	2336.00000
16.57300	2288.00000
16.59000	2218.00000
16.60700	2237.00000
16.62400	2295.00000
16.64100	2291.00000
16.65800	2265.00000
16.67500	2248.00000
16.69200	2301.00000
16.70900	2271.00000
16.72600	2324.00000
16.74300	2272.00000
16.76000	2331.00000
16.77700	2311.00000
16.79400	2342.00000
16.81100	2276.00000
16.82800	2326.00000
16.84500	2389.00000
16.86200	2426.00000
16.87900	2284.00000
16.89600	2365.00000
16.91300	2278.00000
16.93000	2263.00000
16.94700	2263.00000
16.96400	2248.00000
16.98100	2269.00000
16.99800	2264.00000
17.01500	2320.00000
17.03200	2331.00000
17.04900	2278.00000
17.06600	2345.00000
17.08300	2379.00000
17.10000	2309.00000
17.11700	2275.00000
17.13400	2337.00000
17.15100	2454.00000
17.16800	2410.00000
17.18500	2303.00000
17.20200	2323.00000
17.21900	2307.00000
17.23600	2271.00000
17.25300	2334.00000
17.27000	2378.00000
17.28700	2435.00000
17.30400	2424.00000
17.32100	2293.00000
17.33800	2338.00000
17.35500	2217.00000
17.37200	2292.00000
17.38900	2409.00000
17.40600	2372.00000
17.42300	2338.00000
17.44000	2384.00000
17.45700	2409.00000
17.47400	2416.00000
17.49100	2329.00000
17.50800	2286.00000
17.52500	2297.00000
17.54200	2289.00000
17.55900	2418.00000
17.57600	2378.00000
17.59300	2333.00000
17.61000	2261.00000
17.62700	2271.00000
17.64400	2321.00000
17.66100	2361.00000
17.67800	2288.00000
17.69500	2330.00000
17.71200	2351.00000
17.72900	2367.00000
17.74600	2282.00000
17.76300	2345.00000
17.78000	2313.00000
17.79700	2360.00000
17.81400	2318.00000
17.83100	2184.00000
17.84800	2279.00000
17.86500	2330.00000
17.88200	2346.00000
17.89900	2349.00000
17.91600	2355.00000
17.93300	2372.00000
17.95000	2366.00000
17.96700	2381.00000
17.98400	2342.00000
18.00100	2325.00000
18.01800	2404.00000
18.03500	2390.00000
18.05200	2414.00000
18.06900	2424.00000
18.08600	2418.00000
18.10300	2367.00000
18.12000	2451.00000
18.13700	2428.00000
18.15400	2471.00000
18.17100	2396.00000
18.18800	2365.00000
18.20500	2391.00000
18.22200	2352.00000
18.23900	2326.00000
18.25600	2507.00000
18.27300	2528.00000
18.29000	2413.00000
18.30700	2454.00000
18.32400	2485.00000
18.34100	2412.00000
18.35800	2479.00000
18.37500	2479.00000
18.39200	2374.00000
18.40900	2461.00000
18.42600	2473.00000
18.44300	2416.00000
18.46000	2433.00000
18.47700	2417.00000
18.49400	2376.00000
18.51100	2345.00000
18.52800	2345.00000
18.54500	2343.00000
18.56200	2494.00000
18.57900	2492.00000
18.59600	2545.00000
18.61300	2487.00000
18.63000	2415.00000
18.64700	2355.00000
18.66400	2317.00000
18.68100	2343.00000
18.69800	2346.00000
18.71500	2518.00000
18.73200	2421.00000
18.74900	2339.00000
18.76600	2416.00000
18.78300	2562.00000
18.80000	2408.00000
18.81700	2387.00000
18.83400	2413.00000
18.85100	2444.00000
18.86800	2536.00000
18.88500	2457.00000
18.90200	2545.00000
18.91900	2450.00000
18.93600	2399.00000
18.95300	2364.00000
18.97000	2405.00000
18.98700	2360.00000
19.00400	2462.00000
19.02100	2522.00000
19.03800	2419.00000
19.05500	2366.00000
19.07200	2413.00000
19.08900	2452.00000
19.10600	2391.00000
19.12300	2458.00000
19.14000	2489.00000
19.15700	2528.00000
19.17400	2487.00000
19.19100	2442.00000
19.20800	2416.00000
19.22500	2455.00000
19.24200	2539.00000
19.25900	2502.00000
19.27600	2507.00000
19.29300	2527.00000
19.31000	2583.00000
19.32700	2622.00000
19.34400	2596.00000
19.36100	2569.00000
19.37800	2559.00000
19.39500	2445.00000
19.41200	2452.00000
19.42900	2532.00000
19.44600	2557.00000
19.46300	2606.00000
19.48000	2557.00000
19.49700	2404.00000
19.51400	2496.00000
19.53100	2520.00000
19.54800	2512.00000
19.56500	2565.00000
19.58200	2550.00000
19.59900	2544.00000
19.61600	2519.00000
19.63300	2394.00000
19.65000	2510.00000
19.66700	2495.00000
19.68400	2522.00000
19.70100	2528.00000
19.71800	2472.00000
19.73500	2535.00000
19.75200	2587.00000
19.76900	2493.00000
19.78600	2510.00000
19.80300	2527.00000
19.82000	2574.00000
19.83700	2476.00000
19.85400	2507.00000
19.87100	2526.00000
19.88800	2533.00000
19.90500	2560.00000
19.92200	2530.00000
19.93900	2558.00000
19.95600	2517.00000
19.97300	2432.00000
19.99000	2480.00000
20.00700	2504.00000
20.02400	2539.00000
20.04100	2586.00000
20.05800	2626.00000
20.07500	2596.00000
20.09200	2519.00000
20.10900	2606.00000
20.12600	2651.00000
20.14300	2513.00000
20.16000	2473.00000
20.17700	2569.00000
20.19400	2651.00000
20.21100	2617.00000
20.22800	2670.00000
20.24500	2571.00000
20.26200	2485.00000
20.27900	2536.00000
20.29600	2559.00000
20.31300	2656.00000
20.33000	2569.00000
20.34700	2585.00000
20.36400	2600.00000
20.38100	2509.00000
20.39800	2468.00000
20.41500	2658.00000
20.43200	2715.00000
20.44900	2610.00000
20.46600	2652.00000
20.48300	2650.00000
20.50000	2540.00000
20.51700	2586.00000
20.53400	2618.00000
20.55100	2549.00000
20.56800	2585.00000
20.58500	2527.00000
20.60200	2624.00000
20.61900	2490.00000
20.63600	2591.00000
20.65300	2567.00000
20.67000	2621.00000
20.68700	2550.00000
20.70400	2641.00000
20.72100	2574.00000
20.73800	2570.00000
20.75500	2665.00000
20.77200	2637.00000
20.78900	2583.00000
20.80600	2583.00000
20.82300	2602.00000
20.84000	2600.00000
20.85700	2682.00000
20.87400	2693.00000
20.89100	2691.00000
20.90800	2685.00000
20.92500	2705.00000
20.94200	2642.00000
20.95900	2609.00000
20.97600	2596.00000
20.99300	2581.00000
21.01000	2606.00000
21.02700	2559.00000
21.04400	2560.00000
21.06100	2636.00000
21.07800	2628.00000
21.09500	2614.00000
21.11200	2537.00000
21.12900	2602.00000
21.14600	2657.00000
21.16300	2633.00000
21.18000	2582.00000
21.19700	2563.00000
21.21400	2645.00000
21.23100	2553.00000
21.24800	2629.00000
21.26500	2716.00000
21.28200	2674.00000
21.29900	2698.00000
21.31600	2626.00000
21.33300	2610.00000
21.35000	2701.00000
21.36700	2735.00000
21.38400	2699.00000
21.40100	2595.00000
21.41800	2672.00000
21.43500	2812.00000
21.45200	2801.00000
21.46900	2662.00000
21.48600	2703.00000
21.50300	2561.00000
21.52000	2701.00000
21.53700	2854.00000
21.55400	2788.00000
21.57100	2714.00000
21.58800	2705.00000
21.60500	2747.00000
21.62200	2632.00000
21.63900	2808.00000
21.65600	2766.00000
21.67300	2795.00000
21.69000	2850.00000
21.70700	2809.00000
21.72400	2779.00000
21.74100	2833.00000
21.75800	2795.00000
21.77500	2834.00000
21.79200	2790.00000
21.80900	2826.00000
21.82600	2743.00000
21.84300	2945.00000
21.86000	2764.00000
21.87700	2751.00000
21.89400	2735.00000
21.91100	2724.00000
21.92800	2789.00000
21.94500	2751.00000
21.96200	2809.00000
21.97900	2813.00000
21.99600	2852.00000
22.01300	2803.00000
22.03000	2797.00000
22.04700	2746.00000
22.06400	2771.00000
22.08100	2835.00000
22.09800	2809.00000
22.11500	2780.00000
22.13200	2868.00000
22.14900	2843.00000
22.16600	2832.00000
22.18300	2815.00000
22.20000	2753.00000
22.21700	2771.00000
22.23400	2778.00000
22.25100	2700.00000
22.26800	2776.00000
22.28500	2928.00000
22.30200	2844.00000
22.31900	2798.00000
22.33600	2791.00000
22.35300	2827.00000
22.37000	2761.00000
22.38700	2809.00000
22.40400	2762.00000
22.42100	2881.00000
22.43800	2829.00000
22.45500	2772.00000
22.47200	2824.00000
22.48900	2748.00000
22.50600	2705.00000
22.52300	2733.00000
22.54000	2681.00000
22.55700	2792.00000
22.57400	2846.00000
22.59100	2857.00000
22.60800	2823.00000
22.62500	2762.00000
22.64200	2813.00000
22.65900	2824.00000
22.67600	2757.00000
22.69300	2677.00000
22.71000	2743.00000
22.72700	2829.00000
22.74400	2837.00000
22.76100	2770.00000
22.77800	2779.00000
22.79500	2855.00000
22.81200	2941.00000
22.82900	2862.00000
22.84600	2854.00000
22.86300	2833.00000
22.88000	2843.00000
22.89700	2794.00000
22.91400	2895.00000
22.93100	2826.00000
22.94800	2700.00000
22.96500	2782.00000
22.98200	2862.00000
22.99900	2724.00000
23.01600	2752.00000
23.03300	2824.00000
23.05000	2813.00000
23.06700	2857.00000
23.08400	2828.00000
23.10100	2789.00000
23.11800	2792.00000
23.13500	2771.00000
23.15200	2816.00000
23.16900	2839.00000
23.18600	2833.00000
23.20300	2868.00000
23.22000	2886.00000
23.23700	2784.00000
23.25400	2787.00000
23.27100	2781.00000
23.28800	2769.00000
23.30500	2798.00000
23.32200	2673.00000
23.33900	2767.00000
23.35600	2818.00000
23.37300	2815.00000
23.39000	2907.00000
23.40700	2872.00000
23.42400	2904.00000
23.44100	2907.00000
23.45800	2930.00000
23.47500	2929.00000
23.49200	2790.00000
23.50900	2775.00000
23.52600	2792.00000
23.54300	2793.00000
23.56000	2857.00000
23.57700	2885.00000
23.59400	2940.00000
23.61100	2841.00000
23.62800	2996.00000
23.64500	2991.00000
23.66200	3024.00000
23.67900	3009.00000
23.69600	2933.00000
23.71300	2957.00000
23.73000	2865.00000
23.74700	2956.00000
23.76400	2971.00000
23.78100	2917.00000
23.79800	2925.00000
23.81500	2876.00000
23.83200	2978.00000
23.84900	2980.00000
23.86600	3040.00000
23.88300	2956.00000
23.90000	3063.00000
23.91700	3085.00000
23.93400	3038.00000
23.95100	3200.00000
23.96800	3121.00000
23.98500	2953.00000
24.00200	3035.00000
24.01900	3094.00000
24.03600	3085.00000
24.05300	2941.00000
24.07000	2935.00000
24.08700	2967.00000
24.10400	2909.00000
24.12100	2879.00000
24.13800	2977.00000
24.15500	2959.00000
24.17200	2947.00000
24.18900	2981.00000
24.20600	2976.00000
24.22300	2919.00000
24.24000	2932.00000
24.25700	2864.00000
24.27400	2842.00000
24.29100	2812.00000
24.30800	2900.00000
24.32500	2954.00000
24.34200	2919.00000
24.35900	2884.00000
24.37600	2895.00000
24.39300	2917.00000
24.41000	2809.00000
24.42700	2937.00000
24.44400	2972.00000
24.46100	3029.00000
24.47800	2950.00000
24.49500	2900.00000
24.51200	2885.00000
24.52900	2932.00000
24.54600	2902.00000
24.56300	2872.00000
24.58000	2924.00000
24.59700	2993.00000
24.61400	2923.00000
24.63100	2854.00000
24.64800	2898.00000
24.66500	2950.00000
24.68200	2910.00000
24.69900	2964.00000
24.71600	2952.00000
24.73300	2891.00000
24.75000	2961.00000
24.76700	2994.00000
24.78400	2939.00000
24.80100	3047.00000
24.81800	3072.00000
24.83500	3096.00000
24.85200	3075.00000
24.86900	3053.00000
24.88600	3054.00000
24.90300	3147.00000
24.92000	3147.00000
24.93700	3078.00000
24.95400	2973.00000
24.97100	2971.00000
24.98800	2915.00000
25.00500	3036.00000
25.02200	3043.00000
25.03900	3016.00000
25.05600	2961.00000
25.07300	3099.00000
25.09000	3112.00000
25.10700	3115.00000
25.12400	3078.00000
25.14100	3041.00000
25.15800	3083.00000
25.17500	3160.00000
25.19200	3068.00000
25.20900	3056.00000
25.22600	3219.00000
25.24300	3119.00000
25.26000	3082.00000
25.27700	3043.00000
25.29400	3137.00000
25.31100	3162.00000
25.32800	3291.00000
25.34500	3293.00000
25.36200	3192.00000
25.37900	3166.00000
25.39600	3125.00000
25.41300	3096.00000
25.43000	3211.00000
25.44700	3227.00000
25.46400	3181.00000
25.48100	3190.00000
25.49800	3278.00000
25.51500	3257.00000
25.53200	3180.00000
25.54900	3140.00000
25.56600	3181.00000
25.58300	3280.00000
25.60000	3229.00000
25.61700	3192.00000
25.63400	3194.00000
25.65100	3319.00000
25.66800	3336.00000
25.68500	3265.00000
25.70200	3289.00000
25.71900	3336.00000
25.73600	3335.00000
25.75300	3478.00000
25.77000	3498.00000
25.78700	3555.00000
25.80400	3563.00000
25.82100	3630.00000
25.83800	3641.00000
25.85500	3682.00000
25.87200	3685.00000
25.88900	3771.00000
25.90600	3717.00000
25.92300	3778.00000
25.94000	3755.00000
25.95700	3908.00000
25.97400	3982.00000
25.99100	3991.00000
26.00800	4144.00000
26.02500	4139.00000
26.04200	4269.00000
26.05900	4368.00000
26.07600	4421.00000
26.09300	4582.00000
26.11000	4771.00000
26.12700	5013.00000
26.14400	5250.00000
26.16100	5474.00000
26.17800	5836.00000
26.19500	6228.00000
26.21200	6721.00000
26.22900	7464.00000
26.24600	8329.00000
26.26300	9422.00000
26.28000	10777.00000
26.29700	12932.00000
26.31400	15997.00000
26.33100	19800.00000
26.34800	24405.00000
26.36500	29647.00000
26.38200	34766.00000
26.39900	40567.00000
26.41600	45556.00000
26.43300	49620.00000
26.45000	51807.00000
26.46700	51377.00000
26.48400	47603.00000
26.50100	42454.00000
26.51800	36451.00000
26.53500	29110.00000
26.55200	23360.00000
26.56900	18668.00000
26.58600	14534.00000
26.60300	11511.00000
26.62000	9840.00000
26.63700	8420.00000
26.65400	7454.00000
26.67100	6851.00000
26.68800	6239.00000
26.70500	5782.00000
26.72200	5356.00000
26.73900	5093.00000
26.75600	4814.00000
26.77300	4683.00000
26.79000	4508.00000
26.80700	4365.00000
26.82400	4406.00000
26.84100	4145.00000
26.85800	3901.00000
26.87500	3920.00000
26.89200	3843.00000
26.90900	3814.00000
26.92600	3837.00000
26.94300	3651.00000
26.96000	3646.00000
26.97700	3596.00000
26.99400	3658.00000
27.01100	3601.00000
27.02800	3524.00000
27.04500	3482.00000
27.06200	3459.00000
27.07900	3479.00000
27.09600	3449.00000
27.11300	3444.00000
27.13000	3403.00000
27.14700	3400.00000
27.16400	3391.00000
27.18100	3369.00000
27.19800	3327.00000
27.21500	3296.00000
27.23200	3195.00000
27.24900	3254.00000
27.26600	3315.00000
27.28300	3232.00000
27.30000	3292.00000
27.31700	3268.00000
27.33400	3236.00000
27.35100	3278.00000
27.36800	3258.00000
27.38500	3108.00000
27.40200	3116.00000
27.41900	3173.00000
27.43600	3191.00000
27.45300	3197.00000
27.47000	3101.00000
27.48700	3139.00000
27.50400	3101.00000
27.52100	3132.00000
27.53800	2911.00000
27.55500	3107.00000
27.57200	3128.00000
27.58900	3141.00000
27.60600	3075.00000
27.62300	3053.00000
27.64000	3095.00000
27.65700	3102.00000
27.67400	3070.00000
27.69100	3084.00000
27.70800	3044.00000
27.72500	3105.00000
27.74200	3025.00000
27.75900	3047.00000
27.77600	3024.00000
27.79300	2924.00000
27.81000	2991.00000
27.82700	3080.00000
27.84400	2984.00000
27.86100	3158.00000
27.87800	3132.00000
27.89500	2981.00000
27.91200	3011.00000
27.92900	3032.00000
27.94600	2944.00000
27.96300	2973.00000
27.98000	2982.00000
27.99700	2968.00000
28.01400	3049.00000
28.03100	3079.00000
28.04800	3112.00000
28.06500	3010.00000
28.08200	2977.00000
28.09900	3054.00000
28.11600	3070.00000
28.13300	3060.00000
28.15000	3018.00000
28.16700	3010.00000
28.18400	3054.00000
28.20100	3119.00000
28.21800	3204.00000
28.23500	3113.00000
28.25200	3078.00000
28.26900	3090.00000
28.28600	2994.00000
28.30300	3070.00000
28.32000	3073.00000
28.33700	3077.00000
28.35400	3064.00000
28.37100	3037.00000
28.38800	2954.00000
28.40500	2905.00000
28.42200	3039.00000
28.43900	3013.00000
28.45600	3008.00000
28.47300	2911.00000
28.49000	2996.00000
28.50700	2929.00000
28.52400	2930.00000
28.54100	2949.00000
28.55800	3048.00000
28.57500	3088.00000
28.59200	3020.00000
28.60900	3097.00000
28.62600	3000.00000
28.64300	3029.00000
28.66000	3039.00000
28.67700	3015.00000
28.69400	2889.00000
28.71100	2955.00000
28.72800	2939.00000
28.74500	3039.00000
28.76200	2910.00000
28.77900	3054.00000
28.79600	2921.00000
28.81300	3014.00000
28.83000	2958.00000
28.84700	3006.00000
28.86400	2902.00000
28.88100	2963.00000
28.89800	2916.00000
28.91500	2926.00000
28.93200	2965.00000
28.94900	2963.00000
28.96600	2858.00000
28.98300	2823.00000
29.00000	2920.00000
29.01700	2827.00000
29.03400	2847.00000
29.05100	2900.00000
29.06800	2963.00000
29.08500	2919.00000
29.10200	2891.00000
29.11900	2978.00000
29.13600	2919.00000
29.15300	2903.00000
29.17000	2943.00000
29.18700	3012.00000
29.20400	2895.00000
29.22100	2873.00000
29.23800	2914.00000
29.25500	2897.00000
29.27200	2941.00000
29.28900	2986.00000
29.30600	2937.00000
29.32300	2979.00000
29.34000	2978.00000
29.35700	2976.00000
29.37400	3057.00000
29.39100	2919.00000
29.40800	2847.00000
29.42500	2896.00000
29.44200	2963.00000
29.45900	2966.00000
29.47600	2962.00000
29.49300	2982.00000
29.51000	2934.00000
29.52700	2910.00000
29.54400	2888.00000
29.56100	2991.00000
29.57800	2867.00000
29.59500	3008.00000
29.61200	3030.00000
29.62900	2869.00000
29.64600	2947.00000
29.66300	2911.00000
29.68000	2889.00000
29.69700	2856.00000
29.71400	2796.00000
29.73100	2898.00000
29.74800	2875.00000
29.76500	2927.00000
29.78200	2971.00000
29.79900	2957.00000
29.81600	2952.00000
29.83300	2909.00000
29.85000	2920.00000
29.86700	2975.00000
29.88400	3002.00000
29.90100	2941.00000
29.91800	2928.00000
29.93500	2918.00000
29.95200	2895.00000
29.96900	2909.00000
29.98600	2921.00000
30.00300	2861.00000
30.02000	2865.00000
30.03700	2836.00000
30.05400	2872.00000
30.07100	2874.00000
30.08800	2922.00000
30.10500	2948.00000
30.12200	2795.00000
30.13900	2785.00000
30.15600	2874.00000
30.17300	2907.00000
30.19000	2982.00000
30.20700	2864.00000
30.22400	2818.00000
30.24100	2744.00000
30.25800	2820.00000
30.27500	2765.00000
30.29200	2775.00000
30.30900	2816.00000
30.32600	2836.00000
30.34300	2861.00000
30.36000	2739.00000
30.37700	2867.00000
30.39400	2811.00000
30.41100	2884.00000
30.42800	2898.00000
30.44500	2851.00000
30.46200	2865.00000
30.47900	2871.00000
30.49600	2867.00000
30.51300	2975.00000
30.53000	2911.00000
30.54700	2922.00000
30.56400	2895.00000
30.58100	2894.00000
30.59800	2871.00000
30.61500	2797.00000
30.63200	2843.00000
30.64900	2936.00000
30.66600	2881.00000
30.68300	2879.00000
30.70000	2998.00000
30.71700	2853.00000
30.73400	2905.00000
30.75100	2924.00000
30.76800	2923.00000
30.78500	2878.00000
30.80200	2905.00000
30.81900	2961.00000
30.83600	2967.00000
30.85300	2866.00000
30.87000	3007.00000
30.88700	2913.00000
30.90400	2934.00000
30.92100	2962.00000
30.93800	2959.00000
30.95500	2897.00000
30.97200	2968.00000
30.98900	3067.00000
31.00600	2930.00000
31.02300	2888.00000
31.04000	3010.00000
31.05700	2958.00000
31.07400	2905.00000
31.09100	2886.00000
31.10800	2894.00000
31.12500	2924.00000
31.14200	2890.00000
31.15900	2902.00000
31.17600	2926.00000
31.19300	2931.00000
31.21000	2970.00000
31.22700	2859.00000
31.24400	2922.00000
31.26100	3032.00000
31.27800	2976.00000
31.29500	2875.00000
31.31200	2928.00000
31.32900	2881.00000
31.34600	3036.00000
31.36300	2963.00000
31.38000	3010.00000
31.39700	3082.00000
31.41400	2874.00000
31.43100	2927.00000
31.44800	2865.00000
31.46500	2913.00000
31.48200	2846.00000
31.49900	2863.00000
31.51600	2928.00000
31.53300	2984.00000
31.55000	2774.00000
31.56700	2916.00000
31.58400	2936.00000
31.60100	2855.00000
31.61800	2895.00000
31.63500	2866.00000
31.65200	2904.00000
31.66900	2798.00000
31.68600	2817.00000
31.70300	2792.00000
31.72000	2702.00000
31.73700	2781.00000
31.75400	2724.00000
31.77100	2831.00000
31.78800	2848.00000
31.80500	2854.00000
31.82200	2893.00000
31.83900	2826.00000
31.85600	2967.00000
31.87300	2940.00000
31.89000	2884.00000
31.90700	2905.00000
31.92400	2849.00000
31.94100	2823.00000
31.95800	2751.00000
31.97500	2759.00000
31.99200	2913.00000
32.00900	3008.00000
32.02600	2942.00000
32.04300	2917.00000
32.06000	2806.00000
32.07700	2834.00000
32.09400	2903.00000
32.11100	2890.00000
32.12800	2864.00000
32.14500	2912.00000
32.16200	2846.00000
32.17900	2918.00000
32.19600	2840.00000
32.21300	2702.00000
32.23000	2808.00000
32.24700	2963.00000
32.26400	2841.00000
32.28100	2827.00000
32.29800	2758.00000
32.31500	2881.00000
32.33200	2831.00000
32.34900	2885.00000
32.36600	2744.00000
32.38300	2875.00000
32.40000	2879.00000
32.41700	2889.00000
32.43400	2873.00000
32.45100	2896.00000
32.46800	2964.00000
32.48500	3006.00000
32.50200	2934.00000
32.51900	2868.00000
32.53600	2971.00000
32.55300	2849.00000
32.57000	2772.00000
32.58700	2850.00000
32.60400	2850.00000
32.62100	2933.00000
32.63800	2863.00000
32.65500	2856.00000
32.67200	2868.00000
32.68900	2891.00000
32.70600	2865.00000
32.72300	2810.00000
32.74000	2869.00000
32.75700	2880.00000
32.77400	2819.00000
32.79100	2852.00000
32.80800	2928.00000
32.82500	2850.00000
32.84200	2758.00000
32.85900	2872.00000
32.87600	2850.00000
32.89300	2857.00000
32.91000	2829.00000
32.92700	2815.00000
32.94400	2821.00000
32.96100	2947.00000
32.97800	2958.00000
32.99500	2963.00000
33.01200	2960.00000
33.02900	2865.00000
33.04600	2874.00000
33.06300	2925.00000
33.08000	2919.00000
33.09700	2932.00000
33.11400	2926.00000
33.13100	2824.00000
33.14800	2938.00000
33.16500	3019.00000
33.18200	2874.00000
33.19900	2754.00000
33.21600	2848.00000
33.23300	2822.00000
33.25000	2885.00000
33.26700	2909.00000
33.28400	2784.00000
33.30100	2986.00000
33.31800	2947.00000
33.33500	2914.00000
33.35200	2826.00000
33.36900	2761.00000
33.38600	2836.00000
33.40300	2870.00000
33.42000	2832.00000
33.43700	2745.00000
33.45400	2730.00000
33.47100	2735.00000
33.48800	2830.00000
33.50500	2797.00000
33.52200	2739.00000
33.53900	2858.00000
33.55600	2851.00000
33.57300	2832.00000
33.59000	2879.00000
33.60700	2828.00000
33.62400	2898.00000
33.64100	2824.00000
33.65800	2912.00000
33.67500	2955.00000
33.69200	2807.00000
33.70900	2889.00000
33.72600	2850.00000
33.74300	2821.00000
33.76000	2855.00000
33.77700	2854.00000
33.79400	2840.00000
33.81100	2807.00000
33.82800	2858.00000
33.84500	2805.00000
33.86200	2867.00000
33.87900	2903.00000
33.89600	2872.00000
33.91300	2863.00000
33.93000	2776.00000
33.94700	2836.00000
33.96400	2958.00000
33.98100	2836.00000
33.99800	2815.00000
34.01500	2850.00000
34.03200	2903.00000
34.04900	2966.00000
34.06600	2888.00000
34.08300	2980.00000
34.10000	2977.00000
34.11700	2889.00000
34.13400	2877.00000
34.15100	2842.00000
34.16800	2793.00000
34.18500	2772.00000
34.20200	2893.00000
34.21900	2798.00000
34.23600	2858.00000
34.25300	2830.00000
34.27000	2861.00000
34.28700	2821.00000
34.30400	2829.00000
34.32100	2751.00000
34.33800	2754.00000
34.35500	2708.00000
34.37200	2817.00000
34.38900	2680.00000
34.40600	2818.00000
34.42300	2807.00000
34.44000	2790.00000
34.45700	2851.00000
34.47400	2886.00000
34.49100	2841.00000
34.50800	2862.00000
34.52500	2852.00000
34.54200	2893.00000
34.55900	2921.00000
34.57600	2866.00000
34.59300	2863.00000
34.61000	2783.00000
34.62700	2845.00000
34.64400	2881.00000
34.66100	2841.00000
34.67800	2835.00000
34.69500	2888.00000
34.71200	2835.00000
34.72900	2837.00000
34.74600	2799.00000
34.76300	2770.00000
34.78000	2769.00000
34.79700	2750.00000
34.81400	2811.00000
34.83100	2737.00000
34.84800	2693.00000
34.86500	2733.00000
34.88200	2878.00000
34.89900	2913.00000
34.91600	2794.00000
34.93300	2822.00000
34.95000	2862.00000
34.96700	2820.00000
34.98400	2775.00000
35.00100	2690.00000
35.01800	2750.00000
35.03500	2806.00000
35.05200	2800.00000
35.06900	2790.00000
35.08600	2777.00000
35.10300	2894.00000
35.12000	2800.00000
35.13700	2758.00000
35.15400	2729.00000
35.17100	2671.00000
35.18800	2773.00000
35.20500	2812.00000
35.22200	2811.00000
35.23900	2822.00000
35.25600	2816.00000
35.27300	2817.00000
35.29000	2752.00000
35.30700	2862.00000
35.32400	2948.00000
35.34100	2787.00000
35.35800	2770.00000
35.37500	2717.00000
35.39200	2795.00000
35.40900	2743.00000
35.42600	2806.00000
35.44300	2795.00000
35.46000	2860.00000
35.47700	2773.00000
35.49400	2755.00000
35.51100	2727.00000
35.52800	2792.00000
35.54500	2748.00000
35.56200	2846.00000
35.57900	2743.00000
35.59600	2711.00000
35.61300	2876.00000
35.63000	2812.00000
35.64700	2704.00000
35.66400	2846.00000
35.68100	2796.00000
35.69800	2742.00000
35.71500	2722.00000
35.73200	2834.00000
35.74900	2888.00000
35.76600	2850.00000
35.78300	2840.00000
35.80000	2910.00000
35.81700	2805.00000
35.83400	2860.00000
35.85100	2921.00000
35.86800	2886.00000
35.88500	2850.00000
35.90200	2827.00000
35.91900	2885.00000
35.93600	2880.00000
35.95300	2820.00000
35.97000	2906.00000
35.98700	2779.00000
36.00400	2690.00000
36.02100	2773.00000
36.03800	2849.00000
36.05500	2791.00000
36.07200	2790.00000
36.08900	2769.00000
36.10600	2750.00000
36.12300	2846.00000
36.14000	2801.00000
36.15700	2755.00000
36.17400	2723.00000
36.19100	2819.00000
36.20800	2780.00000
36.22500	2905.00000
36.24200	2762.00000
36.25900	2816.00000
36.27600	2891.00000
36.29300	2851.00000
36.31000	2864.00000
36.32700	2903.00000
36.34400	2902.00000
36.36100	2808.00000
36.37800	2856.00000
36.39500	2894.00000
36.41200	2875.00000
36.42900	2955.00000
36.44600	2869.00000
36.46300	3006.00000
36.48000	2956.00000
36.49700	2994.00000
36.51400	2983.00000
36.53100	2996.00000
36.54800	2925.00000
36.56500	2851.00000
36.58200	2875.00000
36.59900	3023.00000
36.61600	3029.00000
36.63300	3057.00000
36.65000	2992.00000
36.66700	2989.00000
36.68400	3173.00000
36.70100	3151.00000
36.71800	3113.00000
36.73500	3171.00000
36.75200	3169.00000
36.76900	3272.00000
36.78600	3179.00000
36.80300	3191.00000
36.82000	3312.00000
36.83700	3239.00000
36.85400	3233.00000
36.87100	3231.00000
36.88800	3246.00000
36.90500	3232.00000
36.92200	3347.00000
36.93900	3387.00000
36.95600	3316.00000
36.97300	3355.00000
36.99000	3337.00000
37.00700	3348.00000
37.02400	3438.00000
37.04100	3412.00000
37.05800	3404.00000
37.07500	3448.00000
37.09200	3597.00000
37.10900	3579.00000
37.12600	3572.00000
37.14300	3549.00000
37.16000	3627.00000
37.17700	3592.00000
37.19400	3598.00000
37.21100	3677.00000
37.22800	3745.00000
37.24500	3734.00000
37.26200	3862.00000
37.27900	3849.00000
37.29600	4061.00000
37.31300	4220.00000
37.33000	4344.00000
37.34700	4466.00000
37.36400	4577.00000
37.38100	4605.00000
37.39800	4936.00000
37.41500	5282.00000
37.43200	5403.00000
37.44900	5741.00000
37.46600	6156.00000
37.48300	6622.00000
37.50000	7232.00000
37.51700	7937.00000
37.53400	8351.00000
37.55100	9176.00000
37.56800	10718.00000
37.58500	12223.00000
37.60200	14404.00000
37.61900	17482.00000
37.63600	21710.00000
37.65300	27334.00000
37.67000	33497.00000
37.68700	40183.00000
37.70400	47319.00000
37.72100	52659.00000
37.73800	55916.00000
37.75500	55735.00000
37.77200	53032.00000
37.78900	48271.00000
37.80600	43979.00000
37.82300	39423.00000
37.84000	33887.00000
37.85700	28106.00000
37.87400	22876.00000
37.89100	18669.00000
37.90800	15427.00000
37.92500	12738.00000
37.94200	10724.00000
37.95900	9382.00000
37.97600	8201.00000
37.99300	7419.00000
38.01000	6815.00000
38.02700	6246.00000
38.04400	5796.00000
38.06100	5402.00000
38.07800	5102.00000
38.09500	4898.00000
38.11200	4627.00000
38.12900	4477.00000
38.14600	4372.00000
38.16300	4264.00000
38.18000	4198.00000
38.19700	4057.00000
38.21400	3873.00000
38.23100	3884.00000
38.24800	3749.00000
38.26500	3675.00000
38.28200	3642.00000
38.29900	3718.00000
38.31600	3614.00000
38.33300	3482.00000
38.35000	3434.00000
38.36700	3400.00000
38.38400	3390.00000
38.40100	3335.00000
38.41800	3313.00000
38.43500	3364.00000
38.45200	3361.00000
38.46900	3312.00000
38.48600	3133.00000
38.50300	3175.00000
38.52000	3192.00000
38.53700	3213.00000
38.55400	3204.00000
38.57100	3158.00000
38.58800	3138.00000
38.60500	3258.00000
38.62200	3160.00000
38.63900	3081.00000
38.65600	3164.00000
38.67300	3168.00000
38.69000	3113.00000
38.70700	3027.00000
38.72400	3060.00000
38.74100	3118.00000
38.75800	3065.00000
38.77500	3036.00000
38.79200	3093.00000
38.80900	3110.00000
38.82600	3080.00000
38.84300	3003.00000
38.86000	3040.00000
38.87700	3051.00000
38.89400	3034.00000
38.91100	3026.00000
38.92800	3019.00000
38.94500	3029.00000
38.96200	2986.00000
38.97900	2975.00000
38.99600	2941.00000
39.01300	2958.00000
39.03000	2910.00000
39.04700	2985.00000
39.06400	3080.00000
39.08100	2952.00000
39.09800	2960.00000
39.11500	2959.00000
39.13200	2887.00000
39.14900	2844.00000
39.16600	2995.00000
39.18300	3049.00000
39.20000	3022.00000
39.21700	2883.00000
39.23400	2905.00000
39.25100	2848.00000
39.26800	2961.00000
39.28500	2934.00000
39.30200	2802.00000
39.31900	2936.00000
39.33600	2970.00000
39.35300	2931.00000
39.37000	2907.00000
39.38700	2861.00000
39.40400	2920.00000
39.42100	2875.00000
39.43800	2925.00000
39.45500	2900.00000
39.47200	2783.00000
39.48900	2833.00000
39.50600	2847.00000
39.52300	2802.00000
39.54000	2923.00000
39.55700	2860.00000
39.57400	2914.00000
39.59100	2984.00000
39.60800	2882.00000
39.62500	2821.00000
39.64200	2843.00000
39.65900	2787.00000
39.67600	2938.00000
39.69300	2946.00000
39.71000	2893.00000
39.72700	2916.00000
39.74400	2947.00000
39.76100	2900.00000
39.77800	2910.00000
39.79500	2832.00000
39.81200	2720.00000
39.82900	2836.00000
39.84600	2858.00000
39.86300	2783.00000
39.88000	2854.00000
39.89700	2915.00000
39.91400	2827.00000
39.93100	2859.00000
39.94800	2901.00000
39.96500	2859.00000
39.98200	2868.00000
39.99900	2981.00000
40.01600	2893.00000
40.03300	2825.00000
40.05000	2864.00000
40.06700	2917.00000
40.08400	2887.00000
40.10100	2834.00000
40.11800	2936.00000
40.13500	2878.00000
40.15200	2855.00000
40.16900	2863.00000
40.18600	2831.00000
40.20300	2874.00000
40.22000	2896.00000
40.23700	2903.00000
40.25400	2829.00000
40.27100	2898.00000
40.28800	2878.00000
40.30500	2801.00000
40.32200	2759.00000
40.33900	2819.00000
40.35600	2784.00000
40.37300	2984.00000
40.39000	2837.00000
40.40700	2780.00000
40.42400	2797.00000
40.44100	2775.00000
40.45800	2833.00000
40.47500	2778.00000
40.49200	2746.00000
40.50900	2803.00000
40.52600	2856.00000
40.54300	2921.00000
40.56000	2842.00000
40.57700	2833.00000
40.59400	2779.00000
40.61100	2864.00000
40.62800	2755.00000
40.64500	2801.00000
40.66200	2792.00000
40.67900	2837.00000
40.69600	2786.00000
40.71300	2703.00000
40.73000	2740.00000
40.74700	2826.00000
40.76400	2817.00000
40.78100	2799.00000
40.79800	2823.00000
40.81500	2818.00000
40.83200	2791.00000
40.84900	2778.00000
40.86600	2704.00000
40.88300	2828.00000
40.90000	2941.00000
40.91700	2765.00000
40.93400	2792.00000
40.95100	2808.00000
40.96800	2810.00000
40.98500	2829.00000
41.00200	2771.00000
41.01900	2744.00000
41.03600	2724.00000
41.05300	2788.00000
41.07000	2775.00000
41.08700	2675.00000
41.10400	2794.00000
41.12100	2773.00000
41.13800	2786.00000
41.15500	2816.00000
41.17200	2782.00000
41.18900	2774.00000
41.20600	2792.00000
41.22300	2807.00000
41.24000	2829.00000
41.25700	2755.00000
41.27400	2856.00000
41.29100	2793.00000
41.30800	2803.00000
41.32500	2800.00000
41.34200	2726.00000
41.35900	2774.00000
41.37600	2767.00000
41.39300	2739.00000
41.41000	2709.00000
41.42700	2786.00000
41.44400	2798.00000
41.46100	2815.00000
41.47800	2751.00000
41.49500	2876.00000
41.51200	2774.00000
41.52900	2741.00000
41.54600	2722.00000
41.56300	2793.00000
41.58000	2796.00000
41.59700	2797.00000
41.61400	2792.00000
41.63100	2764.00000
41.64800	2796.00000
41.66500	2782.00000
41.68200	2759.00000
41.69900	2775.00000
41.71600	2779.00000
41.73300	2791.00000
41.75000	2744.00000
41.76700	2665.00000
41.78400	2773.00000
41.80100	2856.00000
41.81800	2785.00000
41.83500	2707.00000
41.85200	2698.00000
41.86900	2738.00000
41.88600	2710.00000
41.90300	2658.00000
41.92000	2728.00000
41.93700	2725.00000
41.95400	2771.00000
41.97100	2775.00000
41.98800	2734.00000
42.00500	2727.00000
42.02200	2835.00000
42.03900	2746.00000
42.05600	2731.00000
42.07300	2799.00000
42.09000	2722.00000
42.10700	2751.00000
42.12400	2751.00000
42.14100	2732.00000
42.15800	2729.00000
42.17500	2789.00000
42.19200	2807.00000
42.20900	2712.00000
42.22600	2662.00000
42.24300	2812.00000
42.26000	2754.00000
42.27700	2823.00000
42.29400	2799.00000
42.31100	2778.00000
42.32800	2824.00000
42.34500	2817.00000
42.36200	2907.00000
42.37900	2890.00000
42.39600	2941.00000
42.41300	2894.00000
42.43000	2961.00000
42.44700	3009.00000
42.46400	3020.00000
42.48100	2891.00000
42.49800	2869.00000
42.51500	2880.00000
42.53200	2774.00000
42.54900	2881.00000
42.56600	2852.00000
42.58300	2802.00000
42.60000	2883.00000
42.61700	2827.00000
42.63400	2893.00000
42.65100	2804.00000
42.66800	2702.00000
42.68500	2818.00000
42.70200	2910.00000
42.71900	2800.00000
42.73600	2791.00000
42.75300	2806.00000
42.77000	2726.00000
42.78700	2730.00000
42.80400	2793.00000
42.82100	2768.00000
42.83800	2747.00000
42.85500	2688.00000
42.87200	2760.00000
42.88900	2783.00000
42.90600	2745.00000
42.92300	2786.00000
42.94000	2738.00000
42.95700	2817.00000
42.97400	2852.00000
42.99100	2758.00000
43.00800	2791.00000
43.02500	2756.00000
43.04200	2811.00000
43.05900	2759.00000
43.07600	2751.00000
43.09300	2761.00000
43.11000	2880.00000
43.12700	2747.00000
43.14400	2713.00000
43.16100	2763.00000
43.17800	2673.00000
43.19500	2733.00000
43.21200	2811.00000
43.22900	2782.00000
43.24600	2656.00000
43.26300	2705.00000
43.28000	2666.00000
43.29700	2735.00000
43.31400	2645.00000
43.33100	2768.00000
43.34800	2792.00000
43.36500	2800.00000
43.38200	2779.00000
43.39900	2726.00000
43.41600	2727.00000
43.43300	2739.00000
43.45000	2780.00000
43.46700	2787.00000
43.48400	2818.00000
43.50100	2839.00000
43.51800	2683.00000
43.53500	2682.00000
43.55200	2758.00000
43.56900	2787.00000
43.58600	2860.00000
43.60300	2761.00000
43.62000	2704.00000
43.63700	2741.00000
43.65400	2769.00000
43.67100	2758.00000
43.68800	2755.00000
43.70500	2648.00000
43.72200	2680.00000
43.73900	2669.00000
43.75600	2665.00000
43.77300	2689.00000
43.79000	2593.00000
43.80700	2618.00000
43.82400	2742.00000
43.84100	2781.00000
43.85800	2801.00000
43.87500	2826.00000
43.89200	2744.00000
43.90900	2754.00000
43.92600	2704.00000
43.94300	2606.00000
43.96000	2683.00000
43.97700	2785.00000
43.99400	2823.00000
44.01100	2794.00000
44.02800	2782.00000
44.04500	2741.00000
44.06200	2761.00000
44.07900	2742.00000
44.09600	2692.00000
44.11300	2679.00000
44.13000	2751.00000
44.14700	2746.00000
44.16400	2706.00000
44.18100	2770.00000
44.19800	2717.00000
44.21500	2679.00000
44.23200	2751.00000
44.24900	2813.00000
44.26600	2801.00000
44.28300	2730.00000
44.30000	2736.00000
44.31700	2718.00000
44.33400	2738.00000
44.35100	2873.00000
44.36800	2862.00000
44.38500	2827.00000
44.40200	2797.00000
44.41900	2915.00000
44.43600	2904.00000
44.45300	2929.00000
44.47000	2964.00000
44.48700	2878.00000
44.50400	2998.00000
44.52100	2966.00000
44.53800	2975.00000
44.55500	3058.00000
44.57200	3046.00000
44.58900	3031.00000
44.60600	3067.00000
44.62300	3037.00000
44.64000	2985.00000
44.65700	3021.00000
44.67400	3038.00000
44.69100	3059.00000
44.70800	3044.00000
44.72500	2941.00000
44.74200	2859.00000
44.75900	2898.00000
44.77600	2830.00000
44.79300	2850.00000
44.81000	2824.00000
44.82700	2794.00000
44.84400	2765.00000
44.86100	2735.00000
44.87800	2696.00000
44.89500	2770.00000
44.91200	2754.00000
44.92900	2756.00000
44.94600	2818.00000
44.96300	2781.00000
44.98000	2801.00000
44.99700	2768.00000
45.01400	2742.00000
45.03100	2679.00000
45.04800	2754.00000
45.06500	2721.00000
45.08200	2724.00000
45.09900	2711.00000
45.11600	2780.00000
45.13300	2669.00000
45.15000	2681.00000
45.16700	2684.00000
45.18400	2722.00000
45.20100	2750.00000
45.21800	2696.00000
45.23500	2733.00000
45.25200	2766.00000
45.26900	2657.00000
45.28600	2619.00000
45.30300	2691.00000
45.32000	2669.00000
45.33700	2729.00000
45.35400	2811.00000
45.37100	2796.00000
45.38800	2730.00000
45.40500	2709.00000
45.42200	2736.00000
45.43900	2737.00000
45.45600	2662.00000
45.47300	2648.00000
45.49000	2633.00000
45.50700	2685.00000
45.52400	2753.00000
45.54100	2759.00000
45.55800	2718.00000
45.57500	2609.00000
45.59200	2704.00000
45.60900	2739.00000
45.62600	2717.00000
45.64300	2707.00000
45.66000	2745.00000
45.67700	2849.00000
45.69400	2816.00000
45.71100	2737.00000
45.72800	2671.00000
45.74500	2710.00000
45.76200	2790.00000
45.77900	2771.00000
45.79600	2724.00000
45.81300	2783.00000
45.83000	2872.00000
45.84700	2692.00000
45.86400	2679.00000
45.88100	2701.00000
45.89800	2574.00000
45.91500	2757.00000
45.93200	2802.00000
45.94900	2874.00000
45.96600	2826.00000
45.98300	2786.00000
46.00000	2771.00000
46.01700	2873.00000
46.03400	2873.00000
46.05100	2769.00000
46.06800	2865.00000
46.08500	2780.00000
46.10200	2824.00000
46.11900	2911.00000
46.13600	2916.00000
46.15300	2870.00000
46.17000	2821.00000
46.18700	2800.00000
46.20400	2814.00000
46.22100	2652.00000
46.23800	2687.00000
46.25500	2769.00000
46.27200	2758.00000
46.28900	2844.00000
46.30600	2790.00000
46.32300	2756.00000
46.34000	2829.00000
46.35700	2813.00000
46.37400	2859.00000
46.39100	2792.00000
46.40800	2864.00000
46.42500	2883.00000
46.44200	2862.00000
46.45900	2783.00000
46.47600	2888.00000
46.49300	2858.00000
46.51000	2949.00000
46.52700	3054.00000
46.54400	3040.00000
46.56100	3179.00000
46.57800	3428.00000
46.59500	3474.00000
46.61200	3578.00000
46.62900	3802.00000
46.64600	3849.00000
46.66300	3859.00000
46.68000	3804.00000
46.69700	3837.00000
46.71400	3710.00000
46.73100	3584.00000
46.74800	3576.00000
46.76500	3549.00000
46.78200	3389.00000
46.79900	3265.00000
46.81600	3216.00000
46.83300	3164.00000
46.85000	3017.00000
46.86700	2920.00000
46.88400	2988.00000
46.90100	2966.00000
46.91800	2752.00000
46.93500	2798.00000
46.95200	2872.00000
46.96900	2810.00000
46.98600	2755.00000
47.00300	2656.00000
47.02000	2765.00000
47.03700	2673.00000
47.05400	2698.00000
47.07100	2688.00000
47.08800	2751.00000
47.10500	2795.00000
47.12200	2753.00000
47.13900	2800.00000
47.15600	2765.00000
47.17300	2645.00000
47.19000	2690.00000
47.20700	2692.00000
47.22400	2719.00000
47.24100	2746.00000
47.25800	2773.00000
47.27500	2666.00000
47.29200	2686.00000
47.30900	2599.00000
47.32600	2740.00000
47.34300	2739.00000
47.36000	2675.00000
47.37700	2745.00000
47.39400	2697.00000
47.41100	2765.00000
47.42800	2718.00000
47.44500	2731.00000
47.46200	2663.00000
47.47900	2706.00000
47.49600	2713.00000
47.51300	2820.00000
47.53000	2855.00000
47.54700	2860.00000
47.56400	2702.00000
47.58100	2836.00000
47.59800	2840.00000
47.61500	2768.00000
47.63200	2722.00000
47.64900	2753.00000
47.66600	2824.00000
47.68300	2763.00000
47.70000	2779.00000
47.71700	2783.00000
47.73400	2737.00000
47.75100	2730.00000
47.76800	2770.00000
47.78500	2714.00000
47.80200	2645.00000
47.81900	2699.00000
47.83600	2705.00000
47.85300	2724.00000
47.87000	2665.00000
47.88700	2673.00000
47.90400	2678.00000
47.92100	2683.00000
47.93800	2734.00000
47.95500	2719.00000
47.97200	2682.00000
47.98900	2680.00000
48.00600	2744.00000
48.02300	2670.00000
48.04000	2702.00000
48.05700	2718.00000
48.07400	2743.00000
48.09100	2748.00000
48.10800	2910.00000
48.12500	2727.00000
48.14200	2780.00000
48.15900	2734.00000
48.17600	2778.00000
48.19300	2650.00000
48.21000	2676.00000
48.22700	2709.00000
48.24400	2587.00000
48.26100	2700.00000
48.27800	2713.00000
48.29500	2667.00000
48.31200	2724.00000
48.32900	2744.00000
48.34600	2710.00000
48.36300	2681.00000
48.38000	2704.00000
48.39700	2613.00000
48.41400	2763.00000
48.43100	2818.00000
48.44800	2726.00000
48.46500	2725.00000
48.48200	2733.00000
48.49900	2718.00000
48.51600	2656.00000
48.53300	2606.00000
48.55000	2633.00000
48.56700	2625.00000
48.58400	2616.00000
48.60100	2699.00000
48.61800	2661.00000
48.63500	2615.00000
48.65200	2675.00000
48.66900	2752.00000
48.68600	2775.00000
48.70300	2741.00000
48.72000	2680.00000
48.73700	2689.00000
48.75400	2677.00000
48.77100	2648.00000
48.78800	2743.00000
48.80500	2692.00000
48.82200	2651.00000
48.83900	2710.00000
48.85600	2725.00000
48.87300	2853.00000
48.89000	2813.00000
48.90700	2688.00000
48.92400	2708.00000
48.94100	2697.00000
48.95800	2780.00000
48.97500	2799.00000
48.99200	2776.00000
49.00900	2662.00000
49.02600	2658.00000
49.04300	2704.00000
49.06000	2802.00000
49.07700	2815.00000
49.09400	2806.00000
49.11100	2763.00000
49.12800	2815.00000
49.14500	2703.00000
49.16200	2608.00000
49.17900	2665.00000
49.19600	2642.00000
49.21300	2701.00000
49.23000	2693.00000
49.24700	2739.00000
49.26400	2849.00000
49.28100	2752.00000
49.29800	2694.00000
49.31500	2837.00000
49.33200	2695.00000
49.34900	2655.00000
49.36600	2659.00000
49.38300	2645.00000
49.40000	2620.00000
49.41700	2721.00000
49.43400	2790.00000
49.45100	2725.00000
49.46800	2663.00000
49.48500	2643.00000
49.50200	2713.00000
49.51900	2799.00000
49.53600	2816.00000
49.55300	2731.00000
49.57000	2826.00000
49.58700	2705.00000
49.60400	2663.00000
49.62100	2667.00000
49.63800	2737.00000
49.65500	2704.00000
49.67200	2599.00000
49.68900	2711.00000
49.70600	2691.00000
49.72300	2730.00000
49.74000	2768.00000
49.75700	2695.00000
49.77400	2755.00000
49.79100	2740.00000
49.80800	2677.00000
49.82500	2777.00000
49.84200	2713.00000
49.85900	2700.00000
49.87600	2731.00000
49.89300	2730.00000
49.91000	2718.00000
49.92700	2686.00000
49.94400	2627.00000
49.96100	2725.00000
49.97800	2712.00000
49.99500	2747.00000
50.01200	2779.00000
50.02900	2810.00000
50.04600	2722.00000
50.06300	2673.00000
50.08000	2686.00000
50.09700	2664.00000
50.11400	2660.00000
50.13100	2724.00000
50.14800	2703.00000
50.16500	2676.00000
50.18200	2670.00000
50.19900	2783.00000
50.21600	2720.00000
50.23300	2644.00000
50.25000	2758.00000
50.26700	2701.00000
50.28400	2582.00000
50.30100	2729.00000
50.31800	2630.00000
50.33500	2563.00000
50.35200	2637.00000
50.36900	2621.00000
50.38600	2596.00000
50.40300	2617.00000
50.42000	2720.00000
50.43700	2666.00000
50.45400	2691.00000
50.47100	2719.00000
50.48800	2759.00000
50.50500	2709.00000
50.52200	2732.00000
50.53900	2751.00000
50.55600	2661.00000
50.57300	2627.00000
50.59000	2716.00000
50.60700	2793.00000
50.62400	2849.00000
50.64100	2893.00000
50.65800	2790.00000
50.67500	2779.00000
50.69200	2782.00000
50.70900	2801.00000
50.72600	2862.00000
50.74300	2743.00000
50.76000	2830.00000
50.77700	2784.00000
50.79400	2732.00000
50.81100	2756.00000
50.82800	2752.00000
50.84500	2873.00000
50.86200	2833.00000
50.87900	2658.00000
50.89600	2645.00000
50.91300	2647.00000
50.93000	2663.00000
50.94700	2715.00000
50.96400	2694.00000
50.98100	2663.00000
50.99800	2647.00000
51.01500	2691.00000
51.03200	2624.00000
51.04900	2616.00000
51.06600	2576.00000
51.08300	2656.00000
51.10000	2692.00000
51.11700	2687.00000
51.13400	2762.00000
51.15100	2666.00000
51.16800	2613.00000
51.18500	2598.00000
51.20200	2699.00000
51.21900	2763.00000
51.23600	2743.00000
51.25300	2651.00000
51.27000	2704.00000
51.28700	2730.00000
51.30400	2628.00000
51.32100	2729.00000
51.33800	2713.00000
51.35500	2744.00000
51.37200	2739.00000
51.38900	2702.00000
51.40600	2630.00000
51.42300	2666.00000
51.44000	2599.00000
51.45700	2595.00000
51.47400	2624.00000
51.49100	2666.00000
51.50800	2724.00000
51.52500	2667.00000
51.54200	2689.00000
51.55900	2633.00000
51.57600	2655.00000
51.59300	2669.00000
51.61000	2712.00000
51.62700	2693.00000
51.64400	2643.00000
51.66100	2674.00000
51.67800	2682.00000
51.69500	2716.00000
51.71200	2662.00000
51.72900	2654.00000
51.74600	2594.00000
51.76300	2618.00000
51.78000	2682.00000
51.79700	2747.00000
51.81400	2669.00000
51.83100	2695.00000
51.84800	2643.00000
51.86500	2523.00000
51.88200	2669.00000
51.89900	2737.00000
51.91600	2687.00000
51.93300	2609.00000
51.95000	2620.00000
51.96700	2711.00000
51.98400	2709.00000
52.00100	2653.00000
52.01800	2665.00000
52.03500	2655.00000
52.05200	2597.00000
52.06900	2659.00000
52.08600	2680.00000
52.10300	2692.00000
52.12000	2677.00000
52.13700	2710.00000
52.15400	2650.00000
52.17100	2670.00000
52.18800	2730.00000
52.20500	2669.00000
52.22200	2705.00000
52.23900	2560.00000
52.25600	2794.00000
52.27300	2757.00000
52.29000	2699.00000
52.30700	2681.00000
52.32400	2596.00000
52.34100	2624.00000
52.35800	2625.00000
52.37500	2679.00000
52.39200	2687.00000
52.40900	2544.00000
52.42600	2649.00000
52.44300	2748.00000
52.46000	2677.00000
52.47700	2699.00000
52.49400	2723.00000
52.51100	2691.00000
52.52800	2706.00000
52.54500	2676.00000
52.56200	2692.00000
52.57900	2734.00000
52.59600	2727.00000
52.61300	2663.00000
52.63000	2698.00000
52.64700	2722.00000
52.66400	2793.00000
52.68100	2724.00000
52.69800	2679.00000
52.71500	2708.00000
52.73200	2732.00000
52.74900	2708.00000
52.76600	2600.00000
52.78300	2652.00000
52.80000	2666.00000
52.81700	2690.00000
52.83400	2693.00000
52.85100	2595.00000
52.86800	2747.00000
52.88500	2798.00000
52.90200	2794.00000
52.91900	2748.00000
52.93600	2755.00000
52.95300	2729.00000
52.97000	2762.00000
52.98700	2756.00000
53.00400	2697.00000
53.02100	2788.00000
53.03800	2807.00000
53.05500	2655.00000
53.07200	2715.00000
53.08900	2678.00000
53.10600	2710.00000
53.12300	2743.00000
53.14000	2695.00000
53.15700	2770.00000
53.17400	2779.00000
53.19100	2742.00000
53.20800	2821.00000
53.22500	2678.00000
53.24200	2702.00000
53.25900	2788.00000
53.27600	2797.00000
53.29300	2785.00000
53.31000	2872.00000
53.32700	2896.00000
53.34400	2857.00000
53.36100	2889.00000
53.37800	2950.00000
53.39500	2860.00000
53.41200	2707.00000
53.42900	2889.00000
53.44600	2856.00000
53.46300	2935.00000
53.48000	2934.00000
53.49700	2914.00000
53.51400	2928.00000
53.53100	2935.00000
53.54800	2927.00000
53.56500	2956.00000
53.58200	2837.00000
53.59900	2860.00000
53.61600	2916.00000
53.63300	2877.00000
53.65000	2977.00000
53.66700	2968.00000
53.68400	2933.00000
53.70100	2959.00000
53.71800	2975.00000
53.73500	2966.00000
53.75200	3004.00000
53.76900	3012.00000
53.78600	2966.00000
53.80300	3011.00000
53.82000	2924.00000
53.83700	3011.00000
53.85400	3056.00000
53.87100	3115.00000
53.88800	3106.00000
53.90500	3194.00000
53.92200	3213.00000
53.93900	3233.00000
53.95600	3320.00000
53.97300	3368.00000
53.99000	3356.00000
54.00700	3564.00000
54.02400	3536.00000
54.04100	3514.00000
54.05800	3688.00000
54.07500	3850.00000
54.09200	3913.00000
54.10900	4114.00000
54.12600	4162.00000
54.14300	4227.00000
54.16000	4399.00000
54.17700	4753.00000
54.19400	5038.00000
54.21100	5316.00000
54.22800	5518.00000
54.24500	6141.00000
54.26200	6659.00000
54.27900	7558.00000
54.29600	8297.00000
54.31300	9613.00000
54.33000	10984.00000
54.34700	12517.00000
54.36400	14484.00000
54.38100	16451.00000
54.39800	17839.00000
54.41500	18965.00000
54.43200	19369.00000
54.44900	19075.00000
54.46600	17940.00000
54.48300	17027.00000
54.50000	16382.00000
54.51700	15586.00000
54.53400	14912.00000
54.55100	14140.00000
54.56800	13094.00000
54.58500	11726.00000
54.60200	10322.00000
54.61900	9240.00000
54.63600	8094.00000
54.65300	7215.00000
54.67000	6442.00000
54.68700	5906.00000
54.70400	5513.00000
54.72100	5158.00000
54.73800	4657.00000
54.75500	4519.00000
54.77200	4271.00000
54.78900	4113.00000
54.80600	3915.00000
54.82300	3875.00000
54.84000	3732.00000
54.85700	3574.00000
54.87400	3485.00000
54.89100	3423.00000
54.90800	3338.00000
54.92500	3321.00000
54.94200	3327.00000
54.95900	3264.00000
54.97600	3102.00000
54.99300	3123.00000
55.01000	3122.00000
55.02700	3135.00000
55.04400	2995.00000
55.06100	3048.00000
55.07800	3108.00000
55.09500	3141.00000
55.11200	2998.00000
55.12900	3032.00000
55.14600	3051.00000
55.16300	2998.00000
55.18000	3019.00000
55.19700	2950.00000
55.21400	3012.00000
55.23100	3044.00000
55.24800	3082.00000
55.26500	2968.00000
55.28200	2929.00000
55.29900	2884.00000
55.31600	2915.00000
55.33300	2883.00000
55.35000	2841.00000
55.36700	2894.00000
55.38400	2729.00000
55.40100	2805.00000
55.41800	2784.00000
55.43500	2801.00000
55.45200	2832.00000
55.46900	2858.00000
55.48600	2849.00000
55.50300	2889.00000
55.52000	2859.00000
55.53700	2865.00000
55.55400	2795.00000
55.57100	2795.00000
55.58800	2884.00000
55.60500	2818.00000
55.62200	2739.00000
55.63900	2795.00000
55.65600	2802.00000
55.67300	2732.00000
55.69000	2749.00000
55.70700	2800.00000
55.72400	2826.00000
55.74100	2834.00000
55.75800	2821.00000
55.77500	2816.00000
55.79200	2850.00000
55.80900	2879.00000
55.82600	2745.00000
55.84300	2740.00000
55.86000	2711.00000
55.87700	2622.00000
55.89400	2661.00000
55.91100	2727.00000
55.92800	2713.00000
55.94500	2644.00000
55.96200	2782.00000
55.97900	2766.00000
55.99600	2710.00000
56.01300	2738.00000
56.03000	2715.00000
56.04700	2675.00000
56.06400	2677.00000
56.08100	2800.00000
56.09800	2809.00000
56.11500	2752.00000
56.13200	2770.00000
56.14900	2825.00000
56.16600	2693.00000
56.18300	2815.00000
56.20000	2714.00000
56.21700	2701.00000
56.23400	2772.00000
56.25100	2717.00000
56.26800	2760.00000
56.28500	2789.00000
56.30200	2658.00000
56.31900	2772.00000
56.33600	2788.00000
56.35300	2663.00000
56.37000	2746.00000
56.38700	2663.00000
56.40400	2659.00000
56.42100	2686.00000
56.43800	2673.00000
56.45500	2696.00000
56.47200	2653.00000
56.48900	2719.00000
56.50600	2701.00000
56.52300	2732.00000
56.54000	2722.00000
56.55700	2638.00000
56.57400	2648.00000
56.59100	2676.00000
56.60800	2749.00000
56.62500	2717.00000
56.64200	2660.00000
56.65900	2805.00000
56.67600	2725.00000
56.69300	2722.00000
56.71000	2825.00000
56.72700	2791.00000
56.74400	2732.00000
56.76100	2737.00000
56.77800	2671.00000
56.79500	2706.00000
56.81200	2714.00000
56.82900	2722.00000
56.84600	2742.00000
56.86300	2661.00000
56.88000	2683.00000
56.89700	2670.00000
56.91400	2763.00000
56.93100	2675.00000
56.94800	2728.00000
56.96500	2680.00000
56.98200	2576.00000
56.99900	2675.00000
57.01600	2644.00000
57.03300	2687.00000
57.05000	2683.00000
57.06700	2723.00000
57.08400	2703.00000
57.10100	2657.00000
57.11800	2741.00000
57.13500	2632.00000
57.15200	2611.00000
57.16900	2685.00000
57.18600	2666.00000
57.20300	2585.00000
57.22000	2730.00000
57.23700	2584.00000
57.25400	2686.00000
57.27100	2630.00000
57.28800	2573.00000
57.30500	2610.00000
57.32200	2583.00000
57.33900	2618.00000
57.35600	2652.00000
57.37300	2760.00000
57.39000	2635.00000
57.40700	2621.00000
57.42400	2672.00000
57.44100	2733.00000
57.45800	2640.00000
57.47500	2646.00000
57.49200	2689.00000
57.50900	2668.00000
57.52600	2572.00000
57.54300	2554.00000
57.56000	2638.00000
57.57700	2716.00000
57.59400	2640.00000
57.61100	2626.00000
57.62800	2694.00000
57.64500	2730.00000
57.66200	2716.00000
57.67900	2675.00000
57.69600	2643.00000
57.71300	2724.00000
57.73000	2641.00000
57.74700	2718.00000
57.76400	2749.00000
57.78100	2727.00000
57.79800	2641.00000
57.81500	2691.00000
57.83200	2670.00000
57.84900	2683.00000
57.86600	2681.00000
57.88300	2650.00000
57.90000	2564.00000
57.91700	2703.00000
57.93400	2685.00000
57.95100	2678.00000
57.96800	2689.00000
57.98500	2712.00000
58.00200	2576.00000
58.01900	2526.00000
58.03600	2682.00000
58.05300	2671.00000
58.07000	2623.00000
58.08700	2725.00000
58.10400	2674.00000
58.12100	2744.00000
58.13800	2694.00000
58.15500	2633.00000
58.17200	2676.00000
58.18900	2729.00000
58.20600	2632.00000
58.22300	2581.00000
58.24000	2641.00000
58.25700	2683.00000
58.27400	2728.00000
58.29100	2672.00000
58.30800	2650.00000
58.32500	2645.00000
58.34200	2678.00000
58.35900	2713.00000
58.37600	2673.00000
58.39300	2663.00000
58.41000	2621.00000
58.42700	2645.00000
58.44400	2690.00000
58.46100	2688.00000
58.47800	2712.00000
58.49500	2757.00000
58.51200	2751.00000
58.52900	2694.00000
58.54600	2702.00000
58.56300	2763.00000
58.58000	2706.00000
58.59700	2635.00000
58.61400	2696.00000
58.63100	2733.00000
58.64800	2705.00000
58.66500	2775.00000
58.68200	2745.00000
58.69900	2715.00000
58.71600	2723.00000
58.73300	2661.00000
58.75000	2842.00000
58.76700	2812.00000
58.78400	2680.00000
58.80100	2683.00000
58.81800	2620.00000
58.83500	2661.00000
58.85200	2658.00000
58.86900	2658.00000
58.88600	2634.00000
58.90300	2711.00000
58.92000	2737.00000
58.93700	2577.00000
58.95400	2609.00000
58.97100	2658.00000
58.98800	2580.00000
59.00500	2717.00000
59.02200	2604.00000
59.03900	2645.00000
59.05600	2609.00000
59.07300	2619.00000
59.09000	2726.00000
59.10700	2696.00000
59.12400	2619.00000
59.14100	2633.00000
59.15800	2600.00000
59.17500	2714.00000
59.19200	2661.00000
59.20900	2688.00000
59.22600	2559.00000
59.24300	2620.00000
59.26000	2749.00000
59.27700	2614.00000
59.29400	2636.00000
59.31100	2643.00000
59.32800	2611.00000
59.34500	2489.00000
59.36200	2568.00000
59.37900	2704.00000
59.39600	2609.00000
59.41300	2623.00000
59.43000	2778.00000
59.44700	2728.00000
59.46400	2699.00000
59.48100	2718.00000
59.49800	2673.00000
59.51500	2702.00000
59.53200	2743.00000
59.54900	2720.00000
59.56600	2680.00000
59.58300	2667.00000
59.60000	2768.00000
59.61700	2721.00000
59.63400	2683.00000
59.65100	2771.00000
59.66800	2842.00000
59.68500	2731.00000
59.70200	2809.00000
59.71900	2807.00000
59.73600	2732.00000
59.75300	2815.00000
59.77000	2752.00000
59.78700	2730.00000
59.80400	2760.00000
59.82100	2799.00000
59.83800	2816.00000
59.85500	2726.00000
59.87200	2707.00000
59.88900	2757.00000
59.90600	2800.00000
59.92300	2782.00000
59.94000	2815.00000
59.95700	2837.00000
59.97400	2697.00000
59.99100	2723.00000
60.00800	2726.00000
60.02500	2764.00000
60.04200	2808.00000
60.05900	2747.00000
60.07600	2716.00000
60.09300	2681.00000
60.11000	2715.00000
60.12700	2726.00000
60.14400	2758.00000
60.16100	2746.00000
60.17800	2738.00000
60.19500	2814.00000
60.21200	2797.00000
60.22900	2850.00000
60.24600	2908.00000
60.26300	2810.00000
60.28000	2884.00000
60.29700	2848.00000
60.31400	2760.00000
60.33100	2774.00000
60.34800	2842.00000
60.36500	2809.00000
60.38200	2738.00000
60.39900	2755.00000
60.41600	2866.00000
60.43300	2723.00000
60.45000	2733.00000
60.46700	2820.00000
60.48400	2810.00000
60.50100	2797.00000
60.51800	2786.00000
60.53500	2850.00000
60.55200	2893.00000
60.56900	2813.00000
60.58600	2864.00000
60.60300	2895.00000
60.62000	2855.00000
60.63700	2821.00000
60.65400	2965.00000
60.67100	2885.00000
60.68800	2784.00000
60.70500	2807.00000
60.72200	2843.00000
60.73900	2882.00000
60.75600	3033.00000
60.77300	2973.00000
60.79000	2954.00000
60.80700	3077.00000
60.82400	2996.00000
60.84100	3071.00000
60.85800	3078.00000
60.87500	3033.00000
60.89200	3080.00000
60.90900	3203.00000
60.92600	3179.00000
60.94300	3241.00000
60.96000	3199.00000
60.97700	3264.00000
60.99400	3325.00000
61.01100	3230.00000
61.02800	3180.00000
61.04500	3339.00000
61.06200	3408.00000
61.07900	3472.00000
61.09600	3631.00000
61.11300	3551.00000
61.13000	3763.00000
61.14700	3856.00000
61.16400	3933.00000
61.18100	4106.00000
61.19800	4185.00000
61.21500	4247.00000
61.23200	4485.00000
61.24900	4456.00000
61.26600	4801.00000
61.28300	5022.00000
61.30000	5382.00000
61.31700	5685.00000
61.33400	6316.00000
61.35100	6760.00000
61.36800	7407.00000
61.38500	8452.00000
61.40200	9579.00000
61.41900	10807.00000
61.43600	12216.00000
61.45300	13413.00000
61.47000	14442.00000
61.48700	14950.00000
61.50400	14725.00000
61.52100	14360.00000
61.53800	13926.00000
61.55500	13080.00000
61.57200	12344.00000
61.58900	12015.00000
61.60600	11499.00000
61.62300	11092.00000
61.64000	10597.00000
61.65700	9930.00000
61.67400	9099.00000
61.69100	8207.00000
61.70800	7421.00000
61.72500	6725.00000
61.74200	5952.00000
61.75900	5562.00000
61.77600	5180.00000
61.79300	4780.00000
61.81000	4496.00000
61.82700	4311.00000
61.84400	4141.00000
61.86100	3920.00000
61.87800	3768.00000
61.89500	3823.00000
61.91200	3679.00000
61.92900	3569.00000
61.94600	3379.00000
61.96300	3270.00000
61.98000	3262.00000
61.99700	3289.00000
62.01400	3169.00000
62.03100	3084.00000
62.04800	3065.00000
62.06500	3194.00000
62.08200	3082.00000
62.09900	3096.00000
62.11600	3037.00000
62.13300	2995.00000
62.15000	3059.00000
62.16700	3019.00000
62.18400	2963.00000
62.20100	2896.00000
62.21800	2996.00000
62.23500	2889.00000
62.25200	2944.00000
62.26900	2955.00000
62.28600	2932.00000
62.30300	2883.00000
62.32000	2785.00000
62.33700	2828.00000
62.35400	2777.00000
62.37100	2749.00000
62.38800	2839.00000
62.40500	2722.00000
62.42200	2784.00000
62.43900	2796.00000
62.45600	2801.00000
62.47300	2815.00000
62.49000	2758.00000
62.50700	2761.00000
62.52400	2843.00000
62.54100	2854.00000
62.55800	2800.00000
62.57500	2737.00000
62.59200	2672.00000
62.60900	2687.00000
62.62600	2746.00000
62.64300	2722.00000
62.66000	2742.00000
62.67700	2741.00000
62.69400	2668.00000
62.71100	2654.00000
62.72800	2573.00000
62.74500	2636.00000
62.76200	2600.00000
62.77900	2773.00000
62.79600	2766.00000
62.81300	2698.00000
62.83000	2668.00000
62.84700	2678.00000
62.86400	2699.00000
62.88100	2670.00000
62.89800	2676.00000
62.91500	2652.00000
62.93200	2610.00000
62.94900	2620.00000
62.96600	2551.00000
62.98300	2699.00000
63.00000	2714.00000
63.01700	2718.00000
63.03400	2571.00000
63.05100	2785.00000
63.06800	2732.00000
63.08500	2627.00000
63.10200	2723.00000
63.11900	2758.00000
63.13600	2693.00000
63.15300	2701.00000
63.17000	2563.00000
63.18700	2608.00000
63.20400	2700.00000
63.22100	2743.00000
63.23800	2725.00000
63.25500	2690.00000
63.27200	2727.00000
63.28900	2752.00000
63.30600	2688.00000
63.32300	2740.00000
63.34000	2728.00000
63.35700	2711.00000
63.37400	2669.00000
63.39100	2647.00000
63.40800	2686.00000
63.42500	2707.00000
63.44200	2604.00000
63.45900	2591.00000
63.47600	2708.00000
63.49300	2668.00000
63.51000	2653.00000
63.52700	2646.00000
63.54400	2636.00000
63.56100	2681.00000
63.57800	2750.00000
63.59500	2709.00000
63.61200	2676.00000
63.62900	2714.00000
63.64600	2603.00000
63.66300	2636.00000
63.68000	2611.00000
63.69700	2635.00000
63.71400	2634.00000
63.73100	2658.00000
63.74800	2705.00000
63.76500	2607.00000
63.78200	2640.00000
63.79900	2690.00000
63.81600	2714.00000
63.83300	2668.00000
63.85000	2625.00000
63.86700	2637.00000
63.88400	2677.00000
63.90100	2694.00000
63.91800	2716.00000
63.93500	2675.00000
63.95200	2692.00000
63.96900	2733.00000
63.98600	2758.00000
64.00300	2710.00000
64.02000	2691.00000
64.03700	2578.00000
64.05400	2713.00000
64.07100	2636.00000
64.08800	2612.00000
64.10500	2611.00000
64.12200	2631.00000
64.13900	2644.00000
64.15600	2608.00000
64.17300	2612.00000
64.19000	2611.00000
64.20700	2527.00000
64.22400	2623.00000
64.24100	2629.00000
64.25800	2624.00000
64.27500	2605.00000
64.29200	2642.00000
64.30900	2647.00000
64.32600	2583.00000
64.34300	2619.00000
64.36000	2650.00000
64.37700	2645.00000
64.39400	2708.00000
64.41100	2736.00000
64.42800	2714.00000
64.44500	2758.00000
64.46200	2771.00000
64.47900	2662.00000
64.49600	2759.00000
64.51300	2679.00000
64.53000	2672.00000
64.54700	2714.00000
64.56400	2675.00000
64.58100	2637.00000
64.59800	2609.00000
64.61500	2641.00000
64.63200	2756.00000
64.64900	2555.00000
64.66600	2663.00000
64.68300	2742.00000
64.70000	2633.00000
64.71700	2668.00000
64.73400	2683.00000
64.75100	2743.00000
64.76800	2678.00000
64.78500	2773.00000
64.80200	2755.00000
64.81900	2676.00000
64.83600	2666.00000
64.85300	2660.00000
64.87000	2664.00000
64.88700	2680.00000
64.90400	2675.00000
64.92100	2658.00000
64.93800	2783.00000
64.95500	2727.00000
64.97200	2737.00000
64.98900	2761.00000
65.00600	2786.00000
65.02300	2729.00000
65.04000	2749.00000
65.05700	2662.00000
65.07400	2625.00000
65.09100	2709.00000
65.10800	2673.00000
65.12500	2731.00000
65.14200	2659.00000
65.15900	2677.00000
65.17600	2592.00000
65.19300	2591.00000
65.21000	2700.00000
65.22700	2710.00000
65.24400	2701.00000
65.26100	2697.00000
65.27800	2631.00000
65.29500	2653.00000
65.31200	2681.00000
65.32900	2627.00000
65.34600	2718.00000
65.36300	2763.00000
65.38000	2698.00000
65.39700	2585.00000
65.41400	2604.00000
65.43100	2590.00000
65.44800	2623.00000
65.46500	2589.00000
65.48200	2658.00000
65.49900	2669.00000
65.51600	2667.00000
65.53300	2607.00000
65.55000	2557.00000
65.56700	2598.00000
65.58400	2591.00000
65.60100	2631.00000
65.61800	2646.00000
65.63500	2709.00000
65.65200	2727.00000
65.66900	2632.00000
65.68600	2539.00000
65.70300	2636.00000
65.72000	2709.00000
65.73700	2710.00000
65.75400	2704.00000
65.77100	2664.00000
65.78800	2635.00000
65.80500	2635.00000
65.82200	2582.00000
65.83900	2737.00000
65.85600	2736.00000
65.87300	2708.00000
65.89000	2658.00000
65.90700	2649.00000
65.92400	2562.00000
65.94100	2562.00000
65.95800	2601.00000
65.97500	2647.00000
65.99200	2603.00000
66.00900	2731.00000
66.02600	2649.00000
66.04300	2684.00000
66.06000	2700.00000
66.07700	2678.00000
66.09400	2636.00000
66.11100	2650.00000
66.12800	2652.00000
66.14500	2708.00000
66.16200	2704.00000
66.17900	2639.00000
66.19600	2590.00000
66.21300	2754.00000
66.23000	2665.00000
66.24700	2703.00000
66.26400	2676.00000
66.28100	2587.00000
66.29800	2683.00000
66.31500	2605.00000
66.33200	2574.00000
66.34900	2730.00000
66.36600	2717.00000
66.38300	2687.00000
66.40000	2643.00000
66.41700	2718.00000
66.43400	2723.00000
66.45100	2699.00000
66.46800	2620.00000
66.48500	2715.00000
66.50200	2686.00000
66.51900	2623.00000
66.53600	2678.00000
66.55300	2716.00000
66.57000	2649.00000
66.58700	2621.00000
66.60400	2776.00000
66.62100	2770.00000
66.63800	2740.00000
66.65500	2774.00000
66.67200	2710.00000
66.68900	2688.00000
66.70600	2792.00000
66.72300	2725.00000
66.74000	2733.00000
66.75700	2827.00000
66.77400	2744.00000
66.79100	2689.00000
66.80800	2768.00000
66.82500	2802.00000
66.84200	2760.00000
66.85900	2821.00000
66.87600	2761.00000
66.89300	2717.00000
66.91000	2832.00000
66.92700	2771.00000
66.94400	2630.00000
66.96100	2762.00000
66.97800	2801.00000
66.99500	2739.00000
67.01200	2850.00000
67.02900	2826.00000
67.04600	2866.00000
67.06300	2741.00000
67.08000	2826.00000
67.09700	2837.00000
67.11400	2744.00000
67.13100	2795.00000
67.14800	2793.00000
67.16500	2788.00000
67.18200	2902.00000
67.19900	2802.00000
67.21600	2896.00000
67.23300	2858.00000
67.25000	2921.00000
67.26700	2955.00000
67.28400	2907.00000
67.30100	2863.00000
67.31800	2927.00000
67.33500	2884.00000
67.35200	2888.00000
67.36900	2944.00000
67.38600	2874.00000
67.40300	2852.00000
67.42000	2972.00000
67.43700	2968.00000
67.45400	3095.00000
67.47100	3084.00000
67.48800	2968.00000
67.50500	2957.00000
67.52200	3075.00000
67.53900	3234.00000
67.55600	3176.00000
67.57300	3104.00000
67.59000	3165.00000
67.60700	3243.00000
67.62400	3318.00000
67.64100	3395.00000
67.65800	3369.00000
67.67500	3404.00000
67.69200	3539.00000
67.70900	3610.00000
67.72600	3685.00000
67.74300	3808.00000
67.76000	3946.00000
67.77700	4065.00000
67.79400	4057.00000
67.81100	4200.00000
67.82800	4308.00000
67.84500	4483.00000
67.86200	4606.00000
67.87900	5089.00000
67.89600	5239.00000
67.91300	5633.00000
67.93000	6123.00000
67.94700	6381.00000
67.96400	7044.00000
67.98100	7696.00000
67.99800	8816.00000
68.01500	9954.00000
68.03200	11125.00000
68.04900	12554.00000
68.06600	13895.00000
68.08300	15105.00000
68.10000	15757.00000
68.11700	15843.00000
68.13400	15699.00000
68.15100	14843.00000
68.16800	13996.00000
68.18500	13448.00000
68.20200	12925.00000
68.21900	12509.00000
68.23600	12277.00000
68.25300	12084.00000
68.27000	11615.00000
68.28700	11172.00000
68.30400	10249.00000
68.32100	9593.00000
68.33800	8683.00000
68.35500	7801.00000
68.37200	7215.00000
68.38900	6553.00000
68.40600	6031.00000
68.42300	5608.00000
68.44000	5111.00000
68.45700	4838.00000
68.47400	4621.00000
68.49100	4306.00000
68.50800	4146.00000
68.52500	4121.00000
68.54200	3949.00000
68.55900	3665.00000
68.57600	3651.00000
68.59300	3534.00000
68.61000	3409.00000
68.62700	3388.00000
68.64400	3419.00000
68.66100	3304.00000
68.67800	3289.00000
68.69500	3257.00000
68.71200	3062.00000
68.72900	3062.00000
68.74600	3105.00000
68.76300	3068.00000
68.78000	3007.00000
68.79700	3054.00000
68.81400	3108.00000
68.83100	3004.00000
68.84800	2966.00000
68.86500	3003.00000
68.88200	3057.00000
68.89900	2979.00000
68.91600	2795.00000
68.93300	2915.00000
68.95000	2993.00000
68.96700	2767.00000
68.98400	2916.00000
69.00100	2794.00000
69.01800	2845.00000
69.03500	2881.00000
69.05200	2881.00000
69.06900	2837.00000
69.08600	2781.00000
69.10300	2895.00000
69.12000	2959.00000
69.13700	2812.00000
69.15400	2852.00000
69.17100	2891.00000
69.18800	2826.00000
69.20500	2868.00000
69.22200	2922.00000
69.23900	2931.00000
69.25600	2848.00000
69.27300	2877.00000
69.29000	2800.00000
69.30700	2791.00000
69.32400	2858.00000
69.34100	2842.00000
69.35800	2846.00000
69.37500	2878.00000
69.39200	2731.00000
69.40900	2754.00000
69.42600	2672.00000
69.44300	2739.00000
69.46000	2759.00000
69.47700	2705.00000
69.49400	2744.00000
69.51100	2793.00000
69.52800	2802.00000
69.54500	2657.00000
69.56200	2589.00000
69.57900	2665.00000
69.59600	2695.00000
69.61300	2737.00000
69.63000	2752.00000
69.64700	2809.00000
69.66400	2678.00000
69.68100	2761.00000
69.69800	2737.00000
69.71500	2723.00000
69.73200	2758.00000
69.74900	2774.00000
69.76600	2691.00000
69.78300	2749.00000
69.80000	2697.00000
69.81700	2728.00000
69.83400	2658.00000
69.85100	2570.00000
69.86800	2503.00000
69.88500	2573.00000
69.90200	2654.00000
69.91900	2810.00000
69.93600	2673.00000
69.95300	2693.00000
69.97000	2726.00000
69.98700	2758.00000
70.00400	2689.00000
70.02100	2746.00000
70.03800	2682.00000
70.05500	2723.00000
70.07200	2692.00000
70.08900	2731.00000
70.10600	2682.00000
70.12300	2757.00000
70.14000	2675.00000
70.15700	2618.00000
70.17400	2729.00000
70.19100	2665.00000
70.20800	2683.00000
70.22500	2662.00000
70.24200	2684.00000
70.25900	2622.00000
70.27600	2726.00000
70.29300	2683.00000
70.31000	2671.00000
70.32700	2676.00000
70.34400	2734.00000
70.36100	2735.00000
70.37800	2760.00000
70.39500	2718.00000
70.41200	2706.00000
70.42900	2728.00000
70.44600	2583.00000
70.46300	2619.00000
70.48000	2647.00000
70.49700	2578.00000
70.51400	2546.00000
70.53100	2685.00000
70.54800	2714.00000
70.56500	2636.00000
70.58200	2565.00000
70.59900	2658.00000
70.61600	2692.00000
70.63300	2668.00000
70.65000	2763.00000
70.66700	2682.00000
70.68400	2599.00000
70.70100	2506.00000
70.71800	2642.00000
70.73500	2681.00000
70.75200	2662.00000
70.76900	2730.00000
70.78600	2686.00000
70.80300	2711.00000
70.82000	2667.00000
70.83700	2623.00000
70.85400	2697.00000
70.87100	2718.00000
70.88800	2751.00000
70.90500	2678.00000
70.92200	2695.00000
70.93900	2601.00000
70.95600	2634.00000
70.97300	2651.00000
70.99000	2651.00000
71.00700	2584.00000
71.02400	2641.00000
71.04100	2586.00000
71.05800	2641.00000
71.07500	2686.00000
71.09200	2777.00000
71.10900	2728.00000
71.12600	2717.00000
71.14300	2601.00000
71.16000	2660.00000
71.17700	2587.00000
71.19400	2573.00000
71.21100	2677.00000
71.22800	2716.00000
71.24500	2614.00000
71.26200	2628.00000
71.27900	2634.00000
71.29600	2661.00000
71.31300	2699.00000
71.33000	2706.00000
71.34700	2705.00000
71.36400	2755.00000
71.38100	2745.00000
71.39800	2747.00000
71.41500	2732.00000
71.43200	2685.00000
71.44900	2774.00000
71.46600	2716.00000
71.48300	2632.00000
71.50000	2585.00000
71.51700	2568.00000
71.53400	2728.00000
71.55100	2666.00000
71.56800	2706.00000
71.58500	2685.00000
71.60200	2549.00000
71.61900	2743.00000
71.63600	2786.00000
71.65300	2669.00000
71.67000	2672.00000
71.68700	2640.00000
71.70400	2664.00000
71.72100	2717.00000
71.73800	2670.00000
71.75500	2716.00000
71.77200	2609.00000
71.78900	2756.00000
71.80600	2710.00000
71.82300	2693.00000
71.84000	2572.00000
71.85700	2643.00000
71.87400	2652.00000
71.89100	2715.00000
71.90800	2656.00000
71.92500	2620.00000
71.94200	2675.00000
71.95900	2634.00000
71.97600	2674.00000
71.99300	2638.00000
72.01000	2670.00000
72.02700	2552.00000
72.04400	2604.00000
72.06100	2650.00000
72.07800	2590.00000
72.09500	2621.00000
72.11200	2608.00000
72.12900	2623.00000
72.14600	2673.00000
72.16300	2731.00000
72.18000	2690.00000
72.19700	2562.00000
72.21400	2562.00000
72.23100	2597.00000
72.24800	2538.00000
72.26500	2576.00000
72.28200	2631.00000
72.29900	2615.00000
72.31600	2599.00000
72.33300	2658.00000
72.35000	2706.00000
72.36700	2625.00000
72.38400	2614.00000
72.40100	2699.00000
72.41800	2607.00000
72.43500	2578.00000
72.45200	2526.00000
72.46900	2600.00000
72.48600	2566.00000
72.50300	2568.00000
72.52000	2618.00000
72.53700	2667.00000
72.55400	2634.00000
72.57100	2661.00000
72.58800	2619.00000
72.60500	2661.00000
72.62200	2684.00000
72.63900	2632.00000
72.65600	2684.00000
72.67300	2699.00000
72.69000	2661.00000
72.70700	2646.00000
72.72400	2602.00000
72.74100	2607.00000
72.75800	2716.00000
72.77500	2638.00000
72.79200	2692.00000
72.80900	2709.00000
72.82600	2722.00000
72.84300	2548.00000
72.86000	2608.00000
72.87700	2721.00000
72.89400	2763.00000
72.91100	2659.00000
72.92800	2712.00000
72.94500	2674.00000
72.96200	2753.00000
72.97900	2692.00000
72.99600	2658.00000
73.01300	2730.00000
73.03000	2728.00000
73.04700	2557.00000
73.06400	2602.00000
73.08100	2634.00000
73.09800	2710.00000
73.11500	2667.00000
73.13200	2669.00000
73.14900	2744.00000
73.16600	2609.00000
73.18300	2571.00000
73.20000	2639.00000
73.21700	2684.00000
73.23400	2739.00000
73.25100	2680.00000
73.26800	2753.00000
73.28500	2776.00000
73.30200	2668.00000
73.31900	2670.00000
73.33600	2704.00000
73.35300	2728.00000
73.37000	2698.00000
73.38700	2682.00000
73.40400	2641.00000
73.42100	2660.00000
73.43800	2607.00000
73.45500	2566.00000
73.47200	2657.00000
73.48900	2677.00000
73.50600	2635.00000
73.52300	2648.00000
73.54000	2669.00000
73.55700	2665.00000
73.57400	2606.00000
73.59100	2543.00000
73.60800	2601.00000
73.62500	2592.00000
73.64200	2636.00000
73.65900	2687.00000
73.67600	2693.00000
73.69300	2759.00000
73.71000	2749.00000
73.72700	2681.00000
73.74400	2649.00000
73.76100	2604.00000
73.77800	2633.00000
73.79500	2647.00000
73.81200	2585.00000
73.82900	2670.00000
73.84600	2699.00000
73.86300	2590.00000
73.88000	2588.00000
73.89700	2619.00000
73.91400	2567.00000
73.93100	2605.00000
73.94800	2700.00000
73.96500	2618.00000
73.98200	2660.00000
73.99900	2672.00000
74.01600	2600.00000
74.03300	2677.00000
74.05000	2684.00000
74.06700	2632.00000
74.08400	2606.00000
74.10100	2505.00000
74.11800	2639.00000
74.13500	2695.00000
74.15200	2585.00000
74.16900	2738.00000
74.18600	2699.00000
74.20300	2641.00000
74.22000	2624.00000
74.23700	2605.00000
74.25400	2659.00000
74.27100	2550.00000
74.28800	2580.00000
74.30500	2607.00000
74.32200	2597.00000
74.33900	2690.00000
74.35600	2690.00000
74.37300	2685.00000
74.39000	2648.00000
74.40700	2633.00000
74.42400	2743.00000
74.44100	2705.00000
74.45800	2552.00000
74.47500	2579.00000
74.49200	2718.00000
74.50900	2678.00000
74.52600	2573.00000
74.54300	2569.00000
74.56000	2536.00000
74.57700	2569.00000
74.59400	2623.00000
74.61100	2656.00000
74.62800	2645.00000
74.64500	2567.00000
74.66200	2656.00000
74.67900	2576.00000
74.69600	2579.00000
74.71300	2596.00000
74.73000	2670.00000
74.74700	2570.00000
74.76400	2580.00000
74.78100	2703.00000
74.79800	2596.00000
74.81500	2650.00000
74.83200	2573.00000
74.84900	2603.00000
74.86600	2611.00000
74.88300	2700.00000
74.90000	2523.00000
74.91700	2594.00000
74.93400	2551.00000
74.95100	2601.00000
74.96800	2567.00000
74.98500	2543.00000
75.00200	2607.00000
75.01900	2621.00000
