4.03000	7255.00000
4.04000	7253.00000
4.05000	7274.00000
4.06000	7328.00000
4.07000	7331.00000
4.08000	7271.00000
4.09000	7270.00000
4.10000	7276.00000
4.11000	7226.00000
4.12000	7244.00000
4.13000	7245.00000
4.14000	7272.00000
4.15000	7289.00000
4.16000	7279.00000
4.17000	7223.00000
4.18000	7304.00000
4.19000	7252.00000
4.20000	7238.00000
4.21000	7280.00000
4.22000	7290.00000
4.23000	7253.00000
4.24000	7298.00000
4.25000	7268.00000
4.26000	7241.00000
4.27000	7266.00000
4.28000	7265.00000
4.29000	7248.00000
4.30000	7291.00000
4.31000	7324.00000
4.32000	7239.00000
4.33000	7302.00000
4.34000	7235.00000
4.35000	7246.00000
4.36000	7269.00000
4.37000	7293.00000
4.38000	7276.00000
4.39000	7285.00000
4.40000	7281.00000
4.41000	7275.00000
4.42000	7298.00000
4.43000	7309.00000
4.44000	7315.00000
4.45000	7299.00000
4.46000	7256.00000
4.47000	7259.00000
4.48000	7287.00000
4.49000	7279.00000
4.50000	7238.00000
4.51000	7240.00000
4.52000	7289.00000
4.53000	7282.00000
4.54000	7379.00000
4.55000	7353.00000
4.56000	7287.00000
4.57000	7343.00000
4.58000	7318.00000
4.59000	7326.00000
4.60000	7390.00000
4.61000	7342.00000
4.62000	7311.00000
4.63000	7333.00000
4.64000	7356.00000
4.65000	7377.00000
4.66000	7440.00000
4.67000	7466.00000
4.68000	7440.00000
4.69000	7458.00000
4.70000	7416.00000
4.71000	7422.00000
4.72000	7378.00000
4.73000	7380.00000
4.74000	7314.00000
4.75000	7339.00000
4.76000	7304.00000
4.77000	7356.00000
4.78000	7374.00000
4.79000	7387.00000
4.80000	7321.00000
4.81000	7307.00000
4.82000	7358.00000
4.83000	7374.00000
4.84000	7407.00000
4.85000	7378.00000
4.86000	7343.00000
4.87000	7367.00000
4.88000	7340.00000
4.89000	7418.00000
4.90000	7447.00000
4.91000	7502.00000
4.92000	7497.00000
4.93000	7668.00000
4.94000	7779.00000
4.95000	8131.00000
4.96000	8758.00000
4.97000	9809.00000
4.98000	11206.00000
4.99000	12407.00000
5.00000	12045.00000
5.01000	10585.00000
5.02000	9012.00000
5.03000	8095.00000
5.04000	7625.00000
5.05000	7439.00000
5.06000	7426.00000
5.07000	7405.00000
5.08000	7403.00000
5.09000	7333.00000
5.10000	7321.00000
5.11000	7307.00000
5.12000	7364.00000
5.13000	7341.00000
5.14000	7346.00000
5.15000	7339.00000
5.16000	7288.00000
5.17000	7299.00000
5.18000	7274.00000
5.19000	7294.00000
5.20000	7310.00000
5.21000	7327.00000
5.22000	7221.00000
5.23000	7271.00000
5.24000	7296.00000
5.25000	7229.00000
5.26000	7255.00000
5.27000	7266.00000
5.28000	7280.00000
5.29000	7297.00000
5.30000	7293.00000
5.31000	7324.00000
5.32000	7384.00000
5.33000	7337.00000
5.34000	7309.00000
5.35000	7313.00000
5.36000	7332.00000
5.37000	7299.00000
5.38000	7358.00000
5.39000	7368.00000
5.40000	7307.00000
5.41000	7310.00000
5.42000	7318.00000
5.43000	7315.00000
5.44000	7387.00000
5.45000	7345.00000
5.46000	7339.00000
5.47000	7317.00000
5.48000	7296.00000
5.49000	7322.00000
5.50000	7387.00000
5.51000	7368.00000
5.52000	7295.00000
5.53000	7339.00000
5.54000	7342.00000
5.55000	7344.00000
5.56000	7369.00000
5.57000	7323.00000
5.58000	7276.00000
5.59000	7310.00000
5.60000	7352.00000
5.61000	7313.00000
5.62000	7334.00000
5.63000	7340.00000
5.64000	7354.00000
5.65000	7348.00000
5.66000	7351.00000
5.67000	7353.00000
5.68000	7355.00000
5.69000	7330.00000
5.70000	7302.00000
5.71000	7331.00000
5.72000	7288.00000
5.73000	7308.00000
5.74000	7385.00000
5.75000	7345.00000
5.76000	7309.00000
5.77000	7352.00000
5.78000	7335.00000
5.79000	7370.00000
5.80000	7383.00000
5.81000	7388.00000
5.82000	7325.00000
5.83000	7361.00000
5.84000	7341.00000
5.85000	7382.00000
5.86000	7412.00000
5.87000	7452.00000
5.88000	7330.00000
5.89000	7438.00000
5.90000	7390.00000
5.91000	7397.00000
5.92000	7353.00000
5.93000	7361.00000
5.94000	7352.00000
5.95000	7392.00000
5.96000	7378.00000
5.97000	7363.00000
5.98000	7432.00000
5.99000	7426.00000
6.00000	7366.00000
6.01000	7359.00000
6.02000	7393.00000
6.03000	7372.00000
6.04000	7420.00000
6.05000	7442.00000
6.06000	7404.00000
6.07000	7384.00000
6.08000	7372.00000
6.09000	7342.00000
6.10000	7429.00000
6.11000	7478.00000
6.12000	7437.00000
6.13000	7403.00000
6.14000	7424.00000
6.15000	7406.00000
6.16000	7456.00000
6.17000	7454.00000
6.18000	7385.00000
6.19000	7360.00000
6.20000	7395.00000
6.21000	7394.00000
6.22000	7445.00000
6.23000	7418.00000
6.24000	7462.00000
6.25000	7458.00000
6.26000	7451.00000
6.27000	7447.00000
6.28000	7446.00000
6.29000	7475.00000
6.30000	7409.00000
6.31000	7396.00000
6.32000	7403.00000
6.33000	7433.00000
6.34000	7454.00000
6.35000	7519.00000
6.36000	7422.00000
6.37000	7493.00000
6.38000	7451.00000
6.39000	7468.00000
6.40000	7510.00000
6.41000	7491.00000
6.42000	7461.00000
6.43000	7477.00000
6.44000	7501.00000
6.45000	7481.00000
6.46000	7554.00000
6.47000	7523.00000
6.48000	7448.00000
6.49000	7473.00000
6.50000	7438.00000
6.51000	7466.00000
6.52000	7528.00000
6.53000	7495.00000
6.54000	7502.00000
6.55000	7464.00000
6.56000	7519.00000
6.57000	7482.00000
6.58000	7512.00000
6.59000	7514.00000
6.60000	7506.00000
6.61000	7536.00000
6.62000	7524.00000
6.63000	7496.00000
6.64000	7575.00000
6.65000	7567.00000
6.66000	7530.00000
6.67000	7537.00000
6.68000	7550.00000
6.69000	7593.00000
6.70000	7610.00000
6.71000	7645.00000
6.72000	7570.00000
6.73000	7630.00000
6.74000	7620.00000
6.75000	7658.00000
6.76000	7656.00000
6.77000	7684.00000
6.78000	7647.00000
6.79000	7663.00000
6.80000	7741.00000
6.81000	7813.00000
6.82000	7865.00000
6.83000	7979.00000
6.84000	8011.00000
6.85000	8271.00000
6.86000	8553.00000
6.87000	9048.00000
6.88000	9770.00000
6.89000	10852.00000
6.90000	12098.00000
6.91000	13467.00000
6.92000	14480.00000
6.93000	14673.00000
6.94000	13967.00000
6.95000	12697.00000
6.96000	11231.00000
6.97000	10199.00000
6.98000	9490.00000
6.99000	8941.00000
7.00000	8578.00000
7.01000	8294.00000
7.02000	8123.00000
7.03000	8052.00000
7.04000	7992.00000
7.05000	7956.00000
7.06000	7952.00000
7.07000	7857.00000
7.08000	7830.00000
7.09000	7810.00000
7.10000	7770.00000
7.11000	7774.00000
7.12000	7789.00000
7.13000	7797.00000
7.14000	7774.00000
7.15000	7751.00000
7.16000	7728.00000
7.17000	7686.00000
7.18000	7718.00000
7.19000	7769.00000
7.20000	7719.00000
7.21000	7720.00000
7.22000	7707.00000
7.23000	7722.00000
7.24000	7762.00000
7.25000	7751.00000
7.26000	7705.00000
7.27000	7749.00000
7.28000	7727.00000
7.29000	7723.00000
7.30000	7778.00000
7.31000	7750.00000
7.32000	7694.00000
7.33000	7744.00000
7.34000	7691.00000
7.35000	7753.00000
7.36000	7763.00000
7.37000	7787.00000
7.38000	7745.00000
7.39000	7783.00000
7.40000	7718.00000
7.41000	7722.00000
7.42000	7730.00000
7.43000	7769.00000
7.44000	7709.00000
7.45000	7724.00000
7.46000	7746.00000
7.47000	7779.00000
7.48000	7799.00000
7.49000	7823.00000
7.50000	7755.00000
7.51000	7779.00000
7.52000	7797.00000
7.53000	7774.00000
7.54000	7809.00000
7.55000	7827.00000
7.56000	7805.00000
7.57000	7878.00000
7.58000	7964.00000
7.59000	8018.00000
7.60000	8092.00000
7.61000	8035.00000
7.62000	7955.00000
7.63000	7934.00000
7.64000	7875.00000
7.65000	7846.00000
7.66000	7905.00000
7.67000	7928.00000
7.68000	7890.00000
7.69000	7845.00000
7.70000	7858.00000
7.71000	7842.00000
7.72000	7910.00000
7.73000	7931.00000
7.74000	7918.00000
7.75000	7921.00000
7.76000	7906.00000
7.77000	7920.00000
7.78000	7976.00000
7.79000	8008.00000
7.80000	7929.00000
7.81000	7966.00000
7.82000	7993.00000
7.83000	8029.00000
7.84000	7966.00000
7.85000	8040.00000
7.86000	7999.00000
7.87000	8067.00000
7.88000	8072.00000
7.89000	8088.00000
7.90000	8120.00000
7.91000	8212.00000
7.92000	8140.00000
7.93000	8238.00000
7.94000	8289.00000
7.95000	8347.00000
7.96000	8431.00000
7.97000	8524.00000
7.98000	8502.00000
7.99000	8607.00000
8.00000	8757.00000
8.01000	8897.00000
8.02000	9184.00000
8.03000	9378.00000
8.04000	9604.00000
8.05000	10028.00000
8.06000	10556.00000
8.07000	11314.00000
8.08000	12435.00000
8.09000	14068.00000
8.10000	16455.00000
8.11000	20160.00000
8.12000	25657.00000
8.13000	33860.00000
8.14000	44832.00000
8.15000	56426.00000
8.16000	64775.00000
8.17000	66355.00000
8.18000	58989.00000
8.19000	46878.00000
8.20000	35204.00000
8.21000	26196.00000
8.22000	20018.00000
8.23000	16164.00000
8.24000	13676.00000
8.25000	12112.00000
8.26000	11089.00000
8.27000	10349.00000
8.28000	9757.00000
8.29000	9469.00000
8.30000	9211.00000
8.31000	9086.00000
8.32000	8996.00000
8.33000	8887.00000
8.34000	8732.00000
8.35000	8734.00000
8.36000	8654.00000
8.37000	8681.00000
8.38000	8709.00000
8.39000	8678.00000
8.40000	8655.00000
8.41000	8771.00000
8.42000	8867.00000
8.43000	9043.00000
8.44000	9335.00000
8.45000	9656.00000
8.46000	10165.00000
8.47000	10998.00000
8.48000	12309.00000
8.49000	14337.00000
8.50000	17457.00000
8.51000	21329.00000
8.52000	25183.00000
8.53000	27404.00000
8.54000	26537.00000
8.55000	22911.00000
8.56000	18527.00000
8.57000	14966.00000
8.58000	12419.00000
8.59000	10926.00000
8.60000	9978.00000
8.61000	9348.00000
8.62000	8964.00000
8.63000	8743.00000
8.64000	8567.00000
8.65000	8481.00000
8.66000	8345.00000
8.67000	8256.00000
8.68000	8284.00000
8.69000	8267.00000
8.70000	8162.00000
8.71000	8180.00000
8.72000	8156.00000
8.73000	8139.00000
8.74000	8163.00000
8.75000	8164.00000
8.76000	8064.00000
8.77000	8106.00000
8.78000	8107.00000
8.79000	8127.00000
8.80000	8157.00000
8.81000	8119.00000
8.82000	8005.00000
8.83000	8089.00000
8.84000	8101.00000
8.85000	8050.00000
8.86000	8136.00000
8.87000	8155.00000
8.88000	8086.00000
8.89000	8100.00000
8.90000	8133.00000
8.91000	8116.00000
8.92000	8113.00000
8.93000	8149.00000
8.94000	8138.00000
8.95000	8150.00000
8.96000	8166.00000
8.97000	8108.00000
8.98000	8199.00000
8.99000	8221.00000
9.00000	8191.00000
9.01000	8215.00000
9.02000	8256.00000
9.03000	8213.00000
9.04000	8261.00000
9.05000	8277.00000
9.06000	8193.00000
9.07000	8271.00000
9.08000	8269.00000
9.09000	8292.00000
9.10000	8363.00000
9.11000	8456.00000
9.12000	8346.00000
9.13000	8417.00000
9.14000	8395.00000
9.15000	8413.00000
9.16000	8439.00000
9.17000	8431.00000
9.18000	8429.00000
9.19000	8515.00000
9.20000	8542.00000
9.21000	8609.00000
9.22000	8621.00000
9.23000	8715.00000
9.24000	8704.00000
9.25000	8768.00000
9.26000	8851.00000
9.27000	8901.00000
9.28000	9026.00000
9.29000	9116.00000
9.30000	9181.00000
9.31000	9361.00000
9.32000	9557.00000
9.33000	9741.00000
9.34000	10043.00000
9.35000	10324.00000
9.36000	10766.00000
9.37000	11412.00000
9.38000	12315.00000
9.39000	13849.00000
9.40000	16177.00000
9.41000	20166.00000
9.42000	26340.00000
9.43000	36383.00000
9.44000	51354.00000
9.45000	69696.00000
9.46000	85852.00000
9.47000	89984.00000
9.48000	78618.00000
9.49000	59976.00000
9.50000	42428.00000
9.51000	29957.00000
9.52000	22630.00000
9.53000	18353.00000
9.54000	15856.00000
9.55000	14606.00000
9.56000	13789.00000
9.57000	13186.00000
9.58000	12873.00000
9.59000	12683.00000
9.60000	12610.00000
9.61000	12793.00000
9.62000	13029.00000
9.63000	13449.00000
9.64000	14091.00000
9.65000	14888.00000
9.66000	15793.00000
9.67000	17273.00000
9.68000	19233.00000
9.69000	22122.00000
9.70000	26212.00000
9.71000	32120.00000
9.72000	40929.00000
9.73000	55645.00000
9.74000	79787.00000
9.75000	118857.00000
9.76000	179704.00000
9.77000	262611.00000
9.78000	347657.00000
9.79000	401390.00000
9.80000	381642.00000
9.81000	302257.00000
9.82000	209933.00000
9.83000	138291.00000
9.84000	91301.00000
9.85000	63717.00000
9.86000	47227.00000
9.87000	37906.00000
9.88000	32925.00000
9.89000	30309.00000
9.90000	28827.00000
9.91000	28501.00000
9.92000	29514.00000
9.93000	32955.00000
9.94000	40974.00000
9.95000	56294.00000
9.96000	84262.00000
9.97000	133100.00000
9.98000	200298.00000
9.99000	250693.00000
10.00000	247963.00000
10.01000	189305.00000
10.02000	117814.00000
10.03000	67442.00000
10.04000	40659.00000
10.05000	27225.00000
10.06000	20554.00000
10.07000	16717.00000
10.08000	14442.00000
10.09000	13068.00000
10.10000	12130.00000
10.11000	11387.00000
10.12000	10923.00000
10.13000	10545.00000
10.14000	10158.00000
10.15000	9936.00000
10.16000	9783.00000
10.17000	9638.00000
10.18000	9502.00000
10.19000	9368.00000
10.20000	9175.00000
10.21000	9141.00000
10.22000	8998.00000
10.23000	8913.00000
10.24000	8909.00000
10.25000	8860.00000
10.26000	8720.00000
10.27000	8713.00000
10.28000	8597.00000
10.29000	8566.00000
10.30000	8559.00000
10.31000	8581.00000
10.32000	8432.00000
10.33000	8445.00000
10.34000	8369.00000
10.35000	8367.00000
10.36000	8375.00000
10.37000	8328.00000
10.38000	8245.00000
10.39000	8257.00000
10.40000	8299.00000
10.41000	8239.00000
10.42000	8254.00000
10.43000	8259.00000
10.44000	8193.00000
10.45000	8175.00000
10.46000	8148.00000
10.47000	8102.00000
10.48000	8119.00000
10.49000	8106.00000
10.50000	8092.00000
10.51000	8098.00000
10.52000	8062.00000
10.53000	8098.00000
10.54000	8126.00000
10.55000	8076.00000
10.56000	8015.00000
10.57000	8021.00000
10.58000	7996.00000
10.59000	7980.00000
10.60000	8022.00000
10.61000	8020.00000
10.62000	7924.00000
10.63000	7977.00000
10.64000	7974.00000
10.65000	8018.00000
10.66000	8029.00000
10.67000	8088.00000
10.68000	8105.00000
10.69000	8160.00000
10.70000	8192.00000
10.71000	8200.00000
10.72000	8176.00000
10.73000	8159.00000
10.74000	8029.00000
10.75000	7992.00000
10.76000	7986.00000
10.77000	7921.00000
10.78000	7952.00000
10.79000	7918.00000
10.80000	7808.00000
10.81000	7891.00000
10.82000	7857.00000
10.83000	7909.00000
10.84000	7889.00000
10.85000	7944.00000
10.86000	7943.00000
10.87000	7985.00000
10.88000	7980.00000
10.89000	7933.00000
10.90000	7955.00000
10.91000	7907.00000
10.92000	7835.00000
10.93000	7868.00000
10.94000	7865.00000
10.95000	7848.00000
10.96000	7874.00000
10.97000	7853.00000
10.98000	7748.00000
10.99000	7773.00000
11.00000	7794.00000
11.01000	7738.00000
11.02000	7767.00000
11.03000	7812.00000
11.04000	7755.00000
11.05000	7761.00000
11.06000	7761.00000
11.07000	7781.00000
11.08000	7750.00000
11.09000	7781.00000
11.10000	7700.00000
11.11000	7723.00000
11.12000	7738.00000
11.13000	7735.00000
11.14000	7773.00000
11.15000	7747.00000
11.16000	7636.00000
11.17000	7653.00000
11.18000	7717.00000
11.19000	7714.00000
11.20000	7728.00000
11.21000	7728.00000
11.22000	7664.00000
11.23000	7696.00000
11.24000	7694.00000
11.25000	7659.00000
11.26000	7646.00000
11.27000	7664.00000
11.28000	7624.00000
11.29000	7645.00000
11.30000	7662.00000
11.31000	7640.00000
11.32000	7677.00000
11.33000	7662.00000
11.34000	7598.00000
11.35000	7626.00000
11.36000	7636.00000
11.37000	7657.00000
11.38000	7667.00000
11.39000	7697.00000
11.40000	7691.00000
11.41000	7794.00000
11.42000	7793.00000
11.43000	7740.00000
11.44000	7761.00000
11.45000	7680.00000
11.46000	7626.00000
11.47000	7629.00000
11.48000	7654.00000
11.49000	7614.00000
11.50000	7707.00000
11.51000	7660.00000
11.52000	7665.00000
11.53000	7648.00000
11.54000	7631.00000
11.55000	7693.00000
11.56000	7674.00000
11.57000	7715.00000
11.58000	7684.00000
11.59000	7671.00000
11.60000	7668.00000
11.61000	7674.00000
11.62000	7770.00000
11.63000	7776.00000
11.64000	7673.00000
11.65000	7745.00000
11.66000	7757.00000
11.67000	7758.00000
11.68000	7804.00000
11.69000	7809.00000
11.70000	7768.00000
11.71000	7831.00000
11.72000	7862.00000
11.73000	7868.00000
11.74000	7931.00000
11.75000	7947.00000
11.76000	7955.00000
11.77000	7988.00000
11.78000	8054.00000
11.79000	8059.00000
11.80000	8166.00000
11.81000	8263.00000
11.82000	8282.00000
11.83000	8405.00000
11.84000	8574.00000
11.85000	8646.00000
11.86000	9003.00000
11.87000	9248.00000
11.88000	9646.00000
11.89000	10138.00000
11.90000	10703.00000
11.91000	11030.00000
11.92000	11149.00000
11.93000	11143.00000
11.94000	11189.00000
11.95000	11422.00000
11.96000	11971.00000
11.97000	12648.00000
11.98000	13867.00000
11.99000	15559.00000
12.00000	17796.00000
12.01000	21299.00000
12.02000	26675.00000
12.03000	34817.00000
12.04000	47692.00000
12.05000	66165.00000
12.06000	90778.00000
12.07000	118690.00000
12.08000	139050.00000
12.09000	139865.00000
12.10000	120744.00000
12.11000	93551.00000
12.12000	69208.00000
12.13000	53812.00000
12.14000	45051.00000
12.15000	40882.00000
12.16000	38738.00000
12.17000	35790.00000
12.18000	30700.00000
12.19000	25328.00000
12.20000	20411.00000
12.21000	16850.00000
12.22000	14409.00000
12.23000	12764.00000
12.24000	11531.00000
12.25000	10792.00000
12.26000	10212.00000
12.27000	9761.00000
12.28000	9508.00000
12.29000	9219.00000
12.30000	8959.00000
12.31000	8789.00000
12.32000	8659.00000
12.33000	8564.00000
12.34000	8514.00000
12.35000	8451.00000
12.36000	8330.00000
12.37000	8288.00000
12.38000	8242.00000
12.39000	8182.00000
12.40000	8173.00000
12.41000	8136.00000
12.42000	8041.00000
12.43000	8028.00000
12.44000	7977.00000
12.45000	7931.00000
12.46000	7962.00000
12.47000	7994.00000
12.48000	7875.00000
12.49000	7891.00000
12.50000	7869.00000
12.51000	7912.00000
12.52000	7925.00000
12.53000	7912.00000
12.54000	7851.00000
12.55000	7831.00000
12.56000	7816.00000
12.57000	7838.00000
12.58000	7946.00000
12.59000	7981.00000
12.60000	7894.00000
12.61000	7908.00000
12.62000	7909.00000
12.63000	7882.00000
12.64000	7952.00000
12.65000	7979.00000
12.66000	7923.00000
12.67000	8006.00000
12.68000	7988.00000
12.69000	8009.00000
12.70000	8079.00000
12.71000	8125.00000
12.72000	8113.00000
12.73000	8254.00000
12.74000	8302.00000
12.75000	8421.00000
12.76000	8537.00000
12.77000	8741.00000
12.78000	8834.00000
12.79000	9091.00000
12.80000	9328.00000
12.81000	9621.00000
12.82000	10042.00000
12.83000	10479.00000
12.84000	11099.00000
12.85000	11801.00000
12.86000	12819.00000
12.87000	13964.00000
12.88000	15593.00000
12.89000	17325.00000
12.90000	19359.00000
12.91000	21560.00000
12.92000	23484.00000
12.93000	24933.00000
12.94000	25471.00000
12.95000	24838.00000
12.96000	23230.00000
12.97000	21553.00000
12.98000	19592.00000
12.99000	17793.00000
13.00000	16469.00000
13.01000	15179.00000
13.02000	14185.00000
13.03000	13637.00000
13.04000	13169.00000
13.05000	12954.00000
13.06000	13031.00000
13.07000	13258.00000
13.08000	13663.00000
13.09000	14449.00000
13.10000	15383.00000
13.11000	16682.00000
13.12000	18424.00000
13.13000	20485.00000
13.14000	22568.00000
13.15000	25098.00000
13.16000	27167.00000
13.17000	28693.00000
13.18000	29100.00000
13.19000	28155.00000
13.20000	26049.00000
13.21000	23697.00000
13.22000	21019.00000
13.23000	18688.00000
13.24000	16738.00000
13.25000	15130.00000
13.26000	13681.00000
13.27000	12565.00000
13.28000	11762.00000
13.29000	11079.00000
13.30000	10622.00000
13.31000	10175.00000
13.32000	9763.00000
13.33000	9528.00000
13.34000	9324.00000
13.35000	9159.00000
13.36000	9073.00000
13.37000	8922.00000
13.38000	8756.00000
13.39000	8750.00000
13.40000	8720.00000
13.41000	8581.00000
13.42000	8597.00000
13.43000	8523.00000
13.44000	8497.00000
13.45000	8472.00000
13.46000	8453.00000
13.47000	8527.00000
13.48000	8580.00000
13.49000	8526.00000
13.50000	8535.00000
13.51000	8562.00000
13.52000	8572.00000
13.53000	8624.00000
13.54000	8702.00000
13.55000	8782.00000
13.56000	8792.00000
13.57000	8887.00000
13.58000	9017.00000
13.59000	9115.00000
13.60000	9259.00000
13.61000	9456.00000
13.62000	9565.00000
13.63000	9884.00000
13.64000	10145.00000
13.65000	10544.00000
13.66000	11004.00000
13.67000	11582.00000
13.68000	12163.00000
13.69000	13109.00000
13.70000	14458.00000
13.71000	16416.00000
13.72000	19030.00000
13.73000	22953.00000
13.74000	28250.00000
13.75000	35988.00000
13.76000	46010.00000
13.77000	56821.00000
13.78000	65648.00000
13.79000	68673.00000
13.80000	66742.00000
13.81000	64233.00000
13.82000	63563.00000
13.83000	65968.00000
13.84000	69657.00000
13.85000	71588.00000
13.86000	69084.00000
13.87000	62927.00000
13.88000	53969.00000
13.89000	44564.00000
13.90000	36278.00000
13.91000	29395.00000
13.92000	24252.00000
13.93000	20464.00000
13.94000	17717.00000
13.95000	15651.00000
13.96000	14193.00000
13.97000	13115.00000
13.98000	12304.00000
13.99000	11925.00000
14.00000	11620.00000
14.01000	11623.00000
14.02000	11934.00000
14.03000	12674.00000
14.04000	13782.00000
14.05000	15737.00000
14.06000	18529.00000
14.07000	21359.00000
14.08000	23372.00000
14.09000	23181.00000
14.10000	20619.00000
14.11000	17505.00000
14.12000	14502.00000
14.13000	12374.00000
14.14000	11017.00000
14.15000	10091.00000
14.16000	9451.00000
14.17000	9145.00000
14.18000	8823.00000
14.19000	8619.00000
14.20000	8526.00000
14.21000	8458.00000
14.22000	8286.00000
14.23000	8255.00000
14.24000	8211.00000
14.25000	8147.00000
14.26000	8140.00000
14.27000	8067.00000
14.28000	8047.00000
14.29000	8010.00000
14.30000	8049.00000
14.31000	8008.00000
14.32000	8013.00000
14.33000	8016.00000
14.34000	7923.00000
14.35000	7934.00000
14.36000	7989.00000
14.37000	8008.00000
14.38000	8037.00000
14.39000	8043.00000
14.40000	8001.00000
14.41000	8027.00000
14.42000	8028.00000
14.43000	7980.00000
14.44000	7994.00000
14.45000	8014.00000
14.46000	7960.00000
14.47000	7974.00000
14.48000	7933.00000
14.49000	7932.00000
14.50000	7982.00000
14.51000	7976.00000
14.52000	7918.00000
14.53000	7965.00000
14.54000	8006.00000
14.55000	8011.00000
14.56000	8031.00000
14.57000	8063.00000
14.58000	8018.00000
14.59000	8125.00000
14.60000	8090.00000
14.61000	8107.00000
14.62000	8174.00000
14.63000	8203.00000
14.64000	8239.00000
14.65000	8301.00000
14.66000	8356.00000
14.67000	8443.00000
14.68000	8562.00000
14.69000	8673.00000
14.70000	8735.00000
14.71000	8915.00000
14.72000	9072.00000
14.73000	9258.00000
14.74000	9470.00000
14.75000	9676.00000
14.76000	9874.00000
14.77000	10302.00000
14.78000	10634.00000
14.79000	11243.00000
14.80000	12027.00000
14.81000	12958.00000
14.82000	14168.00000
14.83000	15850.00000
14.84000	17965.00000
14.85000	20614.00000
14.86000	23943.00000
14.87000	27309.00000
14.88000	30551.00000
14.89000	33033.00000
14.90000	34397.00000
14.91000	34393.00000
14.92000	33725.00000
14.93000	32859.00000
14.94000	32184.00000
14.95000	31843.00000
14.96000	31169.00000
14.97000	29940.00000
14.98000	27942.00000
14.99000	25555.00000
15.00000	22913.00000
15.01000	20694.00000
15.02000	18395.00000
15.03000	16294.00000
15.04000	14541.00000
15.05000	13113.00000
15.06000	12010.00000
15.07000	11309.00000
15.08000	10728.00000
15.09000	10323.00000
15.10000	9954.00000
15.11000	9692.00000
15.12000	9337.00000
15.13000	9185.00000
15.14000	9020.00000
15.15000	8904.00000
15.16000	8841.00000
15.17000	8711.00000
15.18000	8612.00000
15.19000	8604.00000
15.20000	8563.00000
15.21000	8530.00000
15.22000	8536.00000
15.23000	8525.00000
15.24000	8419.00000
15.25000	8472.00000
15.26000	8499.00000
15.27000	8414.00000
15.28000	8541.00000
15.29000	8497.00000
15.30000	8484.00000
15.31000	8552.00000
15.32000	8568.00000
15.33000	8585.00000
15.34000	8688.00000
15.35000	8745.00000
15.36000	8800.00000
15.37000	8967.00000
15.38000	9013.00000
15.39000	9222.00000
15.40000	9523.00000
15.41000	9788.00000
15.42000	10071.00000
15.43000	10624.00000
15.44000	11174.00000
15.45000	11915.00000
15.46000	12894.00000
15.47000	14110.00000
15.48000	15379.00000
15.49000	16762.00000
15.50000	17942.00000
15.51000	18664.00000
15.52000	18716.00000
15.53000	18026.00000
15.54000	16937.00000
15.55000	15946.00000
15.56000	15072.00000
15.57000	14510.00000
15.58000	14343.00000
15.59000	14633.00000
15.60000	15167.00000
15.61000	16357.00000
15.62000	18048.00000
15.63000	20812.00000
15.64000	25007.00000
15.65000	31001.00000
15.66000	39662.00000
15.67000	51979.00000
15.68000	67372.00000
15.69000	83072.00000
15.70000	93804.00000
15.71000	92895.00000
15.72000	80570.00000
15.73000	64169.00000
15.74000	48007.00000
15.75000	35754.00000
15.76000	27406.00000
15.77000	21703.00000
15.78000	17865.00000
15.79000	15405.00000
15.80000	13653.00000
15.81000	12370.00000
15.82000	11597.00000
15.83000	10895.00000
15.84000	10331.00000
15.85000	9992.00000
15.86000	9705.00000
15.87000	9427.00000
15.88000	9311.00000
15.89000	9144.00000
15.90000	8996.00000
15.91000	8952.00000
15.92000	8875.00000
15.93000	8857.00000
15.94000	8856.00000
15.95000	8900.00000
15.96000	8888.00000
15.97000	8984.00000
15.98000	9144.00000
15.99000	9298.00000
16.00000	9581.00000
16.01000	9951.00000
16.02000	10368.00000
16.03000	11120.00000
16.04000	12138.00000
16.05000	13447.00000
16.06000	15138.00000
16.07000	17168.00000
16.08000	19210.00000
16.09000	21224.00000
16.10000	21910.00000
16.11000	21359.00000
16.12000	19701.00000
16.13000	17552.00000
16.14000	15226.00000
16.15000	13472.00000
16.16000	12138.00000
16.17000	11193.00000
16.18000	10643.00000
16.19000	10201.00000
16.20000	9931.00000
16.21000	9770.00000
16.22000	9735.00000
16.23000	9747.00000
16.24000	9939.00000
16.25000	10192.00000
16.26000	10436.00000
16.27000	11014.00000
16.28000	11708.00000
16.29000	12629.00000
16.30000	14105.00000
16.31000	15883.00000
16.32000	18273.00000
16.33000	21332.00000
16.34000	24901.00000
16.35000	28434.00000
16.36000	30990.00000
16.37000	31362.00000
16.38000	29672.00000
16.39000	27196.00000
16.40000	24210.00000
16.41000	21395.00000
16.42000	19390.00000
16.43000	17915.00000
16.44000	16908.00000
16.45000	16577.00000
16.46000	16640.00000
16.47000	17101.00000
16.48000	17946.00000
16.49000	18730.00000
16.50000	19139.00000
16.51000	19365.00000
16.52000	19199.00000
16.53000	18987.00000
16.54000	18509.00000
16.55000	17563.00000
16.56000	15979.00000
16.57000	14341.00000
16.58000	12728.00000
16.59000	11552.00000
16.60000	10629.00000
16.61000	10050.00000
16.62000	9486.00000
16.63000	9197.00000
16.64000	8993.00000
16.65000	8720.00000
16.66000	8668.00000
16.67000	8527.00000
16.68000	8418.00000
16.69000	8352.00000
16.70000	8280.00000
16.71000	8262.00000
16.72000	8262.00000
16.73000	8256.00000
16.74000	8213.00000
16.75000	8227.00000
16.76000	8172.00000
16.77000	8200.00000
16.78000	8240.00000
16.79000	8224.00000
16.80000	8189.00000
16.81000	8267.00000
16.82000	8302.00000
16.83000	8342.00000
16.84000	8443.00000
16.85000	8492.00000
16.86000	8518.00000
16.87000	8612.00000
16.88000	8700.00000
16.89000	8834.00000
16.90000	8968.00000
16.91000	9149.00000
16.92000	9264.00000
16.93000	9565.00000
16.94000	9839.00000
16.95000	10192.00000
16.96000	10596.00000
16.97000	11194.00000
16.98000	11735.00000
16.99000	12646.00000
17.00000	13775.00000
17.01000	15174.00000
17.02000	17023.00000
17.03000	19508.00000
17.04000	22508.00000
17.05000	26448.00000
17.06000	31147.00000
17.07000	36911.00000
17.08000	43585.00000
17.09000	50024.00000
17.10000	54418.00000
17.11000	56364.00000
17.12000	54397.00000
17.13000	49070.00000
17.14000	42107.00000
17.15000	35071.00000
17.16000	28583.00000
17.17000	23757.00000
17.18000	20009.00000
17.19000	17127.00000
17.20000	15056.00000
17.21000	13480.00000
17.22000	12186.00000
17.23000	11310.00000
17.24000	10591.00000
17.25000	10000.00000
17.26000	9660.00000
17.27000	9317.00000
17.28000	9027.00000
17.29000	8798.00000
17.30000	8590.00000
17.31000	8367.00000
17.32000	8338.00000
17.33000	8254.00000
17.34000	8049.00000
17.35000	7996.00000
17.36000	7941.00000
17.37000	7923.00000
17.38000	7863.00000
17.39000	7870.00000
17.40000	7766.00000
17.41000	7804.00000
17.42000	7735.00000
17.43000	7671.00000
17.44000	7689.00000
17.45000	7647.00000
17.46000	7575.00000
17.47000	7585.00000
17.48000	7551.00000
17.49000	7527.00000
17.50000	7598.00000
17.51000	7585.00000
17.52000	7508.00000
17.53000	7537.00000
17.54000	7558.00000
17.55000	7568.00000
17.56000	7617.00000
17.57000	7625.00000
17.58000	7570.00000
17.59000	7596.00000
17.60000	7602.00000
17.61000	7572.00000
17.62000	7604.00000
17.63000	7613.00000
17.64000	7601.00000
17.65000	7760.00000
17.66000	7757.00000
17.67000	7779.00000
17.68000	7923.00000
17.69000	8040.00000
17.70000	8143.00000
17.71000	8343.00000
17.72000	8649.00000
17.73000	8978.00000
17.74000	9506.00000
17.75000	10044.00000
17.76000	10724.00000
17.77000	11335.00000
17.78000	11845.00000
17.79000	12042.00000
17.80000	11902.00000
17.81000	11428.00000
17.82000	10754.00000
17.83000	10158.00000
17.84000	9654.00000
17.85000	9200.00000
17.86000	8908.00000
17.87000	8665.00000
17.88000	8489.00000
17.89000	8403.00000
17.90000	8410.00000
17.91000	8418.00000
17.92000	8633.00000
17.93000	8727.00000
17.94000	8875.00000
17.95000	9221.00000
17.96000	9656.00000
17.97000	10278.00000
17.98000	11051.00000
17.99000	11910.00000
18.00000	12715.00000
18.01000	13603.00000
18.02000	14057.00000
18.03000	14015.00000
18.04000	13576.00000
18.05000	12784.00000
18.06000	11799.00000
18.07000	10967.00000
18.08000	10158.00000
18.09000	9546.00000
18.10000	9088.00000
18.11000	8740.00000
18.12000	8367.00000
18.13000	8220.00000
18.14000	8016.00000
18.15000	7874.00000
18.16000	7838.00000
18.17000	7733.00000
18.18000	7619.00000
18.19000	7630.00000
18.20000	7619.00000
18.21000	7584.00000
18.22000	7607.00000
18.23000	7563.00000
18.24000	7598.00000
18.25000	7627.00000
18.26000	7663.00000
18.27000	7745.00000
18.28000	7835.00000
18.29000	7962.00000
18.30000	8033.00000
18.31000	8064.00000
18.32000	7970.00000
18.33000	7856.00000
18.34000	7791.00000
18.35000	7716.00000
18.36000	7608.00000
18.37000	7540.00000
18.38000	7497.00000
18.39000	7468.00000
18.40000	7427.00000
18.41000	7411.00000
18.42000	7356.00000
18.43000	7441.00000
18.44000	7391.00000
18.45000	7368.00000
18.46000	7371.00000
18.47000	7422.00000
18.48000	7360.00000
18.49000	7407.00000
18.50000	7379.00000
18.51000	7394.00000
18.52000	7375.00000
18.53000	7427.00000
18.54000	7402.00000
18.55000	7430.00000
18.56000	7439.00000
18.57000	7446.00000
18.58000	7465.00000
18.59000	7496.00000
18.60000	7471.00000
18.61000	7566.00000
18.62000	7625.00000
18.63000	7715.00000
18.64000	7822.00000
18.65000	8013.00000
18.66000	8161.00000
18.67000	8495.00000
18.68000	8899.00000
18.69000	9252.00000
18.70000	9526.00000
18.71000	9517.00000
18.72000	9187.00000
18.73000	8822.00000
18.74000	8489.00000
18.75000	8263.00000
18.76000	8117.00000
18.77000	8075.00000
18.78000	7947.00000
18.79000	8019.00000
18.80000	7982.00000
18.81000	7945.00000
18.82000	8040.00000
18.83000	8108.00000
18.84000	8111.00000
18.85000	8181.00000
18.86000	8296.00000
18.87000	8439.00000
18.88000	8662.00000
18.89000	8902.00000
18.90000	9206.00000
18.91000	9664.00000
18.92000	10212.00000
18.93000	11099.00000
18.94000	12303.00000
18.95000	13896.00000
18.96000	15740.00000
18.97000	18185.00000
18.98000	20369.00000
18.99000	22126.00000
19.00000	22513.00000
19.01000	21384.00000
19.02000	19233.00000
19.03000	17194.00000
19.04000	15297.00000
19.05000	13944.00000
19.06000	13212.00000
19.07000	12722.00000
19.08000	12705.00000
19.09000	13077.00000
19.10000	13933.00000
19.11000	15244.00000
19.12000	17272.00000
19.13000	19599.00000
19.14000	22238.00000
19.15000	24734.00000
19.16000	25964.00000
19.17000	25523.00000
19.18000	23586.00000
19.19000	20859.00000
19.20000	18208.00000
19.21000	16127.00000
19.22000	14739.00000
19.23000	13873.00000
19.24000	13499.00000
19.25000	13579.00000
19.26000	13920.00000
19.27000	14844.00000
19.28000	16197.00000
19.29000	17901.00000
19.30000	19788.00000
19.31000	21397.00000
19.32000	22338.00000
19.33000	22417.00000
19.34000	21440.00000
19.35000	19675.00000
19.36000	17625.00000
19.37000	15615.00000
19.38000	13891.00000
19.39000	12662.00000
19.40000	11676.00000
19.41000	10952.00000
19.42000	10407.00000
19.43000	10057.00000
19.44000	9701.00000
19.45000	9563.00000
19.46000	9374.00000
19.47000	9340.00000
19.48000	9332.00000
19.49000	9384.00000
19.50000	9358.00000
19.51000	9525.00000
19.52000	9603.00000
19.53000	9795.00000
19.54000	9994.00000
19.55000	10228.00000
19.56000	10406.00000
19.57000	10761.00000
19.58000	11076.00000
19.59000	11297.00000
19.60000	11642.00000
19.61000	11786.00000
19.62000	11809.00000
19.63000	11900.00000
19.64000	11826.00000
19.65000	11613.00000
19.66000	11493.00000
19.67000	11186.00000
19.68000	10885.00000
19.69000	10699.00000
19.70000	10574.00000
19.71000	10549.00000
19.72000	10699.00000
19.73000	10970.00000
19.74000	11284.00000
19.75000	11903.00000
19.76000	12637.00000
19.77000	13583.00000
19.78000	14633.00000
19.79000	15521.00000
19.80000	15876.00000
19.81000	15959.00000
19.82000	15474.00000
19.83000	14930.00000
19.84000	14481.00000
19.85000	14076.00000
19.86000	13611.00000
19.87000	13486.00000
19.88000	13227.00000
19.89000	13150.00000
19.90000	13387.00000
19.91000	13932.00000
19.92000	14816.00000
19.93000	16260.00000
19.94000	17982.00000
19.95000	19489.00000
19.96000	20410.00000
19.97000	20210.00000
19.98000	18951.00000
19.99000	17734.00000
20.00000	16880.00000
20.01000	16776.00000
20.02000	17668.00000
20.03000	19374.00000
20.04000	21774.00000
20.05000	24276.00000
20.06000	25361.00000
20.07000	24452.00000
20.08000	22147.00000
20.09000	19083.00000
20.10000	16483.00000
20.11000	14629.00000
20.12000	13375.00000
20.13000	12338.00000
20.14000	11687.00000
20.15000	11097.00000
20.16000	10636.00000
20.17000	10328.00000
20.18000	10009.00000
20.19000	9719.00000
20.20000	9588.00000
20.21000	9447.00000
20.22000	9266.00000
20.23000	9172.00000
20.24000	9063.00000
20.25000	9030.00000
20.26000	9036.00000
20.27000	9062.00000
20.28000	8980.00000
20.29000	9072.00000
20.30000	9106.00000
20.31000	9280.00000
20.32000	9442.00000
20.33000	9698.00000
20.34000	9889.00000
20.35000	10296.00000
20.36000	10847.00000
20.37000	11561.00000
20.38000	12505.00000
20.39000	13854.00000
20.40000	15411.00000
20.41000	17453.00000
20.42000	19684.00000
20.43000	21736.00000
20.44000	22999.00000
20.45000	23038.00000
20.46000	21646.00000
20.47000	19645.00000
20.48000	17603.00000
20.49000	15729.00000
20.50000	14186.00000
20.51000	13121.00000
20.52000	12298.00000
20.53000	11831.00000
20.54000	11527.00000
20.55000	11399.00000
20.56000	11463.00000
20.57000	11715.00000
20.58000	11919.00000
20.59000	12305.00000
20.60000	12855.00000
20.61000	13448.00000
20.62000	14148.00000
20.63000	14807.00000
20.64000	15783.00000
20.65000	16510.00000
20.66000	16898.00000
20.67000	16980.00000
20.68000	16890.00000
20.69000	16379.00000
20.70000	15683.00000
20.71000	15027.00000
20.72000	14380.00000
20.73000	13826.00000
20.74000	13307.00000
20.75000	12918.00000
20.76000	12680.00000
20.77000	12601.00000
20.78000	12616.00000
20.79000	12672.00000
20.80000	12836.00000
20.81000	13073.00000
20.82000	13086.00000
20.83000	13381.00000
20.84000	13535.00000
20.85000	13624.00000
20.86000	13621.00000
20.87000	13557.00000
20.88000	13210.00000
20.89000	12907.00000
20.90000	12475.00000
20.91000	12054.00000
20.92000	11594.00000
20.93000	11286.00000
20.94000	10841.00000
20.95000	10538.00000
20.96000	10215.00000
20.97000	10052.00000
20.98000	9933.00000
20.99000	9855.00000
21.00000	9770.00000
21.01000	9785.00000
21.02000	9930.00000
21.03000	10050.00000
21.04000	10225.00000
21.05000	10369.00000
21.06000	10343.00000
21.07000	10378.00000
21.08000	10369.00000
21.09000	10325.00000
21.10000	10293.00000
21.11000	10007.00000
21.12000	9814.00000
21.13000	9705.00000
21.14000	9669.00000
21.15000	9735.00000
21.16000	10009.00000
21.17000	10286.00000
21.18000	10720.00000
21.19000	11467.00000
21.20000	12576.00000
21.21000	13806.00000
21.22000	15388.00000
21.23000	16708.00000
21.24000	17331.00000
21.25000	17232.00000
21.26000	16199.00000
21.27000	14738.00000
21.28000	13360.00000
21.29000	12168.00000
21.30000	11223.00000
21.31000	10666.00000
21.32000	10174.00000
21.33000	9935.00000
21.34000	9872.00000
21.35000	9901.00000
21.36000	9850.00000
21.37000	10037.00000
21.38000	10281.00000
21.39000	10594.00000
21.40000	11056.00000
21.41000	11587.00000
21.42000	12255.00000
21.43000	13276.00000
21.44000	14566.00000
21.45000	16145.00000
21.46000	18149.00000
21.47000	20525.00000
21.48000	22865.00000
21.49000	25161.00000
21.50000	26374.00000
21.51000	26106.00000
21.52000	24737.00000
21.53000	22255.00000
21.54000	19505.00000
21.55000	17163.00000
21.56000	15109.00000
21.57000	13609.00000
21.58000	12492.00000
21.59000	11654.00000
21.60000	10929.00000
21.61000	10504.00000
21.62000	10162.00000
21.63000	9959.00000
21.64000	9814.00000
21.65000	9575.00000
21.66000	9473.00000
21.67000	9470.00000
21.68000	9451.00000
21.69000	9443.00000
21.70000	9543.00000
21.71000	9613.00000
21.72000	9669.00000
21.73000	9864.00000
21.74000	10065.00000
21.75000	10410.00000
21.76000	10810.00000
21.77000	11346.00000
21.78000	11834.00000
21.79000	12756.00000
21.80000	13775.00000
21.81000	14907.00000
21.82000	16179.00000
21.83000	17293.00000
21.84000	17860.00000
21.85000	18281.00000
21.86000	18136.00000
21.87000	17745.00000
21.88000	17157.00000
21.89000	16833.00000
21.90000	16654.00000
21.91000	17000.00000
21.92000	17498.00000
21.93000	18510.00000
21.94000	19871.00000
21.95000	21370.00000
21.96000	22670.00000
21.97000	23928.00000
21.98000	24517.00000
21.99000	24165.00000
22.00000	23350.00000
22.01000	21615.00000
22.02000	19543.00000
22.03000	17752.00000
22.04000	16117.00000
22.05000	14633.00000
22.06000	13525.00000
22.07000	12610.00000
22.08000	11696.00000
22.09000	11240.00000
22.10000	10759.00000
22.11000	10478.00000
22.12000	10320.00000
22.13000	10195.00000
22.14000	10094.00000
22.15000	10221.00000
22.16000	10468.00000
22.17000	10901.00000
22.18000	11510.00000
22.19000	12233.00000
22.20000	13036.00000
22.21000	13906.00000
22.22000	14435.00000
22.23000	14325.00000
22.24000	13785.00000
22.25000	12774.00000
22.26000	11628.00000
22.27000	10858.00000
22.28000	10122.00000
22.29000	9631.00000
22.30000	9312.00000
22.31000	9024.00000
22.32000	8748.00000
22.33000	8677.00000
22.34000	8575.00000
22.35000	8521.00000
22.36000	8490.00000
22.37000	8365.00000
22.38000	8273.00000
22.39000	8260.00000
22.40000	8236.00000
22.41000	8273.00000
22.42000	8225.00000
22.43000	8219.00000
22.44000	8195.00000
22.45000	8211.00000
22.46000	8204.00000
22.47000	8209.00000
22.48000	8198.00000
22.49000	8207.00000
22.50000	8151.00000
22.51000	8197.00000
22.52000	8223.00000
22.53000	8168.00000
22.54000	8244.00000
22.55000	8240.00000
22.56000	8231.00000
22.57000	8212.00000
22.58000	8219.00000
22.59000	8249.00000
22.60000	8269.00000
22.61000	8252.00000
22.62000	8266.00000
22.63000	8402.00000
22.64000	8420.00000
22.65000	8432.00000
22.66000	8437.00000
22.67000	8639.00000
22.68000	8723.00000
22.69000	8920.00000
22.70000	9072.00000
22.71000	9312.00000
22.72000	9591.00000
22.73000	10020.00000
22.74000	10372.00000
22.75000	11012.00000
22.76000	11716.00000
22.77000	12666.00000
22.78000	13575.00000
22.79000	14455.00000
22.80000	14817.00000
22.81000	14874.00000
22.82000	14467.00000
22.83000	13711.00000
22.84000	13125.00000
22.85000	12583.00000
22.86000	12092.00000
22.87000	11988.00000
22.88000	11946.00000
22.89000	12174.00000
22.90000	12612.00000
22.91000	13168.00000
22.92000	13799.00000
22.93000	14543.00000
22.94000	15308.00000
22.95000	16293.00000
22.96000	17327.00000
22.97000	18214.00000
22.98000	19046.00000
22.99000	19871.00000
23.00000	20442.00000
23.01000	20562.00000
23.02000	20603.00000
23.03000	20195.00000
23.04000	19614.00000
23.05000	19388.00000
23.06000	19121.00000
23.07000	19104.00000
23.08000	19405.00000
23.09000	19719.00000
23.10000	19844.00000
23.11000	20118.00000
23.12000	20063.00000
23.13000	19548.00000
23.14000	18837.00000
23.15000	17819.00000
23.16000	16650.00000
23.17000	15737.00000
23.18000	14744.00000
23.19000	13855.00000
23.20000	13050.00000
23.21000	12433.00000
23.22000	11636.00000
23.23000	11202.00000
23.24000	10726.00000
23.25000	10403.00000
23.26000	10149.00000
23.27000	10004.00000
23.28000	9857.00000
23.29000	9811.00000
23.30000	9794.00000
23.31000	9785.00000
23.32000	9948.00000
23.33000	10040.00000
23.34000	10018.00000
23.35000	10032.00000
23.36000	9972.00000
23.37000	9848.00000
23.38000	9663.00000
23.39000	9472.00000
23.40000	9275.00000
23.41000	9234.00000
23.42000	9182.00000
23.43000	9168.00000
23.44000	9320.00000
23.45000	9431.00000
23.46000	9706.00000
23.47000	10083.00000
23.48000	10630.00000
23.49000	11395.00000
23.50000	12457.00000
23.51000	13490.00000
23.52000	14245.00000
23.53000	14533.00000
23.54000	14075.00000
23.55000	13159.00000
23.56000	12082.00000
23.57000	11137.00000
23.58000	10232.00000
23.59000	9707.00000
23.60000	9268.00000
23.61000	9007.00000
23.62000	8862.00000
23.63000	8709.00000
23.64000	8556.00000
23.65000	8529.00000
23.66000	8454.00000
23.67000	8432.00000
23.68000	8363.00000
23.69000	8380.00000
23.70000	8249.00000
23.71000	8334.00000
23.72000	8315.00000
23.73000	8354.00000
23.74000	8317.00000
23.75000	8341.00000
23.76000	8244.00000
23.77000	8284.00000
23.78000	8358.00000
23.79000	8337.00000
23.80000	8485.00000
23.81000	8485.00000
23.82000	8442.00000
23.83000	8547.00000
23.84000	8656.00000
23.85000	8708.00000
23.86000	8878.00000
23.87000	9050.00000
23.88000	9157.00000
23.89000	9452.00000
23.90000	9805.00000
23.91000	10203.00000
23.92000	10690.00000
23.93000	11068.00000
23.94000	11298.00000
23.95000	11515.00000
23.96000	11559.00000
23.97000	11577.00000
23.98000	11570.00000
23.99000	11664.00000
24.00000	11771.00000
24.01000	12155.00000
24.02000	12629.00000
24.03000	13241.00000
24.04000	13956.00000
24.05000	14576.00000
24.06000	15155.00000
24.07000	15745.00000
24.08000	15880.00000
24.09000	15849.00000
24.10000	15518.00000
24.11000	14972.00000
24.12000	14207.00000
24.13000	13511.00000
24.14000	12885.00000
24.15000	12402.00000
24.16000	12116.00000
24.17000	11868.00000
24.18000	11646.00000
24.19000	11619.00000
24.20000	11611.00000
24.21000	11650.00000
24.22000	11806.00000
24.23000	11826.00000
24.24000	11841.00000
24.25000	11940.00000
24.26000	11997.00000
24.27000	12144.00000
24.28000	12313.00000
24.29000	12396.00000
24.30000	12300.00000
24.31000	12179.00000
24.32000	11983.00000
24.33000	11700.00000
24.34000	11572.00000
24.35000	11562.00000
24.36000	11564.00000
24.37000	11856.00000
24.38000	12256.00000
24.39000	12759.00000
24.40000	13536.00000
24.41000	14523.00000
24.42000	15694.00000
24.43000	17041.00000
24.44000	18498.00000
24.45000	19826.00000
24.46000	21059.00000
24.47000	21647.00000
24.48000	21689.00000
24.49000	21731.00000
24.50000	21643.00000
24.51000	21784.00000
24.52000	22255.00000
24.53000	23029.00000
24.54000	23378.00000
24.55000	23490.00000
24.56000	22608.00000
24.57000	20998.00000
24.58000	19042.00000
24.59000	17133.00000
24.60000	15378.00000
24.61000	14262.00000
24.62000	13394.00000
24.63000	12846.00000
24.64000	12538.00000
24.65000	12392.00000
24.66000	12209.00000
24.67000	12170.00000
24.68000	12158.00000
24.69000	12288.00000
24.70000	12462.00000
24.71000	12629.00000
24.72000	12701.00000
24.73000	12822.00000
24.74000	12586.00000
24.75000	12232.00000
24.76000	11854.00000
24.77000	11274.00000
24.78000	10793.00000
24.79000	10387.00000
24.80000	10054.00000
24.81000	9827.00000
24.82000	9671.00000
24.83000	9554.00000
24.84000	9429.00000
24.85000	9456.00000
24.86000	9522.00000
24.87000	9653.00000
24.88000	9911.00000
24.89000	10109.00000
24.90000	10451.00000
24.91000	10893.00000
24.92000	11402.00000
24.93000	11949.00000
24.94000	12451.00000
24.95000	12695.00000
24.96000	12608.00000
24.97000	12297.00000
24.98000	11874.00000
24.99000	11440.00000
25.00000	11191.00000
25.01000	10991.00000
25.02000	10859.00000
25.03000	10940.00000
25.04000	11042.00000
25.05000	11349.00000
25.06000	11821.00000
25.07000	12370.00000
25.08000	12898.00000
25.09000	13796.00000
25.10000	14628.00000
25.11000	15539.00000
25.12000	16310.00000
25.13000	16977.00000
25.14000	17041.00000
25.15000	17212.00000
25.16000	16963.00000
25.17000	16783.00000
25.18000	16900.00000
25.19000	16981.00000
25.20000	17209.00000
25.21000	17665.00000
25.22000	18234.00000
25.23000	18490.00000
25.24000	18649.00000
25.25000	18284.00000
25.26000	17382.00000
25.27000	16392.00000
25.28000	15352.00000
25.29000	14257.00000
25.30000	13368.00000
25.31000	12568.00000
25.32000	11875.00000
25.33000	11315.00000
25.34000	10767.00000
25.35000	10283.00000
25.36000	9975.00000
25.37000	9590.00000
25.38000	9264.00000
25.39000	9081.00000
25.40000	8910.00000
25.41000	8703.00000
25.42000	8631.00000
25.43000	8525.00000
25.44000	8377.00000
25.45000	8382.00000
25.46000	8304.00000
25.47000	8267.00000
25.48000	8238.00000
25.49000	8149.00000
25.50000	8097.00000
25.51000	8089.00000
25.52000	8087.00000
25.53000	8042.00000
25.54000	8091.00000
25.55000	8057.00000
25.56000	8035.00000
25.57000	8029.00000
25.58000	7987.00000
25.59000	8023.00000
25.60000	8079.00000
25.61000	8060.00000
25.62000	8103.00000
25.63000	8143.00000
25.64000	8156.00000
25.65000	8175.00000
25.66000	8277.00000
25.67000	8388.00000
25.68000	8412.00000
25.69000	8575.00000
25.70000	8679.00000
25.71000	8883.00000
25.72000	9108.00000
25.73000	9287.00000
25.74000	9433.00000
25.75000	9645.00000
25.76000	9704.00000
25.77000	9657.00000
25.78000	9616.00000
25.79000	9398.00000
25.80000	9200.00000
25.81000	9091.00000
25.82000	8993.00000
25.83000	8944.00000
25.84000	8928.00000
25.85000	8969.00000
25.86000	8975.00000
25.87000	9102.00000
25.88000	9285.00000
25.89000	9556.00000
25.90000	9986.00000
25.91000	10527.00000
25.92000	11111.00000
25.93000	11830.00000
25.94000	12574.00000
25.95000	13250.00000
25.96000	13768.00000
25.97000	13857.00000
25.98000	13579.00000
25.99000	13243.00000
26.00000	12614.00000
26.01000	12027.00000
26.02000	11510.00000
26.03000	11075.00000
26.04000	10615.00000
26.05000	10455.00000
26.06000	10448.00000
26.07000	10515.00000
26.08000	10801.00000
26.09000	11079.00000
26.10000	11303.00000
26.11000	11535.00000
26.12000	11558.00000
26.13000	11479.00000
26.14000	11159.00000
26.15000	10764.00000
26.16000	10282.00000
26.17000	9967.00000
26.18000	9711.00000
26.19000	9484.00000
26.20000	9414.00000
26.21000	9289.00000
26.22000	9145.00000
26.23000	9241.00000
26.24000	9220.00000
26.25000	9349.00000
26.26000	9495.00000
26.27000	9603.00000
26.28000	9640.00000
26.29000	9754.00000
26.30000	9805.00000
26.31000	9736.00000
26.32000	9624.00000
26.33000	9443.00000
26.34000	9212.00000
26.35000	9044.00000
26.36000	8878.00000
26.37000	8703.00000
26.38000	8632.00000
26.39000	8479.00000
26.40000	8330.00000
26.41000	8238.00000
26.42000	8180.00000
26.43000	8154.00000
26.44000	8079.00000
26.45000	8083.00000
26.46000	7959.00000
26.47000	7993.00000
26.48000	8067.00000
26.49000	8007.00000
26.50000	8061.00000
26.51000	8087.00000
26.52000	8016.00000
26.53000	8102.00000
26.54000	8186.00000
26.55000	8223.00000
26.56000	8315.00000
26.57000	8398.00000
26.58000	8426.00000
26.59000	8539.00000
26.60000	8608.00000
26.61000	8647.00000
26.62000	8649.00000
26.63000	8636.00000
26.64000	8459.00000
26.65000	8339.00000
26.66000	8278.00000
26.67000	8167.00000
26.68000	8125.00000
26.69000	8014.00000
26.70000	7934.00000
26.71000	7908.00000
26.72000	7887.00000
26.73000	7881.00000
26.74000	7902.00000
26.75000	7908.00000
26.76000	7891.00000
26.77000	7928.00000
26.78000	7962.00000
26.79000	7977.00000
26.80000	7989.00000
26.81000	8004.00000
26.82000	7917.00000
26.83000	7991.00000
26.84000	7966.00000
26.85000	8004.00000
26.86000	8054.00000
26.87000	8146.00000
26.88000	8134.00000
26.89000	8281.00000
26.90000	8290.00000
26.91000	8442.00000
26.92000	8585.00000
26.93000	8711.00000
26.94000	8760.00000
26.95000	8900.00000
26.96000	9055.00000
26.97000	9318.00000
26.98000	9642.00000
26.99000	10089.00000
27.00000	10455.00000
27.01000	11138.00000
27.02000	11845.00000
27.03000	12624.00000
27.04000	13445.00000
27.05000	13928.00000
27.06000	13973.00000
27.07000	13812.00000
27.08000	13424.00000
27.09000	12845.00000
27.10000	12411.00000
27.11000	11901.00000
27.12000	11325.00000
27.13000	10989.00000
27.14000	10666.00000
27.15000	10437.00000
27.16000	10308.00000
27.17000	10168.00000
27.18000	10064.00000
27.19000	10001.00000
27.20000	10033.00000
27.21000	9971.00000
27.22000	10109.00000
27.23000	10196.00000
27.24000	10149.00000
27.25000	10254.00000
27.26000	10252.00000
27.27000	10360.00000
27.28000	10570.00000
27.29000	10757.00000
27.30000	10924.00000
27.31000	11316.00000
27.32000	11773.00000
27.33000	12381.00000
27.34000	13032.00000
27.35000	13780.00000
27.36000	14577.00000
27.37000	15589.00000
27.38000	16567.00000
27.39000	17534.00000
27.40000	18259.00000
27.41000	18670.00000
27.42000	18521.00000
27.43000	18259.00000
27.44000	17741.00000
27.45000	17164.00000
27.46000	16487.00000
27.47000	15776.00000
27.48000	14906.00000
27.49000	14221.00000
27.50000	13560.00000
27.51000	12959.00000
27.52000	12435.00000
27.53000	11946.00000
27.54000	11490.00000
27.55000	11201.00000
27.56000	10927.00000
27.57000	10677.00000
27.58000	10618.00000
27.59000	10474.00000
27.60000	10387.00000
27.61000	10432.00000
27.62000	10515.00000
27.63000	10656.00000
27.64000	10937.00000
27.65000	11240.00000
27.66000	11481.00000
27.67000	11869.00000
27.68000	12061.00000
27.69000	12137.00000
27.70000	12231.00000
27.71000	12170.00000
27.72000	11989.00000
27.73000	11952.00000
27.74000	11913.00000
27.75000	11914.00000
27.76000	11863.00000
27.77000	11758.00000
27.78000	11394.00000
27.79000	11128.00000
27.80000	10876.00000
27.81000	10642.00000
27.82000	10515.00000
27.83000	10435.00000
27.84000	10359.00000
27.85000	10456.00000
27.86000	10510.00000
27.87000	10668.00000
27.88000	10832.00000
27.89000	10883.00000
27.90000	10805.00000
27.91000	10940.00000
27.92000	10808.00000
27.93000	10677.00000
27.94000	10439.00000
27.95000	10218.00000
27.96000	9961.00000
27.97000	9778.00000
27.98000	9511.00000
27.99000	9353.00000
28.00000	9276.00000
28.01000	9164.00000
28.02000	9059.00000
28.03000	9051.00000
28.04000	9084.00000
28.05000	9094.00000
28.06000	9195.00000
28.07000	9312.00000
28.08000	9324.00000
28.09000	9436.00000
28.10000	9509.00000
28.11000	9561.00000
28.12000	9691.00000
28.13000	9711.00000
28.14000	9623.00000
28.15000	9583.00000
28.16000	9485.00000
28.17000	9317.00000
28.18000	9135.00000
28.19000	8990.00000
28.20000	8801.00000
28.21000	8676.00000
28.22000	8566.00000
28.23000	8508.00000
28.24000	8501.00000
28.25000	8535.00000
28.26000	8397.00000
28.27000	8402.00000
28.28000	8515.00000
28.29000	8516.00000
28.30000	8687.00000
28.31000	8837.00000
28.32000	8942.00000
28.33000	9233.00000
28.34000	9535.00000
28.35000	9864.00000
28.36000	10195.00000
28.37000	10451.00000
28.38000	10521.00000
28.39000	10613.00000
28.40000	10487.00000
28.41000	10251.00000
28.42000	10043.00000
28.43000	9740.00000
28.44000	9511.00000
28.45000	9293.00000
28.46000	9133.00000
28.47000	9020.00000
28.48000	8899.00000
28.49000	8805.00000
28.50000	8670.00000
28.51000	8605.00000
28.52000	8551.00000
28.53000	8470.00000
28.54000	8521.00000
28.55000	8497.00000
28.56000	8478.00000
28.57000	8633.00000
28.58000	8779.00000
28.59000	8925.00000
28.60000	9212.00000
28.61000	9511.00000
28.62000	9869.00000
28.63000	10198.00000
28.64000	10499.00000
28.65000	10759.00000
28.66000	10879.00000
28.67000	10783.00000
28.68000	10485.00000
28.69000	10184.00000
28.70000	9892.00000
28.71000	9614.00000
28.72000	9437.00000
28.73000	9308.00000
28.74000	9188.00000
28.75000	9214.00000
28.76000	9240.00000
28.77000	9207.00000
28.78000	9170.00000
28.79000	9186.00000
28.80000	9108.00000
28.81000	9150.00000
28.82000	9120.00000
28.83000	9167.00000
28.84000	9252.00000
28.85000	9344.00000
28.86000	9390.00000
28.87000	9608.00000
28.88000	9800.00000
28.89000	10113.00000
28.90000	10447.00000
28.91000	10785.00000
28.92000	11163.00000
28.93000	11608.00000
28.94000	11923.00000
28.95000	12167.00000
28.96000	12343.00000
28.97000	12234.00000
28.98000	11953.00000
28.99000	11740.00000
29.00000	11503.00000
29.01000	11201.00000
29.02000	11013.00000
29.03000	10857.00000
29.04000	10765.00000
29.05000	10711.00000
29.06000	10751.00000
29.07000	10740.00000
29.08000	10722.00000
29.09000	10612.00000
29.10000	10474.00000
29.11000	10367.00000
29.12000	10125.00000
29.13000	9946.00000
29.14000	9721.00000
29.15000	9451.00000
29.16000	9138.00000
29.17000	9044.00000
29.18000	8887.00000
29.19000	8713.00000
29.20000	8589.00000
29.21000	8511.00000
29.22000	8377.00000
29.23000	8321.00000
29.24000	8243.00000
29.25000	8252.00000
29.26000	8194.00000
29.27000	8241.00000
29.28000	8131.00000
29.29000	8190.00000
29.30000	8188.00000
29.31000	8226.00000
29.32000	8317.00000
29.33000	8385.00000
29.34000	8363.00000
29.35000	8425.00000
29.36000	8387.00000
29.37000	8321.00000
29.38000	8291.00000
29.39000	8279.00000
29.40000	8163.00000
29.41000	8174.00000
29.42000	8207.00000
29.43000	8183.00000
29.44000	8240.00000
29.45000	8244.00000
29.46000	8242.00000
29.47000	8359.00000
29.48000	8442.00000
29.49000	8543.00000
29.50000	8715.00000
29.51000	8854.00000
29.52000	8966.00000
29.53000	9173.00000
29.54000	9381.00000
29.55000	9593.00000
29.56000	9783.00000
29.57000	9949.00000
29.58000	10030.00000
29.59000	10196.00000
29.60000	10318.00000
29.61000	10555.00000
29.62000	10803.00000
29.63000	11176.00000
29.64000	11444.00000
29.65000	11931.00000
29.66000	12344.00000
29.67000	12839.00000
29.68000	13256.00000
29.69000	13642.00000
29.70000	13752.00000
29.71000	13837.00000
29.72000	13666.00000
29.73000	13451.00000
29.74000	13281.00000
29.75000	13056.00000
29.76000	12764.00000
29.77000	12656.00000
29.78000	12586.00000
29.79000	12471.00000
29.80000	12592.00000
29.81000	12625.00000
29.82000	12522.00000
29.83000	12561.00000
29.84000	12395.00000
29.85000	12027.00000
29.86000	11710.00000
29.87000	11341.00000
29.88000	10778.00000
29.89000	10393.00000
29.90000	10034.00000
29.91000	9727.00000
29.92000	9482.00000
29.93000	9215.00000
29.94000	8996.00000
29.95000	8856.00000
29.96000	8724.00000
29.97000	8628.00000
29.98000	8618.00000
29.99000	8536.00000
30.00000	8403.00000
30.01000	8419.00000
30.02000	8403.00000
30.03000	8397.00000
30.04000	8324.00000
30.05000	8319.00000
30.06000	8272.00000
30.07000	8317.00000
30.08000	8303.00000
30.09000	8289.00000
30.10000	8324.00000
30.11000	8335.00000
30.12000	8277.00000
30.13000	8320.00000
30.14000	8339.00000
30.15000	8374.00000
30.16000	8491.00000
30.17000	8493.00000
30.18000	8494.00000
30.19000	8560.00000
30.20000	8571.00000
30.21000	8594.00000
30.22000	8683.00000
30.23000	8755.00000
30.24000	8821.00000
30.25000	8942.00000
30.26000	9069.00000
30.27000	9225.00000
30.28000	9387.00000
30.29000	9465.00000
30.30000	9426.00000
30.31000	9441.00000
30.32000	9478.00000
30.33000	9556.00000
30.34000	9672.00000
30.35000	9926.00000
30.36000	10051.00000
30.37000	10446.00000
30.38000	10829.00000
30.39000	11207.00000
30.40000	11696.00000
30.41000	11874.00000
30.42000	11919.00000
30.43000	11853.00000
30.44000	11562.00000
30.45000	11083.00000
30.46000	10726.00000
30.47000	10323.00000
30.48000	9923.00000
30.49000	9665.00000
30.50000	9436.00000
30.51000	9241.00000
30.52000	9161.00000
30.53000	9041.00000
30.54000	8874.00000
30.55000	8919.00000
30.56000	8862.00000
30.57000	8920.00000
30.58000	8939.00000
30.59000	8941.00000
30.60000	8887.00000
30.61000	8917.00000
30.62000	8871.00000
30.63000	8954.00000
30.64000	9088.00000
30.65000	9192.00000
30.66000	9245.00000
30.67000	9394.00000
30.68000	9543.00000
30.69000	9590.00000
30.70000	9663.00000
30.71000	9567.00000
30.72000	9471.00000
30.73000	9424.00000
30.74000	9386.00000
30.75000	9384.00000
30.76000	9513.00000
30.77000	9653.00000
30.78000	9765.00000
30.79000	9941.00000
30.80000	10056.00000
30.81000	10260.00000
30.82000	10383.00000
30.83000	10550.00000
30.84000	10641.00000
30.85000	10752.00000
30.86000	10892.00000
30.87000	11033.00000
30.88000	11162.00000
30.89000	11206.00000
30.90000	11229.00000
30.91000	11313.00000
30.92000	11485.00000
30.93000	11682.00000
30.94000	12016.00000
30.95000	12350.00000
30.96000	12521.00000
30.97000	12805.00000
30.98000	12962.00000
30.99000	13005.00000
31.00000	12984.00000
31.01000	12876.00000
31.02000	12540.00000
31.03000	12410.00000
31.04000	12296.00000
31.05000	12131.00000
31.06000	12060.00000
31.07000	12046.00000
31.08000	11973.00000
31.09000	12066.00000
31.10000	11996.00000
31.11000	11727.00000
31.12000	11441.00000
31.13000	10971.00000
31.14000	10414.00000
31.15000	10027.00000
31.16000	9717.00000
31.17000	9455.00000
31.18000	9218.00000
31.19000	9012.00000
31.20000	8801.00000
31.21000	8772.00000
31.22000	8668.00000
31.23000	8613.00000
31.24000	8651.00000
31.25000	8670.00000
31.26000	8607.00000
31.27000	8652.00000
31.28000	8705.00000
31.29000	8736.00000
31.30000	8870.00000
31.31000	8969.00000
31.32000	9039.00000
31.33000	9150.00000
31.34000	9296.00000
31.35000	9429.00000
31.36000	9634.00000
31.37000	9697.00000
31.38000	9696.00000
31.39000	9706.00000
31.40000	9618.00000
31.41000	9608.00000
31.42000	9581.00000
31.43000	9549.00000
31.44000	9442.00000
31.45000	9357.00000
31.46000	9314.00000
31.47000	9234.00000
31.48000	9190.00000
31.49000	9181.00000
31.50000	9004.00000
31.51000	9115.00000
31.52000	9167.00000
31.53000	9199.00000
31.54000	9326.00000
31.55000	9460.00000
31.56000	9511.00000
31.57000	9765.00000
31.58000	9936.00000
31.59000	10208.00000
31.60000	10514.00000
31.61000	10713.00000
31.62000	10844.00000
31.63000	10919.00000
31.64000	10953.00000
31.65000	10868.00000
31.66000	10871.00000
31.67000	10774.00000
31.68000	10730.00000
31.69000	10665.00000
31.70000	10627.00000
31.71000	10594.00000
31.72000	10500.00000
31.73000	10415.00000
31.74000	10355.00000
31.75000	10373.00000
31.76000	10476.00000
31.77000	10578.00000
31.78000	10779.00000
31.79000	10942.00000
31.80000	10912.00000
31.81000	10923.00000
31.82000	10726.00000
31.83000	10566.00000
31.84000	10350.00000
31.85000	10077.00000
31.86000	9763.00000
31.87000	9606.00000
31.88000	9489.00000
31.89000	9448.00000
31.90000	9452.00000
31.91000	9501.00000
31.92000	9521.00000
31.93000	9609.00000
31.94000	9588.00000
31.95000	9582.00000
31.96000	9613.00000
31.97000	9529.00000
31.98000	9313.00000
31.99000	9286.00000
32.00000	9072.00000
32.01000	8963.00000
32.02000	8829.00000
32.03000	8726.00000
32.04000	8543.00000
32.05000	8436.00000
32.06000	8356.00000
32.07000	8241.00000
32.08000	8225.00000
32.09000	8147.00000
32.10000	8082.00000
32.11000	8076.00000
32.12000	8064.00000
32.13000	8078.00000
32.14000	8134.00000
32.15000	8150.00000
32.16000	8166.00000
32.17000	8197.00000
32.18000	8208.00000
32.19000	8236.00000
32.20000	8335.00000
32.21000	8316.00000
32.22000	8342.00000
32.23000	8372.00000
32.24000	8370.00000
32.25000	8422.00000
32.26000	8455.00000
32.27000	8419.00000
32.28000	8359.00000
32.29000	8360.00000
32.30000	8353.00000
32.31000	8271.00000
32.32000	8285.00000
32.33000	8276.00000
32.34000	8195.00000
32.35000	8260.00000
32.36000	8229.00000
32.37000	8224.00000
32.38000	8253.00000
32.39000	8312.00000
32.40000	8280.00000
32.41000	8432.00000
32.42000	8484.00000
32.43000	8581.00000
32.44000	8715.00000
32.45000	8879.00000
32.46000	8968.00000
32.47000	9110.00000
32.48000	9296.00000
32.49000	9516.00000
32.50000	9741.00000
32.51000	9839.00000
32.52000	9780.00000
32.53000	9771.00000
32.54000	9640.00000
32.55000	9517.00000
32.56000	9344.00000
32.57000	9167.00000
32.58000	8954.00000
32.59000	8834.00000
32.60000	8678.00000
32.61000	8537.00000
32.62000	8526.00000
32.63000	8398.00000
32.64000	8313.00000
32.65000	8237.00000
32.66000	8245.00000
32.67000	8248.00000
32.68000	8359.00000
32.69000	8314.00000
32.70000	8232.00000
32.71000	8269.00000
32.72000	8289.00000
32.73000	8287.00000
32.74000	8393.00000
32.75000	8405.00000
32.76000	8381.00000
32.77000	8420.00000
32.78000	8486.00000
32.79000	8546.00000
32.80000	8552.00000
32.81000	8621.00000
32.82000	8539.00000
32.83000	8574.00000
32.84000	8619.00000
32.85000	8589.00000
32.86000	8636.00000
32.87000	8612.00000
32.88000	8568.00000
32.89000	8514.00000
32.90000	8492.00000
32.91000	8426.00000
32.92000	8393.00000
32.93000	8346.00000
32.94000	8249.00000
32.95000	8215.00000
32.96000	8162.00000
32.97000	8108.00000
32.98000	8175.00000
32.99000	8166.00000
33.00000	8126.00000
33.01000	8145.00000
33.02000	8159.00000
33.03000	8181.00000
33.04000	8192.00000
33.05000	8195.00000
33.06000	8172.00000
33.07000	8182.00000
33.08000	8179.00000
33.09000	8145.00000
33.10000	8192.00000
33.11000	8200.00000
33.12000	8144.00000
33.13000	8152.00000
33.14000	8163.00000
33.15000	8118.00000
33.16000	8139.00000
33.17000	8146.00000
33.18000	8098.00000
33.19000	8104.00000
33.20000	8120.00000
33.21000	8113.00000
33.22000	8157.00000
33.23000	8203.00000
33.24000	8219.00000
33.25000	8332.00000
33.26000	8371.00000
33.27000	8411.00000
33.28000	8525.00000
33.29000	8654.00000
33.30000	8660.00000
33.31000	8796.00000
33.32000	8944.00000
33.33000	9066.00000
33.34000	9207.00000
33.35000	9348.00000
33.36000	9414.00000
33.37000	9533.00000
33.38000	9618.00000
33.39000	9767.00000
33.40000	9963.00000
33.41000	10099.00000
33.42000	10118.00000
33.43000	10279.00000
33.44000	10356.00000
33.45000	10334.00000
33.46000	10408.00000
33.47000	10395.00000
33.48000	10331.00000
33.49000	10428.00000
33.50000	10599.00000
33.51000	10755.00000
33.52000	10998.00000
33.53000	11153.00000
33.54000	11208.00000
33.55000	11253.00000
33.56000	11156.00000
33.57000	10899.00000
33.58000	10855.00000
33.59000	10711.00000
33.60000	10540.00000
33.61000	10466.00000
33.62000	10497.00000
33.63000	10575.00000
33.64000	10609.00000
33.65000	10557.00000
33.66000	10464.00000
33.67000	10423.00000
33.68000	10256.00000
33.69000	10184.00000
33.70000	10117.00000
33.71000	10020.00000
33.72000	9963.00000
33.73000	10019.00000
33.74000	10077.00000
33.75000	10297.00000
33.76000	10534.00000
33.77000	10817.00000
33.78000	11064.00000
33.79000	11350.00000
33.80000	11562.00000
33.81000	11671.00000
33.82000	11740.00000
33.83000	11592.00000
33.84000	11205.00000
33.85000	11025.00000
33.86000	10779.00000
33.87000	10663.00000
33.88000	10623.00000
33.89000	10614.00000
33.90000	10550.00000
33.91000	10691.00000
33.92000	10808.00000
33.93000	10973.00000
33.94000	11238.00000
33.95000	11349.00000
33.96000	11441.00000
33.97000	11471.00000
33.98000	11415.00000
33.99000	11188.00000
34.00000	11058.00000
34.01000	10725.00000
34.02000	10400.00000
34.03000	10227.00000
34.04000	9975.00000
34.05000	9858.00000
34.06000	9813.00000
34.07000	9644.00000
34.08000	9486.00000
34.09000	9348.00000
34.10000	9286.00000
34.11000	9212.00000
34.12000	9091.00000
34.13000	8992.00000
34.14000	8830.00000
34.15000	8806.00000
34.16000	8740.00000
34.17000	8678.00000
34.18000	8671.00000
34.19000	8733.00000
34.20000	8603.00000
34.21000	8751.00000
34.22000	8768.00000
34.23000	8881.00000
34.24000	9002.00000
34.25000	9169.00000
34.26000	9262.00000
34.27000	9476.00000
34.28000	9634.00000
34.29000	9734.00000
34.30000	9816.00000
34.31000	9835.00000
34.32000	9701.00000
34.33000	9692.00000
34.34000	9578.00000
34.35000	9479.00000
34.36000	9370.00000
34.37000	9280.00000
34.38000	9055.00000
34.39000	8985.00000
34.40000	8896.00000
34.41000	8811.00000
34.42000	8784.00000
34.43000	8768.00000
34.44000	8766.00000
34.45000	8760.00000
34.46000	8742.00000
34.47000	8774.00000
34.48000	8913.00000
34.49000	8934.00000
34.50000	8871.00000
34.51000	8950.00000
34.52000	9068.00000
34.53000	9038.00000
34.54000	9173.00000
34.55000	9285.00000
34.56000	9366.00000
34.57000	9539.00000
34.58000	9620.00000
34.59000	9776.00000
34.60000	9901.00000
34.61000	9972.00000
34.62000	9897.00000
34.63000	9853.00000
34.64000	9757.00000
34.65000	9665.00000
34.66000	9516.00000
34.67000	9377.00000
34.68000	9243.00000
34.69000	9127.00000
34.70000	9049.00000
34.71000	9000.00000
34.72000	8896.00000
34.73000	8893.00000
34.74000	8809.00000
34.75000	8895.00000
34.76000	8870.00000
34.77000	8902.00000
34.78000	8937.00000
34.79000	8968.00000
34.80000	8929.00000
34.81000	8962.00000
34.82000	8955.00000
34.83000	8916.00000
34.84000	8895.00000
34.85000	8868.00000
34.86000	8722.00000
34.87000	8655.00000
34.88000	8624.00000
34.89000	8528.00000
34.90000	8563.00000
34.91000	8563.00000
34.92000	8580.00000
34.93000	8597.00000
34.94000	8680.00000
34.95000	8750.00000
34.96000	8893.00000
34.97000	8958.00000
34.98000	9018.00000
34.99000	9174.00000
35.00000	9270.00000
35.01000	9359.00000
35.02000	9390.00000
35.03000	9462.00000
35.04000	9404.00000
35.05000	9508.00000
35.06000	9527.00000
35.07000	9629.00000
35.08000	9726.00000
35.09000	9754.00000
35.10000	9751.00000
35.11000	9792.00000
35.12000	9732.00000
35.13000	9661.00000
35.14000	9608.00000
35.15000	9603.00000
35.16000	9486.00000
35.17000	9570.00000
35.18000	9562.00000
35.19000	9637.00000
35.20000	9709.00000
35.21000	9731.00000
35.22000	9739.00000
35.23000	9738.00000
35.24000	9634.00000
35.25000	9570.00000
35.26000	9441.00000
35.27000	9312.00000
35.28000	9012.00000
35.29000	8885.00000
35.30000	8761.00000
35.31000	8665.00000
35.32000	8632.00000
35.33000	8564.00000
35.34000	8448.00000
35.35000	8369.00000
35.36000	8386.00000
35.37000	8316.00000
35.38000	8359.00000
35.39000	8411.00000
35.40000	8355.00000
35.41000	8413.00000
35.42000	8449.00000
35.43000	8449.00000
35.44000	8546.00000
35.45000	8606.00000
35.46000	8550.00000
35.47000	8545.00000
35.48000	8578.00000
35.49000	8635.00000
35.50000	8641.00000
35.51000	8594.00000
35.52000	8561.00000
35.53000	8586.00000
35.54000	8585.00000
35.55000	8574.00000
35.56000	8600.00000
35.57000	8668.00000
35.58000	8658.00000
35.59000	8744.00000
35.60000	8757.00000
35.61000	8810.00000
35.62000	8912.00000
35.63000	9047.00000
35.64000	9127.00000
35.65000	9225.00000
35.66000	9355.00000
35.67000	9518.00000
35.68000	9733.00000
35.69000	9916.00000
35.70000	10029.00000
35.71000	10206.00000
35.72000	10347.00000
35.73000	10381.00000
35.74000	10558.00000
35.75000	10538.00000
35.76000	10564.00000
35.77000	10495.00000
35.78000	10491.00000
35.79000	10403.00000
35.80000	10404.00000
35.81000	10262.00000
35.82000	10063.00000
35.83000	9999.00000
35.84000	9852.00000
35.85000	9648.00000
35.86000	9538.00000
35.87000	9444.00000
35.88000	9314.00000
35.89000	9189.00000
35.90000	9125.00000
35.91000	9040.00000
35.92000	9018.00000
35.93000	8994.00000
35.94000	8865.00000
35.95000	8885.00000
35.96000	8895.00000
35.97000	8890.00000
35.98000	8921.00000
35.99000	8934.00000
36.00000	8814.00000
36.01000	8873.00000
36.02000	8826.00000
36.03000	8874.00000
36.04000	8900.00000
36.05000	8858.00000
36.06000	8812.00000
36.07000	8906.00000
36.08000	8928.00000
36.09000	8999.00000
36.10000	9076.00000
36.11000	9216.00000
36.12000	9280.00000
36.13000	9506.00000
36.14000	9677.00000
36.15000	9895.00000
36.16000	10124.00000
36.17000	10277.00000
36.18000	10280.00000
36.19000	10334.00000
36.20000	10249.00000
36.21000	10088.00000
36.22000	9963.00000
36.23000	9753.00000
36.24000	9536.00000
36.25000	9411.00000
36.26000	9262.00000
36.27000	9151.00000
36.28000	9051.00000
36.29000	8984.00000
36.30000	8902.00000
36.31000	8898.00000
36.32000	8955.00000
36.33000	8954.00000
36.34000	9088.00000
36.35000	9168.00000
36.36000	9261.00000
36.37000	9451.00000
36.38000	9658.00000
36.39000	9872.00000
36.40000	10181.00000
36.41000	10482.00000
36.42000	10670.00000
36.43000	10997.00000
36.44000	11273.00000
36.45000	11441.00000
36.46000	11607.00000
36.47000	11547.00000
36.48000	11394.00000
36.49000	11366.00000
36.50000	11183.00000
36.51000	11053.00000
36.52000	10913.00000
36.53000	10771.00000
36.54000	10570.00000
36.55000	10445.00000
36.56000	10269.00000
36.57000	10083.00000
36.58000	10006.00000
36.59000	9838.00000
36.60000	9640.00000
36.61000	9500.00000
36.62000	9392.00000
36.63000	9241.00000
36.64000	9194.00000
36.65000	9070.00000
36.66000	8973.00000
36.67000	8889.00000
36.68000	8861.00000
36.69000	8856.00000
36.70000	8866.00000
36.71000	8888.00000
36.72000	8874.00000
36.73000	8973.00000
36.74000	9000.00000
36.75000	9094.00000
36.76000	9254.00000
36.77000	9320.00000
36.78000	9429.00000
36.79000	9529.00000
36.80000	9598.00000
36.81000	9628.00000
36.82000	9728.00000
36.83000	9763.00000
36.84000	9674.00000
36.85000	9711.00000
36.86000	9778.00000
36.87000	9794.00000
36.88000	9940.00000
36.89000	10047.00000
36.90000	10154.00000
36.91000	10360.00000
36.92000	10531.00000
36.93000	10709.00000
36.94000	10881.00000
36.95000	11041.00000
36.96000	10974.00000
36.97000	11029.00000
36.98000	10898.00000
36.99000	10784.00000
37.00000	10655.00000
37.01000	10519.00000
37.02000	10331.00000
37.03000	10218.00000
37.04000	10101.00000
37.05000	10075.00000
37.06000	10062.00000
37.07000	9882.00000
37.08000	9724.00000
37.09000	9687.00000
37.10000	9588.00000
37.11000	9503.00000
37.12000	9477.00000
37.13000	9373.00000
37.14000	9307.00000
37.15000	9249.00000
37.16000	9270.00000
37.17000	9205.00000
37.18000	9266.00000
37.19000	9173.00000
37.20000	9092.00000
37.21000	9095.00000
37.22000	9066.00000
37.23000	9004.00000
37.24000	8924.00000
37.25000	8823.00000
37.26000	8745.00000
37.27000	8640.00000
37.28000	8586.00000
37.29000	8571.00000
37.30000	8543.00000
37.31000	8458.00000
37.32000	8338.00000
37.33000	8351.00000
37.34000	8322.00000
37.35000	8311.00000
37.36000	8244.00000
37.37000	8261.00000
37.38000	8161.00000
37.39000	8159.00000
37.40000	8119.00000
37.41000	8057.00000
37.42000	8081.00000
37.43000	8108.00000
37.44000	8052.00000
37.45000	8107.00000
37.46000	8088.00000
37.47000	8057.00000
37.48000	8084.00000
37.49000	8140.00000
37.50000	8193.00000
37.51000	8248.00000
37.52000	8288.00000
37.53000	8329.00000
37.54000	8479.00000
37.55000	8518.00000
37.56000	8513.00000
37.57000	8525.00000
37.58000	8577.00000
37.59000	8598.00000
37.60000	8651.00000
37.61000	8644.00000
37.62000	8561.00000
37.63000	8533.00000
37.64000	8427.00000
37.65000	8376.00000
37.66000	8320.00000
37.67000	8317.00000
37.68000	8211.00000
37.69000	8114.00000
37.70000	8067.00000
37.71000	8024.00000
37.72000	8062.00000
37.73000	8033.00000
37.74000	7984.00000
37.75000	8024.00000
37.76000	7962.00000
37.77000	8007.00000
37.78000	8074.00000
37.79000	8137.00000
37.80000	8052.00000
37.81000	8086.00000
37.82000	8164.00000
37.83000	8262.00000
37.84000	8357.00000
37.85000	8414.00000
37.86000	8466.00000
37.87000	8613.00000
37.88000	8701.00000
37.89000	8851.00000
37.90000	8952.00000
37.91000	9014.00000
37.92000	9043.00000
37.93000	9178.00000
37.94000	9186.00000
37.95000	9273.00000
37.96000	9333.00000
37.97000	9277.00000
37.98000	9176.00000
37.99000	9133.00000
38.00000	9022.00000
38.01000	8981.00000
38.02000	8946.00000
38.03000	8815.00000
38.04000	8676.00000
38.05000	8580.00000
38.06000	8486.00000
38.07000	8366.00000
38.08000	8306.00000
38.09000	8247.00000
38.10000	8105.00000
38.11000	8071.00000
38.12000	8000.00000
38.13000	7951.00000
38.14000	7922.00000
38.15000	7856.00000
38.16000	7820.00000
38.17000	7805.00000
38.18000	7810.00000
38.19000	7802.00000
38.20000	7780.00000
38.21000	7815.00000
38.22000	7730.00000
38.23000	7751.00000
38.24000	7709.00000
38.25000	7712.00000
38.26000	7748.00000
38.27000	7759.00000
38.28000	7690.00000
38.29000	7712.00000
38.30000	7683.00000
38.31000	7681.00000
38.32000	7663.00000
38.33000	7690.00000
38.34000	7627.00000
38.35000	7642.00000
38.36000	7678.00000
38.37000	7651.00000
38.38000	7689.00000
38.39000	7687.00000
38.40000	7642.00000
38.41000	7644.00000
38.42000	7662.00000
38.43000	7639.00000
38.44000	7733.00000
38.45000	7687.00000
38.46000	7681.00000
38.47000	7761.00000
38.48000	7790.00000
38.49000	7747.00000
38.50000	7867.00000
38.51000	7850.00000
38.52000	7880.00000
38.53000	7859.00000
38.54000	7933.00000
38.55000	7960.00000
38.56000	8054.00000
38.57000	8033.00000
38.58000	8087.00000
38.59000	8125.00000
38.60000	8176.00000
38.61000	8154.00000
38.62000	8220.00000
38.63000	8217.00000
38.64000	8124.00000
38.65000	8105.00000
38.66000	8122.00000
38.67000	8112.00000
38.68000	8169.00000
38.69000	8132.00000
38.70000	8084.00000
38.71000	8119.00000
38.72000	8123.00000
38.73000	8078.00000
38.74000	8099.00000
38.75000	8066.00000
38.76000	7933.00000
38.77000	7974.00000
38.78000	7882.00000
38.79000	7894.00000
38.80000	7868.00000
38.81000	7870.00000
38.82000	7823.00000
38.83000	7863.00000
38.84000	7824.00000
38.85000	7822.00000
38.86000	7868.00000
38.87000	7859.00000
38.88000	7776.00000
38.89000	7782.00000
38.90000	7833.00000
38.91000	7797.00000
38.92000	7842.00000
38.93000	7802.00000
38.94000	7803.00000
38.95000	7845.00000
38.96000	7844.00000
38.97000	7830.00000
38.98000	7865.00000
38.99000	7915.00000
39.00000	7834.00000
39.01000	7764.00000
39.02000	7734.00000
39.03000	7684.00000
39.04000	7712.00000
39.05000	7675.00000
39.06000	7632.00000
39.07000	7633.00000
39.08000	7679.00000
39.09000	7649.00000
39.10000	7715.00000
39.11000	7802.00000
39.12000	7796.00000
39.13000	7835.00000
39.14000	7899.00000
39.15000	7878.00000
39.16000	7963.00000
39.17000	8027.00000
39.18000	7999.00000
39.19000	8089.00000
39.20000	8064.00000
39.21000	8133.00000
39.22000	8127.00000
39.23000	8120.00000
39.24000	7999.00000
39.25000	8086.00000
39.26000	8091.00000
39.27000	8002.00000
39.28000	8085.00000
39.29000	8029.00000
39.30000	7955.00000
39.31000	8011.00000
39.32000	7960.00000
39.33000	8009.00000
39.34000	8031.00000
39.35000	8027.00000
39.36000	7949.00000
39.37000	7953.00000
39.38000	7983.00000
39.39000	7978.00000
39.40000	8036.00000
39.41000	7987.00000
39.42000	7903.00000
39.43000	7892.00000
39.44000	7818.00000
39.45000	7707.00000
39.46000	7727.00000
39.47000	7723.00000
39.48000	7607.00000
39.49000	7636.00000
39.50000	7591.00000
39.51000	7544.00000
39.52000	7532.00000
39.53000	7555.00000
39.54000	7451.00000
39.55000	7475.00000
39.56000	7476.00000
39.57000	7459.00000
39.58000	7525.00000
39.59000	7544.00000
39.60000	7484.00000
39.61000	7532.00000
39.62000	7566.00000
39.63000	7556.00000
39.64000	7620.00000
39.65000	7655.00000
39.66000	7625.00000
39.67000	7684.00000
39.68000	7726.00000
39.69000	7720.00000
39.70000	7782.00000
39.71000	7841.00000
39.72000	7779.00000
39.73000	7782.00000
39.74000	7800.00000
39.75000	7846.00000
39.76000	7877.00000
39.77000	7912.00000
39.78000	7877.00000
39.79000	7910.00000
39.80000	7982.00000
39.81000	7948.00000
39.82000	7991.00000
39.83000	7986.00000
39.84000	7979.00000
39.85000	7984.00000
39.86000	7935.00000
39.87000	7977.00000
39.88000	8007.00000
39.89000	7930.00000
39.90000	7938.00000
39.91000	7970.00000
39.92000	8029.00000
39.93000	8057.00000
39.94000	8134.00000
39.95000	8158.00000
39.96000	8153.00000
39.97000	8220.00000
39.98000	8222.00000
39.99000	8259.00000
40.00000	8322.00000
40.01000	8354.00000
40.02000	8337.00000
40.03000	8396.00000
40.04000	8275.00000
40.05000	8267.00000
40.06000	8278.00000
40.07000	8249.00000
40.08000	8149.00000
40.09000	8163.00000
40.10000	8128.00000
40.11000	8089.00000
40.12000	8121.00000
40.13000	8135.00000
40.14000	8046.00000
40.15000	8085.00000
40.16000	8093.00000
40.17000	8104.00000
40.18000	8190.00000
40.19000	8229.00000
40.20000	8195.00000
40.21000	8235.00000
40.22000	8220.00000
40.23000	8303.00000
40.24000	8397.00000
40.25000	8437.00000
40.26000	8402.00000
40.27000	8412.00000
40.28000	8400.00000
40.29000	8395.00000
40.30000	8479.00000
40.31000	8480.00000
40.32000	8427.00000
40.33000	8382.00000
40.34000	8376.00000
40.35000	8347.00000
40.36000	8413.00000
40.37000	8509.00000
40.38000	8503.00000
40.39000	8529.00000
40.40000	8590.00000
40.41000	8590.00000
40.42000	8620.00000
40.43000	8642.00000
40.44000	8570.00000
40.45000	8575.00000
40.46000	8524.00000
40.47000	8498.00000
40.48000	8485.00000
40.49000	8462.00000
40.50000	8388.00000
40.51000	8431.00000
40.52000	8385.00000
40.53000	8394.00000
40.54000	8340.00000
40.55000	8348.00000
40.56000	8275.00000
40.57000	8310.00000
40.58000	8216.00000
40.59000	8226.00000
40.60000	8178.00000
40.61000	8172.00000
40.62000	8098.00000
40.63000	8075.00000
40.64000	8099.00000
40.65000	8114.00000
40.66000	8096.00000
40.67000	8133.00000
40.68000	8086.00000
40.69000	8066.00000
40.70000	8070.00000
40.71000	8020.00000
40.72000	8077.00000
40.73000	8115.00000
40.74000	8032.00000
40.75000	8050.00000
40.76000	8053.00000
40.77000	8083.00000
40.78000	8116.00000
40.79000	8093.00000
40.80000	8042.00000
40.81000	8001.00000
40.82000	7986.00000
40.83000	7928.00000
40.84000	8030.00000
40.85000	7942.00000
40.86000	7869.00000
40.87000	7881.00000
40.88000	7830.00000
40.89000	7818.00000
40.90000	7784.00000
40.91000	7769.00000
40.92000	7692.00000
40.93000	7684.00000
40.94000	7663.00000
40.95000	7642.00000
40.96000	7653.00000
40.97000	7627.00000
40.98000	7603.00000
40.99000	7531.00000
41.00000	7544.00000
41.01000	7591.00000
41.02000	7594.00000
41.03000	7560.00000
41.04000	7501.00000
41.05000	7550.00000
41.06000	7472.00000
41.07000	7489.00000
41.08000	7512.00000
41.09000	7483.00000
41.10000	7446.00000
41.11000	7514.00000
41.12000	7463.00000
41.13000	7458.00000
41.14000	7517.00000
41.15000	7504.00000
41.16000	7441.00000
41.17000	7477.00000
41.18000	7500.00000
41.19000	7524.00000
41.20000	7554.00000
41.21000	7556.00000
41.22000	7588.00000
41.23000	7600.00000
41.24000	7646.00000
41.25000	7622.00000
41.26000	7686.00000
41.27000	7688.00000
41.28000	7690.00000
41.29000	7754.00000
41.30000	7790.00000
41.31000	7840.00000
41.32000	7914.00000
41.33000	7939.00000
41.34000	7965.00000
41.35000	7997.00000
41.36000	8086.00000
41.37000	8103.00000
41.38000	8238.00000
41.39000	8286.00000
41.40000	8233.00000
41.41000	8346.00000
41.42000	8379.00000
41.43000	8340.00000
41.44000	8402.00000
41.45000	8422.00000
41.46000	8358.00000
41.47000	8432.00000
41.48000	8444.00000
41.49000	8428.00000
41.50000	8463.00000
41.51000	8481.00000
41.52000	8436.00000
41.53000	8394.00000
41.54000	8319.00000
41.55000	8282.00000
41.56000	8210.00000
41.57000	8168.00000
41.58000	8098.00000
41.59000	8078.00000
41.60000	8057.00000
41.61000	8118.00000
41.62000	8126.00000
41.63000	8051.00000
41.64000	7986.00000
41.65000	8000.00000
41.66000	8024.00000
41.67000	7996.00000
41.68000	8069.00000
41.69000	8062.00000
41.70000	8044.00000
41.71000	8086.00000
41.72000	8062.00000
41.73000	8089.00000
41.74000	8119.00000
41.75000	8111.00000
41.76000	8024.00000
41.77000	8020.00000
41.78000	7976.00000
41.79000	7963.00000
41.80000	7923.00000
41.81000	7869.00000
41.82000	7790.00000
41.83000	7778.00000
41.84000	7759.00000
41.85000	7760.00000
41.86000	7784.00000
41.87000	7780.00000
41.88000	7718.00000
41.89000	7774.00000
41.90000	7762.00000
41.91000	7773.00000
41.92000	7808.00000
41.93000	7827.00000
41.94000	7800.00000
41.95000	7782.00000
41.96000	7795.00000
41.97000	7825.00000
41.98000	7835.00000
41.99000	7803.00000
42.00000	7743.00000
42.01000	7766.00000
42.02000	7733.00000
42.03000	7689.00000
42.04000	7758.00000
42.05000	7725.00000
42.06000	7739.00000
42.07000	7720.00000
42.08000	7746.00000
42.09000	7734.00000
42.10000	7803.00000
42.11000	7793.00000
42.12000	7805.00000
42.13000	7845.00000
42.14000	7894.00000
42.15000	7901.00000
42.16000	7985.00000
42.17000	8021.00000
42.18000	8037.00000
42.19000	7988.00000
42.20000	7996.00000
42.21000	7971.00000
42.22000	7988.00000
42.23000	7943.00000
42.24000	7879.00000
42.25000	7895.00000
42.26000	7833.00000
42.27000	7860.00000
42.28000	7864.00000
42.29000	7899.00000
42.30000	7888.00000
42.31000	7922.00000
42.32000	8007.00000
42.33000	8016.00000
42.34000	8071.00000
42.35000	8087.00000
42.36000	8049.00000
42.37000	8147.00000
42.38000	8154.00000
42.39000	8194.00000
42.40000	8247.00000
42.41000	8282.00000
42.42000	8189.00000
42.43000	8208.00000
42.44000	8174.00000
42.45000	8116.00000
42.46000	8135.00000
42.47000	8126.00000
42.48000	8046.00000
42.49000	8009.00000
42.50000	7975.00000
42.51000	7961.00000
42.52000	7961.00000
42.53000	7959.00000
42.54000	7890.00000
42.55000	7886.00000
42.56000	7936.00000
42.57000	7876.00000
42.58000	7925.00000
42.59000	7928.00000
42.60000	7961.00000
42.61000	7976.00000
42.62000	7998.00000
42.63000	7999.00000
42.64000	8114.00000
42.65000	8128.00000
42.66000	8029.00000
42.67000	8009.00000
42.68000	8041.00000
42.69000	7955.00000
42.70000	8011.00000
42.71000	7950.00000
42.72000	7908.00000
42.73000	7894.00000
42.74000	7871.00000
42.75000	7859.00000
42.76000	7895.00000
42.77000	7921.00000
42.78000	7848.00000
42.79000	7875.00000
42.80000	7857.00000
42.81000	7921.00000
42.82000	7968.00000
42.83000	7969.00000
42.84000	7960.00000
42.85000	8050.00000
42.86000	8069.00000
42.87000	8103.00000
42.88000	8212.00000
42.89000	8266.00000
42.90000	8274.00000
42.91000	8334.00000
42.92000	8347.00000
42.93000	8359.00000
42.94000	8339.00000
42.95000	8376.00000
42.96000	8258.00000
42.97000	8320.00000
42.98000	8254.00000
42.99000	8242.00000
43.00000	8275.00000
43.01000	8282.00000
43.02000	8201.00000
43.03000	8130.00000
43.04000	8177.00000
43.05000	8159.00000
43.06000	8158.00000
43.07000	8201.00000
43.08000	8088.00000
43.09000	8116.00000
43.10000	8072.00000
43.11000	8121.00000
43.12000	8133.00000
43.13000	8113.00000
43.14000	8078.00000
43.15000	8097.00000
43.16000	8075.00000
43.17000	8109.00000
43.18000	8118.00000
43.19000	8123.00000
43.20000	8038.00000
43.21000	8067.00000
43.22000	8027.00000
43.23000	8080.00000
43.24000	8075.00000
43.25000	8084.00000
43.26000	8058.00000
43.27000	8076.00000
43.28000	8054.00000
43.29000	8018.00000
43.30000	7956.00000
43.31000	7965.00000
43.32000	7842.00000
43.33000	7869.00000
43.34000	7842.00000
43.35000	7826.00000
43.36000	7813.00000
43.37000	7817.00000
43.38000	7785.00000
43.39000	7837.00000
43.40000	7828.00000
43.41000	7818.00000
43.42000	7871.00000
43.43000	7854.00000
43.44000	7766.00000
43.45000	7860.00000
43.46000	7874.00000
43.47000	7937.00000
43.48000	7975.00000
43.49000	8001.00000
43.50000	8016.00000
43.51000	8059.00000
43.52000	8168.00000
43.53000	8177.00000
43.54000	8279.00000
43.55000	8332.00000
43.56000	8308.00000
43.57000	8370.00000
43.58000	8427.00000
43.59000	8362.00000
43.60000	8473.00000
43.61000	8493.00000
43.62000	8391.00000
43.63000	8457.00000
43.64000	8421.00000
43.65000	8435.00000
43.66000	8509.00000
43.67000	8463.00000
43.68000	8413.00000
43.69000	8470.00000
43.70000	8474.00000
43.71000	8460.00000
43.72000	8518.00000
43.73000	8509.00000
43.74000	8406.00000
43.75000	8471.00000
43.76000	8444.00000
43.77000	8383.00000
43.78000	8334.00000
43.79000	8352.00000
43.80000	8241.00000
43.81000	8252.00000
43.82000	8164.00000
43.83000	8146.00000
43.84000	8169.00000
43.85000	8179.00000
43.86000	8119.00000
43.87000	8149.00000
43.88000	8135.00000
43.89000	8153.00000
43.90000	8261.00000
43.91000	8305.00000
43.92000	8309.00000
43.93000	8384.00000
43.94000	8434.00000
43.95000	8539.00000
43.96000	8559.00000
43.97000	8589.00000
43.98000	8511.00000
43.99000	8516.00000
44.00000	8483.00000
44.01000	8392.00000
44.02000	8422.00000
44.03000	8378.00000
44.04000	8271.00000
44.05000	8286.00000
44.06000	8287.00000
44.07000	8244.00000
44.08000	8324.00000
44.09000	8363.00000
44.10000	8340.00000
44.11000	8450.00000
44.12000	8474.00000
44.13000	8499.00000
44.14000	8529.00000
44.15000	8633.00000
44.16000	8602.00000
44.17000	8664.00000
44.18000	8660.00000
44.19000	8737.00000
44.20000	8717.00000
44.21000	8720.00000
44.22000	8617.00000
44.23000	8645.00000
44.24000	8508.00000
44.25000	8506.00000
44.26000	8440.00000
44.27000	8382.00000
44.28000	8268.00000
44.29000	8235.00000
44.30000	8225.00000
44.31000	8115.00000
44.32000	8160.00000
44.33000	8092.00000
44.34000	8037.00000
44.35000	8065.00000
44.36000	8009.00000
44.37000	7997.00000
44.38000	8084.00000
44.39000	8100.00000
44.40000	8039.00000
44.41000	8088.00000
44.42000	8134.00000
44.43000	8149.00000
44.44000	8282.00000
44.45000	8302.00000
44.46000	8349.00000
44.47000	8437.00000
44.48000	8538.00000
44.49000	8625.00000
44.50000	8696.00000
44.51000	8741.00000
44.52000	8662.00000
44.53000	8636.00000
44.54000	8603.00000
44.55000	8516.00000
44.56000	8530.00000
44.57000	8445.00000
44.58000	8291.00000
44.59000	8260.00000
44.60000	8183.00000
44.61000	8161.00000
44.62000	8108.00000
44.63000	8038.00000
44.64000	7948.00000
44.65000	7915.00000
44.66000	7886.00000
44.67000	7864.00000
44.68000	7806.00000
44.69000	7705.00000
44.70000	7667.00000
44.71000	7717.00000
44.72000	7661.00000
44.73000	7635.00000
44.74000	7653.00000
44.75000	7628.00000
44.76000	7579.00000
44.77000	7592.00000
44.78000	7606.00000
44.79000	7593.00000
44.80000	7589.00000
44.81000	7602.00000
44.82000	7591.00000
44.83000	7573.00000
44.84000	7622.00000
44.85000	7604.00000
44.86000	7634.00000
44.87000	7593.00000
44.88000	7546.00000
44.89000	7560.00000
44.90000	7565.00000
44.91000	7561.00000
44.92000	7581.00000
44.93000	7564.00000
44.94000	7514.00000
44.95000	7554.00000
44.96000	7552.00000
44.97000	7533.00000
44.98000	7545.00000
44.99000	7530.00000
45.00000	7487.00000
45.01000	7486.00000
45.02000	7557.00000
45.03000	7583.00000
45.04000	7645.00000
45.05000	7648.00000
45.06000	7613.00000
45.07000	7686.00000
45.08000	7642.00000
45.09000	7674.00000
45.10000	7718.00000
45.11000	7793.00000
45.12000	7743.00000
45.13000	7785.00000
45.14000	7786.00000
45.15000	7774.00000
45.16000	7795.00000
45.17000	7804.00000
45.18000	7791.00000
45.19000	7753.00000
45.20000	7726.00000
45.21000	7781.00000
45.22000	7763.00000
45.23000	7780.00000
45.24000	7774.00000
45.25000	7745.00000
45.26000	7781.00000
45.27000	7783.00000
45.28000	7823.00000
45.29000	7813.00000
45.30000	7793.00000
45.31000	7820.00000
45.32000	7837.00000
45.33000	7810.00000
45.34000	7856.00000
45.35000	7863.00000
45.36000	7846.00000
45.37000	7882.00000
45.38000	7893.00000
45.39000	7876.00000
45.40000	7911.00000
45.41000	7926.00000
45.42000	7886.00000
45.43000	7957.00000
45.44000	7945.00000
45.45000	7920.00000
45.46000	7998.00000
45.47000	8022.00000
45.48000	7958.00000
45.49000	8031.00000
45.50000	7987.00000
45.51000	8027.00000
45.52000	8018.00000
45.53000	7997.00000
45.54000	7942.00000
45.55000	8012.00000
45.56000	7961.00000
45.57000	7930.00000
45.58000	7896.00000
45.59000	7870.00000
45.60000	7796.00000
45.61000	7859.00000
45.62000	7813.00000
45.63000	7807.00000
45.64000	7865.00000
45.65000	7855.00000
45.66000	7795.00000
45.67000	7812.00000
45.68000	7802.00000
45.69000	7841.00000
45.70000	7891.00000
45.71000	7888.00000
45.72000	7914.00000
45.73000	7935.00000
45.74000	7955.00000
45.75000	7950.00000
45.76000	7946.00000
45.77000	7882.00000
45.78000	7842.00000
45.79000	7824.00000
45.80000	7809.00000
45.81000	7766.00000
45.82000	7807.00000
45.83000	7751.00000
45.84000	7672.00000
45.85000	7679.00000
45.86000	7645.00000
45.87000	7631.00000
45.88000	7664.00000
45.89000	7665.00000
45.90000	7578.00000
45.91000	7564.00000
45.92000	7505.00000
45.93000	7581.00000
45.94000	7564.00000
45.95000	7584.00000
45.96000	7485.00000
45.97000	7570.00000
45.98000	7513.00000
45.99000	7566.00000
46.00000	7596.00000
46.01000	7666.00000
46.02000	7659.00000
46.03000	7678.00000
46.04000	7769.00000
46.05000	7747.00000
46.06000	7849.00000
46.07000	7925.00000
46.08000	7843.00000
46.09000	7922.00000
46.10000	7949.00000
46.11000	7958.00000
46.12000	7996.00000
46.13000	7909.00000
46.14000	7912.00000
46.15000	7876.00000
46.16000	7919.00000
46.17000	7872.00000
46.18000	7963.00000
46.19000	7949.00000
46.20000	7906.00000
46.21000	7933.00000
46.22000	8025.00000
46.23000	7986.00000
46.24000	8072.00000
46.25000	8096.00000
46.26000	8062.00000
46.27000	8149.00000
46.28000	8160.00000
46.29000	8162.00000
46.30000	8237.00000
46.31000	8222.00000
46.32000	8175.00000
46.33000	8143.00000
46.34000	8069.00000
46.35000	8078.00000
46.36000	8023.00000
46.37000	7966.00000
46.38000	7878.00000
46.39000	7866.00000
46.40000	7808.00000
46.41000	7761.00000
46.42000	7744.00000
46.43000	7755.00000
46.44000	7644.00000
46.45000	7666.00000
46.46000	7643.00000
46.47000	7635.00000
46.48000	7700.00000
46.49000	7661.00000
46.50000	7647.00000
46.51000	7706.00000
46.52000	7701.00000
46.53000	7644.00000
46.54000	7702.00000
46.55000	7683.00000
46.56000	7693.00000
46.57000	7760.00000
46.58000	7772.00000
46.59000	7737.00000
46.60000	7797.00000
46.61000	7761.00000
46.62000	7755.00000
46.63000	7765.00000
46.64000	7797.00000
46.65000	7783.00000
46.66000	7769.00000
46.67000	7813.00000
46.68000	7787.00000
46.69000	7842.00000
46.70000	7799.00000
46.71000	7839.00000
46.72000	7838.00000
46.73000	7833.00000
46.74000	7810.00000
46.75000	7774.00000
46.76000	7821.00000
46.77000	7822.00000
46.78000	7897.00000
46.79000	7848.00000
46.80000	7831.00000
46.81000	7872.00000
46.82000	7927.00000
46.83000	7933.00000
46.84000	8000.00000
46.85000	7986.00000
46.86000	7939.00000
46.87000	8011.00000
46.88000	8004.00000
46.89000	8021.00000
46.90000	8018.00000
46.91000	7995.00000
46.92000	8012.00000
46.93000	8058.00000
46.94000	8042.00000
46.95000	8089.00000
46.96000	8037.00000
46.97000	8018.00000
46.98000	7973.00000
46.99000	7906.00000
47.00000	7888.00000
47.01000	7875.00000
47.02000	7899.00000
47.03000	7813.00000
47.04000	7798.00000
47.05000	7755.00000
47.06000	7776.00000
47.07000	7757.00000
47.08000	7756.00000
47.09000	7736.00000
47.10000	7644.00000
47.11000	7668.00000
47.12000	7678.00000
47.13000	7697.00000
47.14000	7718.00000
47.15000	7707.00000
47.16000	7646.00000
47.17000	7702.00000
47.18000	7697.00000
47.19000	7684.00000
47.20000	7739.00000
47.21000	7736.00000
47.22000	7680.00000
47.23000	7710.00000
47.24000	7686.00000
47.25000	7741.00000
47.26000	7760.00000
47.27000	7775.00000
47.28000	7670.00000
47.29000	7700.00000
47.30000	7632.00000
47.31000	7650.00000
47.32000	7677.00000
47.33000	7670.00000
47.34000	7589.00000
47.35000	7593.00000
47.36000	7610.00000
47.37000	7542.00000
47.38000	7590.00000
47.39000	7516.00000
47.40000	7534.00000
47.41000	7471.00000
47.42000	7504.00000
47.43000	7443.00000
47.44000	7479.00000
47.45000	7464.00000
47.46000	7437.00000
47.47000	7456.00000
47.48000	7389.00000
47.49000	7400.00000
47.50000	7474.00000
47.51000	7402.00000
47.52000	7343.00000
47.53000	7366.00000
47.54000	7394.00000
47.55000	7414.00000
47.56000	7460.00000
47.57000	7436.00000
47.58000	7387.00000
47.59000	7386.00000
47.60000	7399.00000
47.61000	7415.00000
47.62000	7419.00000
47.63000	7463.00000
47.64000	7449.00000
47.65000	7455.00000
47.66000	7504.00000
47.67000	7536.00000
47.68000	7609.00000
47.69000	7635.00000
47.70000	7560.00000
47.71000	7639.00000
47.72000	7625.00000
47.73000	7631.00000
47.74000	7622.00000
47.75000	7661.00000
47.76000	7604.00000
47.77000	7607.00000
47.78000	7597.00000
47.79000	7598.00000
47.80000	7613.00000
47.81000	7600.00000
47.82000	7533.00000
47.83000	7577.00000
47.84000	7537.00000
47.85000	7468.00000
47.86000	7502.00000
47.87000	7455.00000
47.88000	7446.00000
47.89000	7429.00000
47.90000	7411.00000
47.91000	7412.00000
47.92000	7425.00000
47.93000	7370.00000
47.94000	7332.00000
47.95000	7336.00000
47.96000	7333.00000
47.97000	7341.00000
47.98000	7371.00000
47.99000	7389.00000
48.00000	7285.00000
48.01000	7318.00000
48.02000	7317.00000
48.03000	7360.00000
48.04000	7380.00000
48.05000	7314.00000
48.06000	7302.00000
48.07000	7356.00000
48.08000	7362.00000
48.09000	7348.00000
48.10000	7369.00000
48.11000	7406.00000
48.12000	7377.00000
48.13000	7372.00000
48.14000	7363.00000
48.15000	7389.00000
48.16000	7432.00000
48.17000	7445.00000
48.18000	7399.00000
48.19000	7421.00000
48.20000	7428.00000
48.21000	7401.00000
48.22000	7433.00000
48.23000	7362.00000
48.24000	7349.00000
48.25000	7362.00000
48.26000	7354.00000
48.27000	7344.00000
48.28000	7368.00000
48.29000	7375.00000
48.30000	7306.00000
48.31000	7339.00000
48.32000	7324.00000
48.33000	7333.00000
48.34000	7376.00000
48.35000	7397.00000
48.36000	7345.00000
48.37000	7353.00000
48.38000	7376.00000
48.39000	7342.00000
48.40000	7378.00000
48.41000	7360.00000
48.42000	7316.00000
48.43000	7311.00000
48.44000	7292.00000
48.45000	7289.00000
48.46000	7340.00000
48.47000	7338.00000
48.48000	7269.00000
48.49000	7258.00000
48.50000	7290.00000
48.51000	7282.00000
48.52000	7320.00000
48.53000	7316.00000
48.54000	7287.00000
48.55000	7360.00000
48.56000	7421.00000
48.57000	7354.00000
48.58000	7419.00000
48.59000	7451.00000
48.60000	7429.00000
48.61000	7423.00000
48.62000	7432.00000
48.63000	7465.00000
48.64000	7455.00000
48.65000	7496.00000
48.66000	7424.00000
48.67000	7446.00000
48.68000	7451.00000
48.69000	7438.00000
48.70000	7486.00000
48.71000	7437.00000
48.72000	7342.00000
48.73000	7357.00000
48.74000	7320.00000
48.75000	7378.00000
48.76000	7366.00000
48.77000	7379.00000
48.78000	7330.00000
48.79000	7406.00000
48.80000	7390.00000
48.81000	7390.00000
48.82000	7443.00000
48.83000	7407.00000
48.84000	7414.00000
48.85000	7446.00000
48.86000	7423.00000
48.87000	7429.00000
48.88000	7485.00000
48.89000	7516.00000
48.90000	7527.00000
48.91000	7573.00000
48.92000	7578.00000
48.93000	7566.00000
48.94000	7609.00000
48.95000	7608.00000
48.96000	7584.00000
48.97000	7586.00000
48.98000	7604.00000
48.99000	7621.00000
49.00000	7610.00000
49.01000	7593.00000
49.02000	7552.00000
49.03000	7543.00000
49.04000	7538.00000
49.05000	7552.00000
49.06000	7516.00000
49.07000	7510.00000
49.08000	7406.00000
49.09000	7425.00000
49.10000	7423.00000
49.11000	7392.00000
49.12000	7439.00000
49.13000	7401.00000
49.14000	7324.00000
49.15000	7352.00000
49.16000	7344.00000
49.17000	7290.00000
49.18000	7354.00000
49.19000	7285.00000
49.20000	7284.00000
49.21000	7251.00000
49.22000	7302.00000
49.23000	7260.00000
49.24000	7323.00000
49.25000	7318.00000
49.26000	7275.00000
49.27000	7305.00000
49.28000	7275.00000
49.29000	7302.00000
49.30000	7343.00000
49.31000	7330.00000
49.32000	7291.00000
49.33000	7267.00000
49.34000	7251.00000
49.35000	7266.00000
49.36000	7304.00000
49.37000	7302.00000
49.38000	7211.00000
49.39000	7263.00000
49.40000	7242.00000
49.41000	7226.00000
49.42000	7232.00000
49.43000	7272.00000
49.44000	7185.00000
49.45000	7224.00000
49.46000	7214.00000
49.47000	7246.00000
49.48000	7269.00000
49.49000	7273.00000
49.50000	7209.00000
49.51000	7236.00000
49.52000	7242.00000
49.53000	7239.00000
49.54000	7326.00000
49.55000	7310.00000
49.56000	7253.00000
49.57000	7294.00000
49.58000	7338.00000
49.59000	7302.00000
49.60000	7356.00000
49.61000	7324.00000
49.62000	7315.00000
49.63000	7332.00000
49.64000	7373.00000
49.65000	7378.00000
49.66000	7389.00000
49.67000	7426.00000
49.68000	7346.00000
49.69000	7353.00000
49.70000	7309.00000
49.71000	7287.00000
49.72000	7355.00000
49.73000	7341.00000
49.74000	7313.00000
49.75000	7336.00000
49.76000	7292.00000
49.77000	7294.00000
49.78000	7338.00000
49.79000	7361.00000
49.80000	7233.00000
49.81000	7276.00000
49.82000	7241.00000
49.83000	7228.00000
49.84000	7254.00000
49.85000	7226.00000
49.86000	7166.00000
49.87000	7218.00000
49.88000	7162.00000
49.89000	7150.00000
49.90000	7139.00000
49.91000	7159.00000
49.92000	7108.00000
49.93000	7100.00000
49.94000	7150.00000
49.95000	7122.00000
49.96000	7147.00000
49.97000	7126.00000
49.98000	7095.00000
49.99000	7067.00000
50.00000	7129.00000
50.01000	7102.00000
50.02000	7119.00000
50.03000	7103.00000
50.04000	7071.00000
50.05000	7097.00000
50.06000	7119.00000
50.07000	7084.00000
50.08000	7131.00000
50.09000	7165.00000
50.10000	7133.00000
50.11000	7168.00000
50.12000	7207.00000
50.13000	7148.00000
50.14000	7178.00000
50.15000	7201.00000
50.16000	7169.00000
50.17000	7189.00000
50.18000	7158.00000
50.19000	7176.00000
50.20000	7244.00000
50.21000	7174.00000
50.22000	7126.00000
50.23000	7181.00000
50.24000	7182.00000
50.25000	7207.00000
50.26000	7214.00000
50.27000	7215.00000
50.28000	7168.00000
50.29000	7221.00000
50.30000	7169.00000
50.31000	7216.00000
50.32000	7250.00000
50.33000	7241.00000
50.34000	7192.00000
50.35000	7250.00000
50.36000	7283.00000
50.37000	7250.00000
50.38000	7271.00000
50.39000	7284.00000
50.40000	7285.00000
50.41000	7343.00000
50.42000	7304.00000
50.43000	7360.00000
50.44000	7419.00000
50.45000	7455.00000
50.46000	7411.00000
50.47000	7467.00000
50.48000	7515.00000
50.49000	7510.00000
50.50000	7577.00000
50.51000	7569.00000
50.52000	7541.00000
50.53000	7542.00000
50.54000	7558.00000
50.55000	7542.00000
50.56000	7616.00000
50.57000	7539.00000
50.58000	7525.00000
50.59000	7510.00000
50.60000	7505.00000
50.61000	7481.00000
50.62000	7492.00000
50.63000	7433.00000
50.64000	7373.00000
50.65000	7400.00000
50.66000	7353.00000
50.67000	7394.00000
50.68000	7414.00000
50.69000	7438.00000
50.70000	7325.00000
50.71000	7343.00000
50.72000	7364.00000
50.73000	7365.00000
50.74000	7348.00000
50.75000	7381.00000
50.76000	7305.00000
50.77000	7286.00000
50.78000	7339.00000
50.79000	7284.00000
50.80000	7339.00000
50.81000	7285.00000
50.82000	7257.00000
50.83000	7283.00000
50.84000	7237.00000
50.85000	7185.00000
50.86000	7293.00000
50.87000	7239.00000
50.88000	7236.00000
50.89000	7210.00000
50.90000	7262.00000
50.91000	7209.00000
50.92000	7291.00000
50.93000	7258.00000
50.94000	7197.00000
50.95000	7210.00000
50.96000	7237.00000
50.97000	7204.00000
50.98000	7266.00000
50.99000	7286.00000
51.00000	7246.00000
51.01000	7276.00000
51.02000	7282.00000
51.03000	7355.00000
51.04000	7359.00000
51.05000	7401.00000
51.06000	7330.00000
51.07000	7355.00000
51.08000	7327.00000
51.09000	7354.00000
51.10000	7416.00000
51.11000	7390.00000
51.12000	7355.00000
51.13000	7388.00000
51.14000	7401.00000
51.15000	7436.00000
51.16000	7467.00000
51.17000	7445.00000
51.18000	7362.00000
51.19000	7369.00000
51.20000	7377.00000
51.21000	7320.00000
51.22000	7384.00000
51.23000	7363.00000
51.24000	7279.00000
51.25000	7297.00000
51.26000	7319.00000
51.27000	7260.00000
51.28000	7305.00000
51.29000	7301.00000
51.30000	7285.00000
51.31000	7285.00000
51.32000	7251.00000
51.33000	7239.00000
51.34000	7285.00000
51.35000	7273.00000
51.36000	7241.00000
51.37000	7212.00000
51.38000	7207.00000
51.39000	7244.00000
51.40000	7244.00000
51.41000	7290.00000
51.42000	7212.00000
51.43000	7258.00000
51.44000	7221.00000
51.45000	7241.00000
51.46000	7254.00000
51.47000	7295.00000
51.48000	7243.00000
51.49000	7329.00000
51.50000	7309.00000
51.51000	7359.00000
51.52000	7358.00000
51.53000	7376.00000
51.54000	7355.00000
51.55000	7337.00000
51.56000	7354.00000
51.57000	7340.00000
51.58000	7385.00000
51.59000	7374.00000
51.60000	7329.00000
51.61000	7334.00000
51.62000	7340.00000
51.63000	7311.00000
51.64000	7339.00000
51.65000	7342.00000
51.66000	7289.00000
51.67000	7271.00000
51.68000	7275.00000
51.69000	7250.00000
51.70000	7214.00000
51.71000	7229.00000
51.72000	7162.00000
51.73000	7177.00000
51.74000	7132.00000
51.75000	7147.00000
51.76000	7189.00000
51.77000	7159.00000
51.78000	7140.00000
51.79000	7155.00000
51.80000	7163.00000
51.81000	7170.00000
51.82000	7209.00000
51.83000	7181.00000
51.84000	7140.00000
51.85000	7191.00000
51.86000	7187.00000
51.87000	7178.00000
51.88000	7193.00000
51.89000	7211.00000
51.90000	7153.00000
51.91000	7139.00000
51.92000	7179.00000
51.93000	7194.00000
51.94000	7157.00000
51.95000	7165.00000
51.96000	7088.00000
51.97000	7125.00000
51.98000	7158.00000
51.99000	7145.00000
52.00000	7132.00000
52.01000	7198.00000
52.02000	7167.00000
52.03000	7162.00000
52.04000	7170.00000
52.05000	7177.00000
52.06000	7251.00000
52.07000	7249.00000
52.08000	7221.00000
52.09000	7247.00000
52.10000	7251.00000
52.11000	7263.00000
52.12000	7330.00000
52.13000	7342.00000
52.14000	7306.00000
52.15000	7338.00000
52.16000	7310.00000
52.17000	7333.00000
52.18000	7347.00000
52.19000	7331.00000
52.20000	7260.00000
52.21000	7262.00000
52.22000	7238.00000
52.23000	7209.00000
52.24000	7266.00000
52.25000	7225.00000
52.26000	7192.00000
52.27000	7212.00000
52.28000	7204.00000
52.29000	7199.00000
52.30000	7199.00000
52.31000	7235.00000
52.32000	7108.00000
52.33000	7171.00000
52.34000	7174.00000
52.35000	7212.00000
52.36000	7172.00000
52.37000	7195.00000
52.38000	7091.00000
52.39000	7092.00000
52.40000	7119.00000
52.41000	7126.00000
52.42000	7135.00000
52.43000	7105.00000
52.44000	7073.00000
52.45000	7095.00000
52.46000	7096.00000
52.47000	7107.00000
52.48000	7112.00000
52.49000	7106.00000
52.50000	7054.00000
52.51000	7054.00000
52.52000	7075.00000
52.53000	7072.00000
52.54000	7108.00000
52.55000	7091.00000
52.56000	7044.00000
52.57000	7059.00000
52.58000	7086.00000
52.59000	7123.00000
52.60000	7129.00000
52.61000	7112.00000
52.62000	7081.00000
52.63000	7124.00000
52.64000	7099.00000
52.65000	7080.00000
52.66000	7145.00000
52.67000	7161.00000
52.68000	7085.00000
52.69000	7109.00000
52.70000	7132.00000
52.71000	7111.00000
52.72000	7128.00000
52.73000	7121.00000
52.74000	7092.00000
52.75000	7112.00000
52.76000	7129.00000
52.77000	7109.00000
52.78000	7188.00000
52.79000	7239.00000
52.80000	7142.00000
52.81000	7177.00000
52.82000	7217.00000
52.83000	7231.00000
52.84000	7303.00000
52.85000	7316.00000
52.86000	7261.00000
52.87000	7239.00000
52.88000	7291.00000
52.89000	7290.00000
52.90000	7343.00000
52.91000	7315.00000
52.92000	7262.00000
52.93000	7272.00000
52.94000	7248.00000
52.95000	7234.00000
52.96000	7245.00000
52.97000	7207.00000
52.98000	7145.00000
52.99000	7158.00000
53.00000	7151.00000
53.01000	7097.00000
53.02000	7080.00000
53.03000	7109.00000
53.04000	7081.00000
53.05000	7098.00000
53.06000	7092.00000
53.07000	7096.00000
53.08000	7103.00000
53.09000	7105.00000
53.10000	7023.00000
53.11000	7084.00000
53.12000	7033.00000
53.13000	7078.00000
53.14000	7073.00000
53.15000	7129.00000
53.16000	7023.00000
53.17000	7087.00000
53.18000	7064.00000
53.19000	7099.00000
