3.10892	703.29706
3.12892	705.09204
3.14892	722.63300
3.16892	676.46100
3.18892	690.78204
3.20892	728.14795
3.22892	732.18298
3.24892	737.30499
3.26892	746.01599
3.28892	721.24701
3.30892	710.62897
3.32892	732.99902
3.34891	755.46100
3.36891	765.18597
3.38891	758.24799
3.40891	768.88300
3.42891	771.10895
3.44891	768.52301
3.46891	753.43506
3.48891	795.65295
3.50891	762.26703
3.52891	813.18201
3.54891	767.72900
3.56891	786.90503
3.58891	805.24298
3.60891	798.46600
3.62891	776.00000
3.64891	803.79602
3.66891	824.94598
3.68891	797.27405
3.70891	819.83801
3.72890	802.16797
3.74890	794.21405
3.76890	800.26300
3.78890	782.49603
3.80890	798.24402
3.82890	811.78302
3.84890	809.62402
3.86890	843.80798
3.88890	820.16797
3.90890	779.24402
3.92890	790.66400
3.94890	795.12000
3.96890	804.64496
3.98890	797.04401
4.00890	772.48901
4.02890	784.55096
4.04889	787.20404
4.06889	766.07001
4.08889	770.15997
4.10889	808.11597
4.12889	794.21899
4.14889	825.74896
4.16889	811.19098
4.18889	776.34699
4.20889	812.00403
4.22889	794.80499
4.24889	804.52899
4.26889	818.10095
4.28889	812.30701
4.30889	786.00702
4.32889	825.24402
4.34889	815.61896
4.36888	751.76801
4.38888	771.68701
4.40888	795.41705
4.42888	780.89899
4.44888	824.22601
4.46888	834.29504
4.48888	849.37097
4.50888	831.02600
4.52888	826.04797
4.54888	841.96405
4.56888	842.04297
4.58888	859.53705
4.60888	867.83002
4.62888	850.78705
4.64888	813.41101
4.66888	797.34094
4.68888	809.45703
4.70887	827.24097
4.72887	813.18201
4.74887	821.09503
4.76887	840.41705
4.78887	850.22705
4.80887	819.12299
4.82887	890.17096
4.84887	844.84595
4.86887	802.38702
4.88887	814.77801
4.90887	840.48206
4.92887	818.01501
4.94887	877.15295
4.96887	895.89703
4.98887	922.75000
5.00887	910.68500
5.02886	876.41705
5.04886	905.37701
5.06886	970.02002
5.08886	955.45300
5.10886	945.17798
5.12886	980.77405
5.14886	970.46503
5.16886	918.98102
5.18886	963.42505
5.20886	1017.67499
5.22886	1001.29303
5.24886	1096.33203
5.26886	1133.53906
5.28886	1186.34412
5.30886	1183.53101
5.32885	1253.91101
5.34885	1283.38196
5.36885	1203.00305
5.38885	1094.25806
5.40885	1029.95911
5.42885	963.38501
5.44885	983.25000
5.46885	972.04596
5.48885	931.72601
5.50885	966.96204
5.52885	936.30896
5.54885	950.79407
5.56885	926.46002
5.58885	980.33203
5.60885	1019.96704
5.62885	962.48102
5.64884	987.32599
5.66884	904.25299
5.68884	977.12598
5.70884	1031.98096
5.72884	975.26501
5.74884	967.13403
5.76884	985.68799
5.78884	994.39899
5.80884	1002.08301
5.82884	1003.09503
5.84884	1053.87903
5.86884	1007.68799
5.88884	992.38702
5.90884	1018.00500
5.92884	1033.20801
5.94883	1036.21692
5.96883	1054.03406
5.98883	1098.60303
6.00883	1059.08594
6.02883	1040.13403
6.04883	1083.31311
6.06883	1081.49500
6.08883	1042.58691
6.10883	1114.28894
6.12883	1047.65906
6.14883	1082.82007
6.16883	1078.34106
6.18883	1030.63904
6.20883	1039.52100
6.22883	1061.21191
6.24883	1073.88098
6.26882	1119.26306
6.28882	1105.05310
6.30882	1096.84412
6.32882	1038.05005
6.34882	1043.89905
6.36882	1105.46606
6.38882	1130.36914
6.40882	1165.27991
6.42882	1092.89807
6.44882	1145.05102
6.46882	1154.86816
6.48882	1126.77295
6.50882	1149.69495
6.52882	1113.87000
6.54882	1166.43811
6.56881	1168.34705
6.58881	1159.00305
6.60881	1189.82507
6.62881	1161.75696
6.64881	1162.90698
6.66881	1166.66003
6.68881	1156.43408
6.70881	1174.35815
6.72881	1209.51599
6.74881	1182.62305
6.76881	1176.66406
6.78881	1145.84106
6.80881	1189.00403
6.82881	1228.74500
6.84880	1240.54810
6.86880	1207.28687
6.88880	1176.62000
6.90880	1191.57300
6.92880	1192.92102
6.94880	1216.20398
6.96880	1299.09302
6.98880	1218.66309
7.00880	1258.91699
7.02880	1248.40405
7.04880	1303.86108
7.06880	1279.04199
7.08880	1276.16504
7.10880	1309.59595
7.12880	1333.46411
7.14879	1355.08594
7.16879	1357.62500
7.18879	1436.36108
7.20879	1409.11499
7.22879	1400.57190
7.24879	1480.92908
7.26879	1469.75903
7.28879	1610.85815
7.30879	1513.39502
7.32879	1611.04102
7.34879	1684.89905
7.36879	1793.55603
7.38879	1895.70190
7.40878	1918.17688
7.42878	2090.36499
7.44878	2099.09106
7.46878	1886.78491
7.48878	1654.50098
7.50878	1513.08899
7.52878	1355.59802
7.54878	1311.58398
7.56878	1286.52502
7.58878	1327.08997
7.60878	1325.42810
7.62878	1296.27087
7.64878	1321.36816
7.66878	1324.73401
7.68877	1297.94812
7.70878	1264.32007
7.72877	1290.09399
7.74877	1285.46204
7.76877	1297.57593
7.78877	1322.27991
7.80877	1266.81409
7.82877	1291.63599
7.84877	1327.15601
7.86877	1337.14807
7.88877	1324.21899
7.90877	1316.27087
7.92877	1351.30310
7.94877	1384.94812
7.96877	1346.51099
7.98876	1283.05200
8.00876	1334.38501
8.02876	1371.60193
8.04876	1293.74402
8.06876	1320.04199
8.08876	1336.95410
8.10876	1386.26904
8.12876	1358.21497
8.14876	1306.54407
8.16876	1359.60095
8.18876	1359.37500
8.20876	1408.15503
8.22876	1330.19690
8.24875	1385.11499
8.26876	1405.29797
8.28875	1415.06006
8.30875	1362.61499
8.32875	1287.69898
8.34875	1322.07996
8.36875	1324.51697
8.38875	1320.00000
8.40875	1297.79797
8.42875	1289.29797
8.44875	1277.57690
8.46875	1291.55408
8.48875	1272.18897
8.50874	1304.08801
8.52875	1265.33313
8.54874	1326.54700
8.56874	1305.95911
8.58874	1254.94104
8.60874	1303.20398
8.62874	1300.17493
8.64874	1304.65100
8.66874	1280.80005
8.68874	1253.36511
8.70874	1280.24402
8.72874	1302.05701
8.74874	1264.45203
8.76874	1240.15808
8.78874	1276.70801
8.80873	1272.39001
8.82873	1239.73804
8.84873	1226.07996
8.86873	1214.84607
8.88873	1245.30200
8.90873	1299.18188
8.92873	1333.96008
8.94873	1226.25305
8.96873	1256.36011
8.98873	1248.29590
9.00873	1216.61304
9.02873	1211.10400
9.04872	1225.28491
9.06872	1191.19898
9.08872	1240.31201
9.10872	1230.21497
9.12872	1229.90601
9.14872	1258.59595
9.16872	1244.88000
9.18872	1254.52405
9.20872	1249.81702
9.22872	1243.06311
9.24872	1264.12000
9.26872	1285.31201
9.28872	1299.71899
9.30871	1243.01599
9.32871	1226.67590
9.34871	1261.40100
9.36871	1251.11597
9.38871	1239.42102
9.40871	1220.93201
9.42871	1223.96912
9.44871	1224.73596
9.46871	1271.72595
9.48871	1313.07800
9.50871	1294.95813
9.52871	1234.02197
9.54870	1294.59595
9.56870	1291.88196
9.58870	1281.07690
9.60870	1238.07593
9.62870	1218.28186
9.64870	1237.51196
9.66870	1255.22900
9.68870	1269.80701
9.70870	1257.56702
9.72870	1244.34314
9.74870	1287.05102
9.76870	1235.24805
9.78870	1303.09399
9.80870	1300.08398
9.82869	1306.89404
9.84869	1324.06409
9.86869	1324.79688
9.88869	1412.62305
9.90869	1433.58191
9.92869	1351.85413
9.94869	1342.58093
9.96869	1299.96704
9.98869	1264.46313
10.00869	1250.70398
10.02869	1222.17590
10.04869	1195.36511
10.06869	1239.68396
10.08868	1298.73193
10.10868	1305.88306
10.12868	1283.94202
10.14868	1261.83008
10.16868	1271.37598
10.18868	1344.33313
10.20868	1334.95703
10.22868	1359.15002
10.24868	1426.42602
10.26868	1421.15405
10.28868	1490.25403
10.30868	1559.61902
10.32868	1576.23804
10.34867	1653.89502
10.36867	1695.13599
10.38867	1767.63000
10.40867	1922.03308
10.42867	2051.91284
10.44867	2242.53296
10.46867	2523.89819
10.48867	2811.94995
10.50867	3148.29810
10.52867	3605.36499
10.54866	4073.12305
10.56867	4468.62695
10.58866	4856.22705
10.60866	5035.81738
10.62866	5032.74902
10.64866	4572.99170
10.66866	3559.22998
10.68866	2591.36401
10.70866	1772.51904
10.72866	1459.26904
10.74866	1359.21997
10.76866	1266.88000
10.78866	1255.74402
10.80865	1231.14807
10.82865	1207.45911
10.84865	1213.20691
10.86865	1171.07398
10.88865	1177.64905
10.90865	1198.53406
10.92865	1160.43811
10.94865	1137.91907
10.96865	1147.07800
10.98865	1141.19592
11.00865	1123.56311
11.02865	1152.44312
11.04865	1147.80200
11.06865	1163.61304
11.08864	1182.13599
11.10864	1138.25903
11.12864	1117.79394
11.14864	1119.21997
11.16864	1157.95508
11.18864	1127.70190
11.20864	1139.05102
11.22864	1105.56409
11.24864	1105.08496
11.26864	1084.14905
11.28863	1107.06702
11.30864	1122.11804
11.32863	1103.65503
11.34863	1095.40698
11.36863	1076.60999
11.38863	1088.62903
11.40863	1074.97498
11.42863	1090.29590
11.44863	1080.91406
11.46863	1051.36108
11.48863	1064.43103
11.50863	1103.96204
11.52862	1068.09094
11.54862	1054.05908
11.56862	1091.30505
11.58862	1135.05908
11.60862	1060.60303
11.62862	1063.88501
11.64862	1047.95105
11.66862	1066.10303
11.68862	1052.49500
11.70862	1063.56604
11.72862	1057.91406
11.74862	1045.12903
11.76862	1033.67493
11.78861	1050.21997
11.80861	1031.41003
11.82861	1026.62195
11.84861	1052.09399
11.86861	1017.19800
11.88861	1022.79999
11.90861	1060.16602
11.92861	1015.48901
11.94861	1067.18298
11.96861	1041.68396
11.98861	1033.71802
12.00860	1039.12402
12.02861	1043.55310
12.04860	1048.87402
12.06860	956.44702
12.08860	1025.43506
12.10860	1027.49597
12.12860	1067.37805
12.14860	1049.48193
12.16860	1028.63000
12.18860	1017.75800
12.20860	1009.25897
12.22860	1017.16498
12.24859	1002.32098
12.26859	1017.77600
12.28859	1037.83313
12.30859	1041.00598
12.32859	1002.16895
12.34859	1026.46912
12.36859	1060.30310
12.38859	1040.21802
12.40859	1021.07098
12.42859	1027.31103
12.44859	1072.38098
12.46858	997.92706
12.48859	1080.17188
12.50858	1042.26501
12.52858	1019.50201
12.54858	985.69299
12.56858	1047.54504
12.58858	1059.44812
12.60858	1053.76990
12.62858	1040.54907
12.64858	1043.41309
12.66858	1026.94312
12.68858	1011.63599
12.70857	1003.49603
12.72857	1012.70001
12.74857	1024.92700
12.76857	987.89404
12.78857	1032.53601
12.80857	947.64893
12.82857	943.67096
12.84857	1055.44312
12.86857	982.46704
12.88857	1010.91705
12.90857	967.68097
12.92857	979.71600
12.94856	978.28302
12.96856	987.80499
12.98856	995.97900
13.00856	993.93408
13.02856	941.60400
13.04856	943.14093
13.06856	948.21002
13.08856	982.28802
13.10856	995.41205
13.12856	1004.85095
13.14855	984.95801
13.16855	981.46002
13.18855	957.43603
13.20855	1019.80096
13.22855	963.13898
13.24855	950.26001
13.26855	951.72302
13.28855	986.40405
13.30855	1068.81006
13.32855	974.42102
13.34855	1002.01300
13.36854	1018.83404
13.38854	1053.82410
13.40854	1054.71497
13.42854	1059.84106
13.44854	1114.83813
13.46854	1156.88306
13.48854	1218.75696
13.50854	1235.23499
13.52854	1242.48804
13.54854	1349.66406
13.56854	1427.89807
13.58853	1405.99194
13.60853	1336.76001
13.62853	1311.16309
13.64853	1222.93103
13.66853	1129.76404
13.68853	1118.78394
13.70853	1020.35797
13.72853	1071.63806
13.74853	1097.41907
13.76853	1059.28687
13.78853	1147.25195
13.80852	1163.76697
13.82853	1237.97192
13.84852	1329.85413
13.86852	1366.42700
13.88852	1488.75598
13.90852	1579.76099
13.92852	1697.89099
13.94852	1896.35315
13.96852	2074.50903
13.98852	2266.40698
14.00851	2566.60620
14.02852	2781.28101
14.04851	2913.80615
14.06851	2903.39404
14.08851	2741.37305
14.10851	2421.81494
14.12851	1937.47498
14.14851	1462.39697
14.16851	1219.90698
14.18851	1110.40601
14.20851	1010.84094
14.22851	1008.10895
14.24850	1009.33404
14.26850	1008.65497
14.28850	1026.52808
14.30850	1038.26501
14.32850	1048.13904
14.34850	1041.03198
14.36850	1065.41602
14.38850	1082.60193
14.40850	1079.33203
14.42850	1072.69800
14.44849	1038.24597
14.46850	1056.95203
14.48849	1108.81311
14.50849	1060.65100
14.52849	1006.00702
14.54849	1074.57398
14.56849	1099.03003
14.58849	1140.69189
14.60849	1199.62402
14.62849	1213.30908
14.64849	1236.83508
14.66849	1367.72803
14.68848	1511.15405
14.70848	1643.27991
14.72848	1819.47803
14.74848	2060.86621
14.76848	2306.31006
14.78848	2592.39404
14.80848	2936.70386
14.82848	3381.28198
14.84848	3486.03711
14.86848	3640.86719
14.88847	3604.69824
14.90847	3168.16016
14.92847	2583.25293
14.94847	1984.71899
14.96847	1523.58801
14.98847	1460.26697
15.00847	1364.17297
15.02847	1358.53308
15.04847	1408.37903
15.06847	1464.64600
15.08846	1521.76501
15.10846	1614.77991
15.12846	1664.69299
15.14846	1824.16003
15.16846	2025.01306
15.18846	2282.72290
15.20846	2562.52612
15.22846	3001.11401
15.24846	3507.56396
15.26846	4214.07080
15.28846	5078.14404
15.30846	6267.89355
15.32845	7820.66504
15.34845	9771.59180
15.36845	12210.09961
15.38845	14553.18945
15.40845	16619.85156
15.42845	17854.53906
15.44845	18168.82031
15.46845	16746.41016
15.48845	13690.79981
15.50844	9613.41113
15.52844	6036.47998
15.54844	3624.40796
15.56844	2460.74487
15.58844	1987.50598
15.60844	1839.05102
15.62844	1764.72192
15.64844	1793.26599
15.66844	1917.74402
15.68844	2094.20190
15.70843	2287.39819
15.72843	2684.64502
15.74843	2958.94189
15.76843	3443.94092
15.78843	4024.01001
15.80843	5133.09473
15.82843	6100.94580
15.84843	7555.88281
15.86843	9092.14551
15.88843	10587.75000
15.90842	11774.57031
15.92842	12233.05957
15.94842	12285.34961
15.96842	11248.16992
15.98842	8954.36231
16.00842	6438.18897
16.02842	4304.74023
16.04842	2858.27490
16.06842	2232.29199
16.08842	1970.30701
16.10842	1899.72998
16.12842	1904.23193
16.14842	1900.26306
16.16841	1880.26501
16.18841	1954.09192
16.20841	1949.25903
16.22841	2060.80298
16.24841	2087.77197
16.26841	2216.09912
16.28841	2180.63013
16.30841	2195.20898
16.32841	2055.25708
16.34841	1884.90308
16.36840	1647.37805
16.38840	1446.67493
16.40840	1387.07190
16.42840	1400.13306
16.44840	1440.12000
16.46840	1557.55505
16.48840	1742.80603
16.50840	1876.92102
16.52839	2082.14209
16.54839	2273.85107
16.56839	2328.51904
16.58839	2415.29199
16.60839	2373.31812
16.62839	2242.60498
16.64839	2162.43701
16.66839	2136.49609
16.68839	2187.83911
16.70838	2177.75488
16.72839	2110.32715
16.74839	1977.16992
16.76838	1785.39600
16.78838	1521.73694
16.80838	1318.39099
16.82838	1131.57593
16.84838	1007.58404
16.86838	982.78705
16.88838	999.79706
16.90837	997.99707
16.92837	957.59503
16.94837	949.31897
16.96837	912.03802
16.98837	883.21802
17.00837	955.98804
17.02837	934.51300
17.04837	929.63202
17.06837	985.19501
17.08837	942.69702
17.10837	968.02502
17.12836	920.29706
17.14836	970.90100
17.16836	949.82001
17.18836	972.28503
17.20836	998.78601
17.22836	1021.48004
17.24836	1033.24500
17.26836	1073.88501
17.28836	1075.80102
17.30835	1125.98901
17.32836	1295.56311
17.34835	1357.88306
17.36835	1474.18091
17.38835	1674.81812
17.40835	1872.10999
17.42835	2199.34106
17.44835	2510.53491
17.46835	3085.85620
17.48834	3693.32617
17.50834	4645.51562
17.52835	5331.05762
17.54834	5896.98975
17.56834	6458.53369
17.58834	6477.64014
17.60834	6189.97998
17.62834	5307.52881
17.64834	4064.89502
17.66833	3058.18628
17.68833	2260.32105
17.70834	1774.56311
17.72833	1486.23096
17.74833	1414.51306
17.76833	1440.99902
17.78833	1461.47192
17.80833	1563.10999
17.82833	1814.82312
17.84833	2002.42200
17.86833	2220.71484
17.88833	2695.78711
17.90833	3220.67505
17.92832	3732.42798
17.94832	4250.70996
17.96832	4600.39844
17.98832	4827.68213
18.00832	4795.50684
18.02832	4381.02100
18.04832	3491.29492
18.06832	2640.79297
18.08831	1900.46106
18.10831	1470.93701
18.12831	1248.08496
18.14831	1110.54700
18.16831	1010.96405
18.18831	1014.00897
18.20831	959.37402
18.22831	906.92004
18.24831	895.11200
18.26831	889.31598
18.28830	893.16895
18.30830	842.81097
18.32830	856.64697
18.34830	921.90100
18.36830	839.01202
18.38830	914.48804
18.40830	921.63898
18.42830	971.50897
18.44830	1000.05499
18.46829	1055.19189
18.48829	1114.00903
18.50829	1181.44409
18.52829	1348.45606
18.54829	1491.80310
18.56829	1688.03198
18.58829	1974.78687
18.60829	2395.44189
18.62829	2725.15820
18.64829	3031.23486
18.66828	3264.20386
18.68828	3503.19019
18.70828	3404.13721
18.72828	3189.31006
18.74828	2580.56812
18.76828	1976.63696
18.78828	1533.36108
18.80828	1113.64807
18.82828	954.23303
18.84828	887.26801
18.86828	823.66095
18.88827	821.75201
18.90827	797.98602
18.92827	805.28003
18.94827	833.47601
18.96827	832.18597
18.98827	802.60297
19.00827	822.17096
19.02827	820.03003
19.04827	785.88501
19.06826	772.14294
19.08826	790.41602
19.10826	803.32202
19.12826	860.17297
19.14826	906.82300
19.16826	877.13403
19.18826	923.72705
19.20826	910.90301
19.22825	906.67499
19.24825	883.73804
19.26825	932.41101
19.28825	897.94000
19.30825	855.97705
19.32825	849.39404
19.34825	817.69202
19.36825	777.53802
19.38825	745.23407
19.40824	752.12500
19.42824	730.50201
19.44824	728.37500
19.46824	756.77301
19.48824	807.84296
19.50824	781.40503
19.52824	738.58801
19.54824	735.48004
19.56824	733.10797
19.58823	779.87897
19.60823	811.41302
19.62823	730.27502
19.64823	698.27301
19.66823	729.97705
19.68823	770.34595
19.70823	743.10095
19.72823	743.75000
19.74823	790.56598
19.76823	753.48602
19.78822	791.23004
19.80822	811.40301
19.82822	856.39404
19.84822	857.66699
19.86822	894.68701
19.88822	873.26099
19.90822	859.21899
19.92822	851.96503
19.94821	797.42804
19.96821	821.60400
19.98821	879.07300
20.00821	985.10895
20.02821	1052.50403
20.04821	1057.83106
20.06821	1137.18897
20.08820	1028.70801
20.10821	1006.87500
20.12820	1007.59601
20.14820	985.37201
20.16820	1028.89307
20.18820	1117.36414
20.20820	1176.11304
20.22820	1200.61401
20.24820	1226.46606
20.26820	1206.29895
20.28820	1171.95508
20.30819	1143.52197
20.32819	1112.57898
20.34819	1086.92004
20.36819	1023.80798
20.38819	1045.37305
20.40819	998.61499
20.42819	979.53003
20.44819	915.36401
20.46818	853.76501
20.48818	853.11096
20.50818	784.50800
20.52818	741.89801
20.54818	772.65399
20.56818	827.54297
20.58818	905.67999
20.60818	923.99506
20.62818	960.02002
20.64818	1069.90002
20.66817	1195.84607
20.68817	1322.36414
20.70817	1530.51196
20.72817	1750.40601
20.74817	1952.42908
20.76817	2141.29394
20.78817	2318.65723
20.80817	2357.63721
20.82817	2352.94702
20.84816	2117.52100
20.86816	1766.51501
20.88816	1547.81103
20.90816	1219.76697
20.92816	1015.34699
20.94816	883.88300
20.96815	764.64697
20.98815	784.91302
21.00815	759.14996
21.02815	737.44898
21.04815	697.22205
21.06815	712.94501
21.08815	716.26703
21.10815	711.35400
21.12815	731.96704
21.14815	723.34497
21.16814	726.73999
21.18814	744.96100
21.20814	791.67999
21.22814	742.29804
21.24814	777.87799
21.26814	795.47406
21.28814	848.08600
21.30814	840.18097
21.32814	843.00403
21.34814	940.94098
21.36813	949.72705
21.38813	989.79004
21.40813	1078.60901
21.42813	1189.89502
21.44813	1324.12305
21.46813	1458.19495
21.48813	1696.50598
21.50812	2116.03101
21.52812	2567.29199
21.54812	2968.44800
21.56812	3365.20483
21.58812	3704.49390
21.60812	3756.67920
21.62812	3472.21899
21.64812	3055.55103
21.66812	2470.84814
21.68811	1833.07593
21.70811	1514.29492
21.72811	1232.15698
21.74811	1032.55310
21.76811	1026.56995
21.78811	1061.94006
21.80811	1068.67297
21.82811	1140.25806
21.84811	1147.88306
21.86810	1093.98901
21.88810	1079.84009
21.90810	1049.50000
21.92810	1038.29895
21.94810	1050.64502
21.96810	1057.02405
21.98810	1090.49695
22.00810	1142.30908
22.02810	1269.75195
22.04809	1444.36511
22.06809	1488.24097
22.08809	1504.32410
22.10809	1556.12305
22.12809	1478.69189
22.14809	1507.46204
22.16809	1396.89001
22.18809	1305.08691
22.20808	1277.39600
22.22809	1171.50500
22.24808	1099.92310
22.26808	1000.80200
22.28808	980.36597
22.30808	906.06500
22.32808	879.04498
22.34808	893.09302
22.36808	897.74200
22.38807	882.66797
22.40807	905.66095
22.42807	863.01501
22.44807	783.28601
22.46807	737.55096
22.48807	722.65399
22.50807	757.38000
22.52807	693.28900
22.54807	679.15894
22.56806	702.77203
22.58806	669.10797
22.60806	687.31299
22.62806	687.70898
22.64806	705.46899
22.66806	695.54797
22.68805	664.26300
22.70806	650.43707
22.72805	641.78802
22.74805	655.62897
22.76805	667.22504
22.78805	680.42102
22.80805	665.63800
22.82805	674.32404
22.84805	658.95502
22.86805	662.12701
22.88804	683.04401
22.90804	707.30701
22.92804	666.87299
22.94804	647.56403
22.96804	680.80499
22.98804	642.45300
23.00804	667.20203
23.02803	665.56299
23.04803	680.41602
23.06803	671.73206
23.08803	666.12500
23.10803	695.52801
23.12803	667.50500
23.14803	670.70203
23.16803	688.94000
23.18803	692.92902
23.20802	668.99603
23.22802	647.64697
23.24802	672.70300
23.26802	689.80701
23.28802	677.36798
23.30802	700.09601
23.32802	724.11700
23.34802	694.13898
23.36801	695.89502
23.38801	684.05701
23.40801	638.16498
23.42801	681.96899
23.44801	648.37701
23.46801	689.45300
23.48801	720.40900
23.50801	757.50800
23.52801	754.73206
23.54800	749.21301
23.56800	781.77801
23.58800	810.16998
23.60800	864.60498
23.62800	891.92304
23.64800	933.38300
23.66800	965.77600
23.68799	1028.02600
23.70799	1135.41406
23.72799	1287.13000
23.74799	1452.72900
23.76799	1696.53101
23.78799	2010.24597
23.80799	2192.75488
23.82799	2336.57397
23.84799	2529.24390
23.86799	2522.58813
23.88798	2423.20190
23.90798	2275.61108
23.92798	1907.99194
23.94798	1692.74500
23.96798	1571.88806
23.98798	1417.21497
24.00798	1304.05102
24.02797	1169.67090
24.04797	1055.66809
24.06797	911.90204
24.08797	806.13098
24.10797	756.02100
24.12797	735.83203
24.14797	734.34296
24.16796	707.53003
24.18796	643.54700
24.20796	633.94898
24.22796	669.04895
24.24796	650.29602
24.26796	659.88403
24.28796	680.63995
24.30796	634.66400
24.32796	701.28406
24.34796	649.45599
24.36795	646.23303
24.38795	683.90900
24.40795	662.53998
24.42795	723.97302
24.44795	760.91302
24.46795	790.97205
24.48794	765.14795
24.50794	771.51404
24.52794	835.96802
24.54794	850.32800
24.56794	872.02801
24.58794	878.91205
24.60794	910.42206
24.62794	912.26501
24.64794	973.50403
24.66793	983.96405
24.68793	986.83502
24.70793	974.57001
24.72793	926.20502
24.74793	868.94202
24.76793	831.04999
24.78793	800.45099
24.80793	785.48004
24.82793	713.89404
24.84792	742.26898
24.86792	720.35199
24.88792	756.42004
24.90792	797.31299
24.92792	790.55200
24.94792	742.81702
24.96791	775.88800
24.98791	823.39801
25.00791	774.07800
25.02791	811.27704
25.04791	886.98407
25.06791	875.82098
25.08791	1001.37201
25.10791	1044.85315
25.12790	918.52899
25.14790	903.78003
25.16790	850.98505
25.18790	776.98804
25.20790	748.61597
25.22790	712.67999
25.24790	713.67200
25.26790	714.52301
25.28789	724.97900
25.30789	667.57599
25.32789	659.90503
25.34789	662.54999
25.36789	654.21002
25.38789	655.14795
25.40789	647.94000
25.42788	648.53900
25.44789	638.15399
25.46788	630.72601
25.48788	619.41101
25.50788	656.84894
25.52788	705.13995
25.54788	727.80499
25.56788	686.69800
25.58787	761.23102
25.60787	830.86896
25.62787	874.31799
25.64787	970.56000
25.66787	1131.45508
25.68787	1314.39404
25.70787	1492.15198
25.72787	1709.14404
25.74787	1930.23193
25.76786	2122.70801
25.78786	2196.45288
25.80786	2114.65918
25.82786	1982.62500
25.84786	1781.90698
25.86786	1671.45410
25.88786	1487.35510
25.90785	1263.22803
25.92786	1091.91003
25.94785	952.84399
25.96785	847.03802
25.98785	761.73004
26.00785	691.27301
26.02785	664.93805
26.04785	674.43408
26.06784	658.07898
26.08784	660.14398
26.10784	623.79205
26.12784	643.29407
26.14784	665.32202
26.16784	664.20502
26.18784	661.98102
26.20784	654.98407
26.22784	652.38800
26.24783	669.83203
26.26783	668.05096
26.28783	705.81799
26.30783	754.37402
26.32783	769.50500
26.34783	795.38098
26.36782	821.54096
26.38782	806.55499
26.40782	877.54199
26.42782	913.65698
26.44782	901.51703
26.46782	911.76703
26.48782	978.84296
26.50782	1004.05096
26.52781	1046.57190
26.54781	1180.59692
26.56781	1328.78394
26.58781	1478.20190
26.60781	1732.50598
26.62781	2076.63623
26.64781	2326.75098
26.66781	2599.17725
26.68781	2897.81299
26.70780	2993.15210
26.72780	2925.83618
26.74780	2764.66406
26.76780	2457.39990
26.78780	1980.25305
26.80780	1676.81006
26.82779	1363.00000
26.84780	1058.07996
26.86779	913.84796
26.88779	803.84595
26.90779	726.23004
26.92779	684.18201
26.94779	671.37598
26.96778	672.71405
26.98778	683.45703
27.00778	661.90405
27.02778	692.65698
27.04778	700.36499
27.06778	684.64594
27.08778	735.60498
27.10778	771.86401
27.12777	783.78101
27.14778	861.28900
27.16777	901.69000
27.18777	977.46301
27.20777	1029.90601
27.22777	945.53302
27.24777	978.49207
27.26777	878.35199
27.28776	796.83801
27.30776	771.75201
27.32776	702.98505
27.34776	662.28302
27.36776	662.17596
27.38776	685.65894
27.40776	640.50500
27.42776	663.41803
27.44775	637.05200
27.46775	630.88501
27.48775	627.15894
27.50775	644.03406
27.52775	635.34796
27.54775	601.77301
27.56774	592.48602
27.58774	629.70599
27.60774	633.51703
27.62774	607.40704
27.64774	671.71704
27.66774	725.42706
27.68774	776.48602
27.70774	742.95502
27.72774	807.48407
27.74773	834.65894
27.76773	849.11700
27.78773	908.54401
27.80773	1001.42602
27.82773	1057.54700
27.84773	1119.17188
27.86773	1281.77087
27.88772	1430.18188
27.90772	1630.45606
27.92772	1827.08997
27.94772	2082.70703
27.96772	2369.80200
27.98772	2605.86108
28.00772	2895.40894
28.02771	3199.15308
28.04771	3520.03809
28.06771	3619.32715
28.08771	3409.61011
28.10771	3195.81812
28.12771	2973.99194
28.14771	2482.28003
28.16770	2221.02393
28.18770	1843.42102
28.20770	1487.30603
28.22770	1276.55005
28.24770	1081.27295
28.26770	907.67200
28.28770	810.39801
28.30769	741.23602
28.32769	690.95099
28.34769	651.39404
28.36769	623.98206
28.38769	621.84399
28.40769	605.09100
28.42769	614.55402
28.44768	632.62598
28.46768	619.98206
28.48768	616.48004
28.50768	604.19800
28.52768	593.91705
28.54768	609.93408
28.56768	603.93707
28.58768	604.58502
28.60767	592.43603
28.62767	591.18097
28.64767	607.46204
28.66767	614.33002
28.68767	578.70099
28.70767	581.85400
28.72767	578.46301
28.74767	573.02801
28.76766	615.05701
28.78766	594.51599
28.80766	596.37402
28.82766	600.72601
28.84766	587.79706
28.86766	603.34894
28.88765	631.86096
28.90765	654.97705
28.92765	673.01898
28.94765	703.75299
28.96765	671.65094
28.98765	693.05298
29.00765	725.20502
29.02764	692.90900
29.04765	721.10895
29.06764	732.06299
29.08764	775.66998
29.10764	784.60095
29.12764	911.74701
29.14764	1015.79901
29.16764	1103.91406
29.18763	1154.82812
29.20763	1205.77490
29.22763	1253.06201
29.24763	1237.90698
29.26763	1084.21692
29.28763	980.31000
29.30763	825.78705
29.32763	841.46100
29.34763	697.83099
29.36762	652.89001
29.38762	644.00897
29.40762	642.06000
29.42762	634.42706
29.44762	611.61499
29.46761	589.00500
29.48761	629.81201
29.50761	620.29303
29.52761	624.95203
29.54761	638.13800
29.56761	666.81000
29.58761	720.81702
29.60760	794.38501
29.62760	865.57703
29.64760	1118.33508
29.66760	1509.35413
29.68760	1877.55102
29.70760	1750.05701
29.72760	1481.25403
29.74760	1537.48999
29.76759	1505.03809
29.78759	1279.32703
29.80759	1056.72693
29.82759	938.85095
29.84759	943.90002
29.86759	989.37299
29.88759	983.56598
29.90758	1039.51196
29.92758	1148.59192
29.94758	1269.76196
29.96758	1354.95606
29.98758	1368.28796
30.00758	1362.51599
30.02757	1333.63098
30.04757	1253.21802
30.06757	1155.05005
30.08757	1043.02002
30.10757	970.18402
30.12757	927.99902
30.14757	865.45099
30.16756	879.20001
30.18756	903.88300
30.20756	859.54895
30.22756	815.18597
30.24756	764.88000
30.26756	739.05298
30.28756	709.41101
30.30756	752.25201
30.32756	772.96503
30.34755	789.20801
30.36755	843.33502
30.38755	949.90100
30.40755	1052.78491
30.42755	1167.27185
30.44755	1326.24304
30.46754	1451.07495
30.48754	1463.49097
30.50754	1488.62598
30.52754	1516.18396
30.54754	1420.84509
30.56753	1259.61694
30.58754	1106.98901
30.60753	995.21802
30.62753	857.42804
30.64753	749.54797
30.66753	664.15894
30.68753	665.41803
30.70753	587.98102
30.72753	599.49207
30.74752	588.80200
30.76752	589.06500
30.78752	614.51501
30.80752	604.60400
30.82752	572.58002
30.84752	642.91003
30.86752	652.37000
30.88751	629.82898
30.90751	630.82898
30.92751	627.04999
30.94751	657.14795
30.96751	625.92804
30.98751	641.84699
31.00750	602.47101
31.02750	602.31403
31.04750	544.55896
31.06750	566.05402
31.08750	598.84894
31.10750	596.67297
31.12750	586.70801
31.14749	601.75500
31.16749	618.63403
31.18749	630.94403
31.20749	658.90405
31.22749	661.83704
31.24749	650.39703
31.26749	669.58899
31.28749	679.89703
31.30748	645.45001
31.32748	624.20099
31.34748	611.91406
31.36748	601.16199
31.38748	603.01404
31.40748	621.72705
31.42747	618.18597
31.44747	668.32898
31.46747	709.00201
31.48747	800.81598
31.50747	860.54700
31.52747	972.80200
31.54747	1070.48596
31.56746	1249.33411
31.58746	1337.22192
31.60746	1494.08301
31.62746	1605.11694
31.64746	1709.96106
31.66746	1787.68799
31.68745	1836.78589
31.70745	1813.06201
31.72745	1802.30908
31.74745	1758.36108
31.76745	1548.52698
31.78745	1322.40808
31.80745	1193.17590
31.82745	1081.98901
31.84745	945.32300
31.86744	835.29999
31.88744	739.37097
31.90744	736.01801
31.92744	723.91803
31.94744	660.72900
31.96743	737.88800
31.98743	707.31500
32.00744	654.50598
32.02743	614.31702
32.04742	609.59601
32.06743	589.53998
32.08743	574.59503
32.10743	565.34998
32.12742	555.22101
32.14742	551.67297
32.16742	532.91406
32.18742	536.15997
32.20742	542.73004
32.22742	515.22601
32.24741	525.95404
32.26741	514.03900
32.28741	511.19900
32.30741	519.96503
32.32741	530.75800
32.34741	489.52499
32.36741	491.13800
32.38741	538.19000
32.40740	505.36600
32.42740	505.92398
32.44740	518.15894
32.46740	501.20502
32.48740	513.42206
32.50740	526.07001
32.52740	540.73901
32.54739	534.05701
32.56739	544.37000
32.58740	552.44202
32.60739	540.15997
32.62738	521.38599
32.64738	515.48407
32.66738	556.26202
32.68738	560.23505
32.70738	504.03500
32.72738	537.69098
32.74737	551.73505
32.76738	569.09406
32.78738	559.49902
32.80737	610.45703
32.82737	673.88202
32.84737	681.89801
32.86737	729.35498
32.88737	737.53101
32.90736	771.16699
32.92736	766.86896
32.94736	764.89801
32.96736	745.36096
32.98736	704.56201
33.00736	632.54297
33.02736	597.50299
33.04736	606.71405
33.06736	552.82098
33.08735	541.64795
33.10735	514.48303
33.12735	523.49506
33.14735	540.61700
33.16735	505.76602
33.18735	512.49902
33.20734	519.52801
33.22734	521.44299
33.24734	570.65198
33.26734	508.01202
33.28733	550.06000
33.30734	597.70801
33.32733	611.46301
33.34733	580.67499
33.36733	593.89502
33.38733	626.12799
33.40733	665.08404
33.42732	690.84595
33.44732	672.31897
33.46732	676.69898
33.48732	645.57404
33.50732	611.44702
33.52732	594.24597
33.54732	620.45099
33.56732	599.29004
33.58732	626.65497
33.60731	626.81799
33.62731	594.74597
33.64731	606.22406
33.66731	586.60095
33.68731	604.89703
33.70730	640.78601
33.72730	661.33404
33.74730	766.17499
33.76730	762.73407
33.78730	802.47504
33.80730	854.60498
33.82729	858.15198
33.84729	842.05200
33.86729	825.58801
33.88729	830.33899
33.90729	742.87897
33.92729	650.08801
33.94729	640.18201
33.96728	576.87897
33.98729	580.27002
34.00729	510.63602
34.02728	503.42798
34.04728	529.44501
34.06728	483.64102
34.08728	441.81399
34.10727	434.10800
34.12727	440.27502
34.14727	446.29202
34.16727	457.39200
34.18727	462.80200
34.20727	465.15601
34.22726	468.15799
34.24726	460.48498
34.26726	450.39999
34.28726	458.08298
34.30726	463.38397
34.32726	470.40900
34.34726	449.49100
34.36726	455.16299
34.38726	454.04202
34.40725	501.16699
34.42725	478.61902
34.44725	479.35199
34.46725	517.32001
34.48724	495.17502
34.50724	489.97400
34.52725	510.38397
34.54724	497.65500
34.56724	497.86798
34.58724	482.37997
34.60724	476.97101
34.62723	497.04202
34.64723	496.64502
34.66723	494.73401
34.68723	483.49399
34.70723	491.31699
34.72723	522.25702
34.74722	506.25000
34.76722	550.20001
34.78722	566.36200
34.80722	535.25000
34.82722	583.76703
34.84722	637.37097
34.86721	604.00897
34.88721	642.24402
34.90721	607.29407
34.92721	655.11700
34.94721	646.20001
34.96721	663.57898
34.98721	673.18701
35.00721	659.43805
35.02721	637.42407
35.04720	603.96405
35.06720	566.92902
35.08720	544.58301
35.10720	526.04297
35.12719	517.44299
35.14719	504.54800
35.16719	468.38599
35.18719	440.50101
35.20719	435.95499
35.22719	480.73203
35.24719	477.47900
35.26718	451.88696
35.28718	470.78601
35.30718	488.76401
35.32718	478.48798
35.34718	467.58697
35.36718	491.74902
35.38718	552.28101
35.40717	554.10400
35.42717	571.08600
35.44717	597.36298
35.46717	597.43506
35.48717	595.57703
35.50716	631.60498
35.52716	654.29999
35.54716	690.88000
35.56716	702.64697
35.58716	699.23206
35.60716	698.21600
35.62716	634.67499
35.64716	606.95801
35.66715	600.37402
35.68715	570.42706
35.70715	574.37799
35.72715	546.42407
35.74715	567.61798
35.76714	510.89999
35.78714	477.84201
35.80714	467.99100
35.82714	464.29800
35.84714	469.28201
35.86714	499.67102
35.88714	464.21603
35.90713	469.60602
35.92713	475.38998
35.94713	497.63101
35.96713	527.70404
35.98713	541.19403
36.00713	620.04401
36.02713	629.75000
36.04713	632.43005
36.06712	651.63800
36.08712	709.97205
36.10712	649.56799
36.12711	615.53900
36.14711	618.71405
36.16711	612.67401
36.18711	551.88898
36.20711	525.08002
36.22711	510.21701
36.24711	510.77502
36.26711	507.42600
36.28710	535.04401
36.30710	551.67798
36.32710	563.36896
36.34710	589.98407
36.36710	639.45801
36.38710	632.81403
36.40709	634.92602
36.42709	621.18597
36.44709	577.92407
36.46709	554.71503
36.48709	521.62097
36.50708	550.20203
36.52708	541.86896
36.54709	503.60400
36.56708	486.79102
36.58708	457.12100
36.60708	472.33697
36.62707	527.25098
36.64708	506.27103
36.66708	538.51099
36.68707	529.53705
36.70707	505.76801
36.72707	535.65698
36.74706	569.83203
36.76706	575.27899
36.78706	573.95801
36.80706	571.59100
36.82706	580.27899
36.84706	616.85297
36.86706	622.32202
36.88706	614.95801
36.90705	616.27405
36.92705	624.13000
36.94705	586.09302
36.96705	571.14697
36.98705	565.73804
37.00705	563.13995
37.02705	593.17297
37.04705	555.32404
37.06704	584.17596
37.08704	567.48901
37.10704	546.37500
37.12703	536.66095
37.14703	542.59406
37.16703	522.51599
37.18703	516.06201
37.20703	494.72299
37.22703	466.29401
37.24703	456.93601
37.26702	466.10901
37.28702	472.19501
37.30702	496.81399
37.32702	488.51502
37.34702	533.70099
37.36702	563.95300
37.38702	585.17096
37.40701	626.13995
37.42701	646.69702
37.44701	624.83899
37.46701	648.99103
37.48701	628.37799
37.50701	594.09705
37.52701	560.91406
37.54700	555.36896
37.56700	558.57098
37.58700	555.76099
37.60699	529.42804
37.62700	539.30896
37.64700	602.63202
37.66699	665.14697
37.68699	673.38300
37.70699	708.82098
37.72699	705.61401
37.74699	722.00098
37.76698	724.69000
37.78698	623.51501
37.80698	595.91504
37.82698	586.21503
37.84698	547.53302
37.86698	566.99207
37.88698	578.43805
37.90697	540.66400
37.92697	537.98706
37.94697	513.83099
37.96697	503.67401
37.98696	540.44202
38.00697	578.91901
38.02696	605.78204
38.04696	621.93903
38.06696	658.32898
38.08696	678.09406
38.10696	641.45404
38.12695	616.73505
38.14695	605.06598
38.16695	646.29706
38.18695	578.28204
38.20694	558.88501
38.22694	581.94898
38.24694	555.19098
38.26694	574.00000
38.28694	538.32202
38.30694	522.54297
38.32694	514.07800
38.34694	493.44000
38.36694	500.32199
38.38693	502.16000
38.40693	498.72800
38.42693	497.64102
38.44693	465.77402
38.46693	466.90399
38.48692	461.08499
38.50692	425.07602
38.52692	424.44900
38.54692	447.53900
38.56692	446.46600
38.58692	452.27301
38.60691	485.54999
38.62691	467.83600
38.64691	494.99298
38.66691	580.08899
38.68691	625.04297
38.70690	680.42407
38.72690	714.41406
38.74690	706.21704
38.76690	765.57501
38.78690	728.48004
38.80690	656.22406
38.82690	609.99005
38.84689	593.27100
38.86689	549.98102
38.88689	496.22201
38.90689	469.91202
38.92689	444.02298
38.94688	429.27902
38.96688	409.23401
38.98689	383.84601
39.00688	381.00900
39.02688	434.47000
39.04688	380.15299
39.06688	370.35498
39.08688	400.37100
39.10687	421.09900
39.12687	377.41998
39.14687	352.17300
39.16687	391.69900
39.18687	370.89200
39.20686	401.56500
39.22686	372.34399
39.24686	393.17999
39.26686	398.29901
39.28686	376.76102
39.30685	413.97998
39.32686	394.48297
39.34685	401.40399
39.36685	392.40399
39.38685	368.22800
39.40684	364.12601
39.42685	395.27203
39.44685	364.97699
39.46684	392.86697
39.48684	358.20401
39.50684	395.98297
39.52684	410.39899
39.54684	392.37997
39.56684	364.79901
39.58683	350.64603
39.60683	397.11502
39.62683	379.73001
39.64683	384.52100
39.66683	394.66800
39.68682	442.67902
39.70682	427.07202
39.72682	433.94699
39.74682	436.59799
39.76682	449.05698
39.78682	492.01502
39.80681	549.96899
39.82681	639.58203
39.84681	695.34796
39.86681	802.15497
39.88681	907.31201
39.90680	998.78204
39.92680	1141.71301
39.94680	1215.98694
39.96680	1296.27295
39.98680	1269.71191
40.00680	1210.47693
40.02680	1201.71094
40.04680	1058.04199
40.06679	914.52502
40.08679	781.52704
40.10679	763.82501
40.12678	697.38300
40.14678	602.04096
40.16678	563.62402
40.18678	525.80896
40.20678	479.29001
40.22678	488.38199
40.24678	501.63300
40.26677	478.64002
40.28677	491.42999
40.30677	484.82098
40.32677	443.35599
40.34677	471.06900
40.36677	438.59900
40.38676	448.02799
40.40676	467.02298
40.42676	505.62299
40.44676	431.58200
40.46676	431.79800
40.48676	434.58398
40.50676	436.47000
40.52676	458.39697
40.54675	486.71301
40.56675	497.28400
40.58675	512.39703
40.60674	495.46201
40.62674	509.59299
40.64674	492.34601
40.66674	487.96201
40.68674	480.64401
40.70673	438.24002
40.72673	424.93799
40.74674	417.20602
40.76673	413.96799
40.78673	373.99899
40.80673	404.83499
40.82673	393.65900
40.84672	384.74103
40.86673	388.03400
40.88672	408.46799
40.90672	389.20203
40.92672	418.31900
40.94672	413.61902
40.96672	392.62201
40.98671	428.52499
41.00671	449.61401
41.02671	473.95898
41.04671	493.73502
41.06671	497.17001
41.08671	479.74103
41.10670	500.58798
41.12670	519.17096
41.14670	495.72900
41.16670	503.27402
41.18670	567.29602
41.20669	480.03299
41.22669	445.37997
41.24669	482.67999
41.26669	419.42297
41.28669	401.75800
41.30669	409.44998
41.32668	380.76401
41.34668	415.77002
41.36668	398.83298
41.38668	382.01401
41.40668	395.22601
41.42667	402.74503
41.44667	400.00101
41.46667	393.45999
41.48667	381.54700
41.50667	398.37399
41.52667	390.77902
41.54666	374.58200
41.56667	361.35199
41.58666	389.52600
41.60666	391.33798
41.62666	430.72800
41.64666	471.58398
41.66665	500.16501
41.68665	465.73102
41.70665	485.58899
41.72665	484.63800
41.74664	492.96399
41.76664	484.14999
41.78664	433.69000
41.80664	435.75101
41.82664	459.77502
41.84664	480.52499
41.86664	471.39099
41.88664	457.69299
41.90663	446.11902
41.92663	487.86697
41.94663	505.48199
41.96663	510.67001
41.98663	498.04001
42.00663	491.34500
42.02662	456.97501
42.04662	435.57300
42.06662	467.62799
42.08662	443.83697
42.10662	436.92297
42.12661	453.12000
42.14661	441.24701
42.16661	457.99799
42.18661	462.42499
42.20660	472.16299
42.22660	507.96298
42.24660	528.65997
42.26660	551.33002
42.28660	541.32098
42.30660	548.34094
42.32660	593.63202
42.34659	586.89301
42.36659	579.91803
42.38659	572.27502
42.40659	567.82703
42.42659	538.05597
42.44658	507.44101
42.46658	482.76001
42.48658	523.33899
42.50658	516.50598
42.52658	446.84699
42.54658	423.79401
42.56658	436.48099
42.58658	430.07202
42.60657	408.81699
42.62657	413.24103
42.64657	409.65698
42.66656	409.42600
42.68657	393.14401
42.70656	393.50201
42.72656	425.76401
42.74656	418.48898
42.76656	383.18399
42.78656	391.06699
42.80655	396.26901
42.82655	397.07700
42.84655	382.26102
42.86655	403.68201
42.88655	437.15399
42.90654	416.60602
42.92654	455.99698
42.94654	479.84500
42.96654	527.09406
42.98654	596.72601
43.00654	570.74200
43.02653	576.26898
43.04653	592.32599
43.06653	575.15796
43.08653	554.23706
43.10652	554.09100
43.12653	545.12598
43.14652	492.56201
43.16652	500.52200
43.18652	481.73502
43.20652	425.21603
43.22652	411.44101
43.24651	423.79001
43.26651	435.44699
43.28651	365.01401
43.30651	430.23602
43.32651	396.12299
43.34650	420.16000
43.36650	380.29501
43.38650	403.41800
43.40650	395.09601
43.42650	391.40201
43.44649	377.45398
43.46650	406.99200
43.48649	392.66901
43.50649	400.14301
43.52649	404.18899
43.54649	419.94900
43.56649	416.45398
43.58649	395.21802
43.60648	377.27801
43.62648	385.25101
43.64648	374.55798
43.66648	356.83200
43.68648	368.35199
43.70647	369.83398
43.72647	337.40799
43.74647	346.70102
43.76646	365.15698
43.78646	355.54800
43.80647	381.91602
43.82646	368.94101
43.84646	334.64203
43.86646	356.53299
43.88646	338.70700
43.90646	342.00000
43.92645	339.35498
43.94645	350.02600
43.96645	359.90201
43.98645	355.89697
44.00645	363.77203
44.02644	359.60202
44.04644	354.77301
44.06644	341.16800
44.08644	328.11102
44.10644	331.64801
44.12643	342.87100
44.14643	329.24902
44.16643	325.62100
44.18643	310.96500
44.20643	325.47800
44.22642	311.67700
44.24642	321.87100
44.26642	316.42200
44.28642	326.01999
44.30642	304.91101
44.32642	304.24503
44.34642	327.84201
44.36642	333.41299
44.38641	339.86398
44.40641	359.78000
44.42640	357.61102
44.44640	338.72601
44.46640	345.55499
44.48640	374.68601
44.50640	379.48999
44.52640	372.38696
44.54640	361.69601
44.56640	362.81299
44.58640	360.43899
44.60639	366.40100
44.62639	348.19699
44.64639	384.56201
44.66639	344.21603
44.68638	359.28500
44.70638	386.25000
44.72638	405.63800
44.74638	403.12601
44.76638	415.09799
44.78637	424.90900
44.80637	454.43298
44.82637	449.94900
44.84637	436.47900
44.86637	434.30298
44.88636	442.03299
44.90636	440.28299
44.92636	468.16501
44.94636	464.66101
44.96636	422.70502
44.98636	392.21301
45.00635	385.80600
45.02636	376.44998
45.04635	353.27701
45.06635	430.51999
45.08635	419.70102
45.10635	411.64502
45.12634	380.46799
45.14634	369.51001
45.16634	373.38397
45.18634	375.36697
45.20633	381.73801
45.22633	385.20801
45.24633	351.93500
45.26633	349.81101
45.28633	357.28101
45.30633	364.16501
45.32633	359.22000
45.34633	395.19800
45.36632	362.40500
45.38632	397.59900
45.40631	424.08200
45.42632	421.63202
45.44631	410.91602
45.46631	406.41400
45.48631	413.37799
45.50631	402.94900
45.52631	426.82398
45.54631	396.86600
45.56631	401.02100
45.58630	406.44998
45.60630	417.53299
45.62630	408.35797
45.64629	462.60602
45.66629	460.54700
45.68629	460.87997
45.70629	476.21204
45.72629	476.26700
45.74628	476.79602
45.76629	474.50299
45.78628	470.31000
45.80628	456.43399
45.82628	445.72699
45.84627	436.18799
45.86628	400.95697
45.88627	403.39899
45.90627	392.94501
45.92627	366.11700
45.94627	359.44699
45.96627	367.92099
45.98626	347.33697
46.00626	338.28799
46.02626	337.00601
46.04626	315.50101
46.06626	320.17502
46.08625	316.20801
46.10625	305.45697
46.12625	305.61102
46.14625	331.30298
46.16625	336.05399
46.18624	330.47699
46.20624	331.35098
46.22624	329.87799
46.24624	321.05499
46.26624	308.21802
46.28624	307.73901
46.30624	285.99899
46.32623	306.29001
46.34623	327.40100
46.36623	302.45099
46.38623	323.57400
46.40622	320.65799
46.42622	322.37997
46.44622	309.02399
46.46622	308.04001
46.48622	293.38498
46.50622	306.75800
46.52622	323.80499
46.54621	331.23300
46.56621	354.26202
46.58621	342.02100
46.60621	342.23300
46.62620	340.44202
46.64620	333.44900
46.66620	332.12201
46.68620	364.04501
46.70620	328.52200
46.72619	323.05298
46.74619	342.93698
46.76619	330.08697
46.78619	333.81500
46.80619	339.13602
46.82618	343.23401
46.84618	348.73401
46.86618	361.76401
46.88618	362.74402
46.90618	364.24402
46.92617	366.94601
46.94617	373.23300
46.96617	356.02499
46.98617	358.72900
47.00617	393.76502
47.02617	376.81500
47.04617	376.51502
47.06616	380.64603
47.08616	357.02698
47.10616	321.00900
47.12616	322.69000
47.14616	324.14203
47.16615	325.21002
47.18615	320.98099
47.20615	333.46100
47.22615	312.50500
47.24615	330.83298
47.26614	343.21002
47.28614	351.30200
47.30614	343.37799
47.32614	364.79202
47.34613	334.65201
47.36613	344.12500
47.38614	343.15601
47.40613	352.42099
47.42613	329.55200
47.44613	314.42798
47.46612	319.57300
47.48613	354.86398
47.50612	349.20401
47.52612	344.14102
47.54612	380.19601
47.56612	383.14301
47.58611	415.09900
47.60611	397.67502
47.62611	386.39499
47.64611	399.08499
47.66611	405.09000
47.68610	364.23203
47.70610	361.41202
47.72610	375.69000
47.74610	372.50000
47.76610	387.30899
47.78610	367.02298
47.80609	334.66400
47.82609	332.94501
47.84609	340.97501
47.86609	337.74802
47.88609	342.83499
47.90608	336.18399
47.92608	324.07300
47.94608	325.79999
47.96608	339.54501
47.98608	342.42297
48.00608	358.16299
48.02607	326.14603
48.04607	324.71503
48.06607	361.71204
48.08607	367.55798
48.10606	337.66299
48.12606	369.69601
48.14606	371.81998
48.16606	393.90698
48.18606	359.25500
48.20605	349.16901
48.22605	361.53500
48.24605	350.34601
48.26605	337.60101
48.28605	339.96500
48.30604	317.65601
48.32604	320.94400
48.34604	324.29901
48.36604	326.01102
48.38604	320.53799
48.40603	327.50299
48.42603	322.36398
48.44603	319.79300
48.46603	299.66299
48.48603	310.22000
48.50603	315.70602
48.52603	306.33298
48.54602	321.59799
48.56602	332.24802
48.58602	353.28299
48.60601	359.34500
48.62601	356.39099
48.64601	353.41202
48.66601	371.19601
48.68601	379.20203
48.70600	365.58600
48.72600	351.59500
48.74600	355.96100
48.76600	380.96600
48.78600	359.13501
48.80600	374.31299
48.82599	380.23102
48.84599	338.33200
48.86599	365.89600
48.88599	362.98199
48.90599	394.85898
48.92598	363.32199
48.94598	359.60699
48.96598	349.46799
48.98598	344.17001
49.00598	341.42600
49.02598	361.62100
49.04597	362.05698
49.06597	356.08298
49.08597	342.14999
49.10596	334.90601
49.12597	342.88199
49.14596	333.23102
49.16596	316.24402
49.18596	323.49600
49.20596	322.31998
49.22596	333.00101
49.24595	328.96500
49.26595	336.57901
49.28595	272.61301
49.30595	305.82999
49.32594	275.11102
49.34594	286.03799
49.36594	282.03400
49.38594	282.64401
49.40594	307.37399
49.42593	297.08899
49.44593	302.48297
49.46593	285.94900
49.48593	282.12000
49.50593	278.84000
49.52593	270.97800
49.54593	276.44900
49.56593	298.00000
49.58592	295.61801
49.60592	279.31998
49.62592	268.14603
49.64592	280.82398
49.66591	291.23502
49.68591	269.14401
49.70591	305.54800
49.72591	313.38498
49.74590	299.54901
49.76590	291.64301
49.78590	295.15698
49.80590	311.10101
49.82590	301.80499
49.84589	328.89499
49.86589	320.39697
49.88589	287.03900
49.90589	292.85696
49.92588	300.44202
49.94588	301.06299
49.96589	313.88797
49.98588	288.04901
50.00588	298.82199
50.02588	291.04800
50.04588	310.82498
50.06588	328.80698
50.08588	321.61902
50.10587	314.31799
50.12587	342.99399
50.14587	343.33099
50.16586	367.54202
50.18586	405.44299
50.20586	376.29001
50.22586	404.87799
50.24585	417.84201
50.26585	421.71603
50.28585	400.03500
50.30585	405.76001
50.32585	406.29501
50.34585	383.08200
50.36585	374.94501
50.38584	367.35998
50.40584	366.37500
50.42583	348.60001
50.44584	347.78699
50.46584	338.05899
50.48583	347.47501
50.50583	309.93899
50.52583	340.59000
50.54583	329.39798
50.56583	337.16699
50.58583	371.19400
50.60582	348.77801
50.62582	336.12100
50.64582	315.05399
50.66581	320.45200
50.68581	312.25101
50.70581	305.01999
50.72581	290.18601
50.74580	303.62399
50.76580	301.40799
50.78580	280.31201
50.80580	284.63300
50.82580	287.23700
50.84580	276.68399
50.86580	299.47299
50.88579	312.90100
50.90579	292.81299
50.92578	303.90601
50.94579	319.09699
50.96578	298.80899
50.98578	301.96799
51.00578	309.98898
51.02578	313.30600
51.04578	306.89798
51.06578	315.12900
51.08578	341.53000
51.10577	317.86200
51.12577	313.52499
51.14576	313.60800
51.16576	288.33298
51.18576	279.51502
51.20576	292.62000
51.22576	309.47800
51.24575	303.41602
51.26575	299.65299
51.28575	294.29700
51.30575	304.05899
51.32575	275.54501
51.34575	294.08499
51.36575	277.50699
51.38575	281.16000
51.40574	280.51801
51.42574	288.01801
51.44574	320.62500
51.46573	312.43698
51.48573	268.53201
51.50573	275.03299
51.52573	256.22000
51.54573	294.91901
51.56573	324.38199
51.58573	304.27301
51.60572	331.30200
51.62572	338.50800
51.64572	325.05200
51.66572	328.83899
51.68571	318.19501
51.70571	311.90601
51.72570	306.22000
51.74571	291.77301
51.76570	309.71204
51.78570	283.74802
51.80570	286.28500
51.82570	323.97699
51.84570	280.99298
51.86570	274.68399
51.88570	274.46399
51.90569	257.08499
51.92569	254.76799
51.94569	237.95799
51.96568	264.40299
51.98568	251.79300
52.00568	246.82201
52.02568	248.03000
52.04568	243.87001
52.06568	254.88001
52.08567	255.19600
52.10567	276.09201
52.12567	301.15500
52.14567	292.20502
52.16566	293.75500
52.18567	256.78601
52.20566	283.86298
52.22566	285.90601
52.24565	257.36697
52.26565	271.78799
52.28565	290.56299
52.30565	293.05399
52.32565	260.73700
52.34565	286.10602
52.36565	290.75601
52.38564	301.70401
52.40564	294.35098
52.42564	307.90500
52.44564	290.22000
52.46564	341.79300
52.48563	360.40100
52.50563	385.22000
52.52563	389.26401
52.54563	371.36600
52.56562	372.48697
52.58563	377.01001
52.60562	358.48697
52.62562	368.55100
52.64561	337.23801
52.66562	343.79202
52.68562	305.00500
52.70561	331.56201
52.72561	333.84500
52.74560	331.89398
52.76561	311.38297
52.78560	322.61203
52.80560	321.35297
52.82560	307.23401
52.84560	288.04300
52.86559	287.80600
52.88559	283.98099
52.90559	284.82098
52.92559	289.01602
52.94559	273.74701
52.96558	272.76901
52.98558	270.10101
53.00558	294.48599
53.02558	282.36499
53.04558	269.81500
53.06558	273.96298
53.08557	288.87601
53.10557	310.76001
53.12557	290.75699
53.14556	298.85498
53.16556	302.23401
53.18556	314.55200
53.20555	310.95798
53.22555	275.45099
53.24556	293.20602
53.26555	288.08798
53.28555	299.09699
53.30555	304.66602
53.32555	294.02200
53.34554	284.61002
53.36554	277.35998
53.38554	268.50400
53.40554	281.79999
53.42553	272.09299
53.44553	282.53299
53.46553	287.41998
53.48553	307.70401
53.50553	277.15299
53.52553	295.63202
53.54553	296.10202
53.56553	266.36398
53.58553	284.69900
53.60552	280.06500
53.62552	278.66501
53.64551	254.38001
53.66551	279.21503
53.68551	298.87201
53.70551	307.03101
53.72550	304.41400
53.74550	273.29300
53.76550	245.46199
53.78550	263.21701
53.80550	260.71503
53.82550	259.26700
53.84550	259.89499
53.86549	247.93700
53.88549	237.04300
53.90548	270.49500
53.92548	248.45999
53.94548	273.91000
53.96548	281.06699
53.98548	288.40601
54.00548	272.26901
54.02548	264.12100
54.04548	279.47400
54.06547	257.23300
54.08547	282.36099
54.10547	291.90799
54.12546	287.89499
54.14547	278.81101
54.16546	270.96298
54.18546	251.92400
54.20545	269.67300
54.22545	265.20300
54.24545	246.66501
54.26545	249.57501
54.28545	247.21300
54.30545	254.74699
54.32544	268.09601
54.34544	254.25501
54.36544	270.45798
54.38544	285.36398
54.40543	225.49799
54.42543	253.81700
54.44543	248.50000
54.46543	241.89999
54.48542	250.51700
54.50542	256.28601
54.52542	236.82501
54.54542	249.78700
54.56542	245.13901
54.58542	255.65401
54.60542	258.12201
54.62541	267.35297
54.64541	287.77701
54.66541	295.66602
54.68541	277.34998
54.70540	274.82098
54.72540	277.25201
54.74540	278.93298
54.76540	254.19200
54.78539	244.95100
54.80539	262.61401
54.82539	273.31000
54.84539	252.45700
54.86539	232.92999
54.88539	255.69900
54.90538	244.60200
54.92538	252.24300
54.94538	256.87900
54.96538	251.76399
54.98538	249.23900
55.00538	247.07800
55.02537	243.92799
55.04537	247.69200
55.06537	272.00299
55.08537	266.67401
55.10536	250.61800
55.12536	266.68298
55.14536	278.34299
55.16536	270.96500
55.18536	267.13202
55.20535	261.71701
55.22535	272.11502
55.24535	258.66000
55.26535	248.21799
55.28534	249.53400
55.30534	273.67602
55.32534	278.66299
55.34534	263.98498
55.36533	265.82199
55.38533	258.29001
55.40533	253.48900
55.42533	258.70902
55.44533	266.50601
55.46532	252.62601
55.48533	241.47900
55.50532	251.06900
55.52532	241.69600
55.54532	244.35101
55.56532	249.09100
55.58532	251.48300
55.60531	238.23399
55.62531	221.19900
55.64531	247.66901
55.66530	228.60501
55.68530	240.74699
55.70530	241.99399
55.72530	217.87601
55.74529	233.74199
55.76529	233.13600
55.78529	266.11301
55.80529	249.20599
55.82529	228.01399
55.84529	241.82501
55.86528	250.40900
55.88528	268.51901
55.90528	287.46799
55.92528	279.19299
55.94527	271.39499
55.96527	247.88901
55.98527	275.44998
56.00527	292.59399
56.02526	276.22400
56.04527	279.44000
56.06526	243.04900
56.08526	282.01300
56.10526	250.39300
56.12526	240.74399
56.14526	257.44202
56.16525	230.08900
56.18525	244.92500
56.20525	232.39999
56.22525	225.65701
56.24524	238.59799
56.26524	247.77200
56.28524	271.15100
56.30524	252.78500
56.32523	239.68301
56.34523	251.90700
56.36523	254.50101
56.38523	258.26202
56.40522	265.22501
56.42522	252.10001
56.44522	249.67401
56.46522	244.82101
56.48522	268.06201
56.50522	263.64002
56.52522	245.97800
56.54521	246.33900
56.56521	261.11102
56.58521	265.87201
56.60520	245.51500
56.62520	251.73700
56.64520	246.30701
56.66520	240.07800
56.68520	258.46600
56.70519	268.91202
56.72519	259.99500
56.74519	234.33101
56.76519	252.72400
56.78519	263.65698
56.80518	252.35200
56.82518	268.69800
56.84518	244.95999
56.86518	215.62601
56.88517	273.78000
56.90517	236.03900
56.92517	247.20799
56.94517	254.98799
56.96516	250.53700
56.98517	258.89798
57.00516	254.73100
57.02516	255.05800
57.04516	257.38098
57.06516	266.67401
57.08516	268.04001
57.10515	255.40900
57.12515	271.36697
57.14515	274.39297
57.16514	281.84000
57.18514	294.31201
57.20513	315.00299
57.22514	311.68601
57.24513	284.64902
57.26513	299.13202
57.28513	302.25800
57.30513	277.70001
57.32513	297.04202
57.34513	316.24402
57.36512	310.22299
57.38512	300.23001
57.40512	305.08200
57.42512	286.68899
57.44512	303.17102
57.46511	309.06500
57.48511	292.44299
57.50511	279.09601
57.52511	287.76001
57.54510	285.85797
57.56511	277.99799
57.58510	257.43201
57.60510	261.31900
57.62510	256.59900
57.64510	269.18100
57.66509	262.94299
57.68509	258.42499
57.70509	259.37299
57.72509	260.58200
57.74508	227.28999
57.76508	273.99200
57.78508	259.57700
57.80508	272.40500
57.82507	252.17601
57.84507	245.96500
57.86507	259.53601
57.88507	224.85600
57.90506	225.28000
57.92506	217.26199
57.94506	251.72200
57.96506	267.82297
57.98506	243.90799
58.00505	229.01199
58.02506	247.33900
58.04505	239.04900
58.06505	236.26399
58.08505	246.92400
58.10504	262.75000
58.12504	251.79199
58.14504	239.62201
58.16504	273.18899
58.18504	251.87401
58.20503	265.39398
58.22503	237.43799
58.24503	284.21701
58.26503	249.86400
58.28502	260.39600
58.30502	262.55298
58.32502	249.07001
58.34502	254.07001
58.36502	273.79102
58.38502	241.44699
58.40501	222.85001
58.42501	241.02800
58.44500	222.73300
58.46500	223.28000
58.48500	224.81599
58.50500	232.63701
58.52500	214.96599
58.54500	247.42600
58.56500	245.31300
58.58499	213.10701
58.60499	233.48500
58.62499	254.45999
58.64498	235.07701
58.66499	230.00000
58.68498	212.20999
58.70498	223.03500
58.72498	239.31400
58.74497	239.38501
58.76497	218.70500
58.78497	211.54399
58.80497	215.81599
58.82497	223.59900
58.84496	242.42000
58.86496	237.51199
58.88496	234.72301
58.90496	222.17102
58.92495	228.92799
58.94495	226.21599
58.96495	230.98799
58.98495	224.75000
59.00495	211.62901
59.02495	223.84300
59.04494	229.92300
59.06494	222.32201
59.08494	222.57101
59.10493	238.74399
59.12493	254.01500
59.14493	227.81799
59.16493	243.55800
59.18493	234.49599
59.20492	216.68901
59.22492	247.75400
59.24492	260.19501
59.26492	237.91199
59.28492	220.04199
59.30492	219.30901
59.32491	231.04300
59.34491	225.28400
59.36491	213.95000
59.38490	211.94899
59.40490	215.52200
59.42490	228.84100
59.44490	224.48000
59.46489	233.66200
59.48489	253.05000
59.50489	212.98900
59.52489	224.98200
59.54489	199.55800
59.56489	209.11301
59.58488	228.12302
59.60488	211.91199
59.62488	219.05600
59.64488	215.72501
59.66488	232.84700
59.68487	231.90900
59.70487	236.60301
59.72487	236.18600
59.74486	254.17502
59.76486	250.94499
59.78486	228.29599
59.80486	225.48500
59.82486	210.34599
59.84486	234.35800
59.86485	246.87501
59.88485	210.22200
59.90485	234.00000
59.92485	204.00800
59.94484	256.45499
59.96484	279.66202
59.98484	259.98099
60.00484	234.15601
60.02484	241.51799
60.04483	255.14600
60.06483	236.14700
60.08483	236.60800
60.10482	243.17001
60.12482	235.35501
60.14482	219.48399
60.16482	234.60701
60.18482	234.97301
60.20481	231.31300
60.22481	231.15001
60.24481	226.68401
60.26481	227.71199
60.28480	206.15801
60.30481	221.52200
60.32480	220.61301
60.34480	253.06100
60.36480	212.83200
60.38480	223.10001
60.40479	225.68701
60.42479	227.48599
60.44479	228.49499
60.46479	223.15901
60.48478	223.41299
60.50478	226.15501
60.52478	229.09399
60.54478	247.64800
60.56478	256.60101
60.58477	240.46699
60.60477	251.96899
60.62477	242.44099
60.64477	235.39400
60.66476	212.29500
60.68476	226.06300
60.70476	226.11700
60.72475	204.14500
60.74475	205.25301
60.76475	249.20999
60.78475	229.73200
60.80475	257.89099
60.82475	217.50800
60.84475	221.97900
60.86474	238.94598
60.88474	215.92600
60.90474	231.99699
60.92473	234.72301
60.94473	221.50700
60.96473	202.24399
60.98473	205.47400
61.00473	231.64700
61.02473	224.89200
61.04472	205.32701
61.06472	242.34199
61.08472	248.91399
61.10471	243.31000
61.12471	225.58301
61.14471	236.28799
61.16471	214.83301
61.18471	230.79199
61.20470	253.22900
61.22470	245.04799
61.24470	259.58499
61.26470	239.21300
61.28469	225.66501
61.30469	239.74199
61.32469	240.47101
61.34469	237.97400
61.36469	247.14500
61.38469	237.37701
61.40468	223.40500
61.42468	203.55501
61.44467	219.49100
61.46467	225.50301
61.48467	222.77101
61.50467	220.34300
61.52467	244.99899
61.54467	205.10800
61.56467	229.65302
61.58466	213.08400
61.60466	229.31500
61.62466	228.80301
61.64465	245.04799
61.66465	232.45100
61.68465	208.15102
61.70465	220.17902
61.72464	233.89400
61.74464	226.66400
61.76464	202.43799
61.78464	199.84599
61.80463	194.60400
61.82464	195.04700
61.84463	200.61200
61.86463	215.56200
61.88463	220.19400
61.90463	212.30600
61.92462	211.88101
61.94462	224.22900
61.96462	219.49899
61.98461	220.96100
62.00462	217.23300
62.02461	229.13301
62.04461	236.34700
62.06461	187.82201
62.08461	214.14800
62.10460	203.77701
62.12460	187.66000
62.14460	215.05101
62.16460	199.53999
62.18459	208.75700
62.20459	230.33200
62.22459	228.07901
62.24458	236.58101
62.26458	225.58501
62.28458	209.98900
62.30458	208.06599
62.32458	211.81100
62.34458	206.46300
62.36457	186.40799
62.38457	201.97501
62.40457	227.71500
62.42457	239.92999
62.44456	219.05701
62.46457	225.41100
62.48456	209.77901
62.50456	216.91299
62.52455	219.94299
62.54455	224.16800
62.56455	215.25400
62.58455	215.13901
62.60455	214.36200
62.62454	207.62701
62.64454	223.49300
62.66454	232.53400
62.68454	229.70799
62.70453	219.59199
62.72453	201.08900
62.74453	209.41899
62.76453	230.55600
62.78453	238.09599
62.80452	203.26399
62.82452	231.03000
62.84452	222.04399
62.86452	222.39500
62.88451	241.92999
62.90451	224.00101
62.92451	219.25600
62.94451	215.22800
62.96450	213.99699
62.98450	208.34199
63.00450	204.25600
63.02450	203.91798
63.04450	215.28600
63.06450	228.82901
63.08450	219.21699
63.10449	217.09100
63.12449	235.83501
63.14449	224.88400
63.16449	226.44499
63.18448	218.51399
63.20448	209.72000
63.22447	213.16600
63.24447	227.72900
63.26447	235.01900
63.28447	236.80501
63.30447	259.36099
63.32446	251.10001
63.34446	220.92101
63.36446	242.28999
63.38446	228.03500
63.40445	225.66101
63.42445	213.69101
63.44445	211.37601
63.46445	220.22900
63.48445	227.83600
63.50444	238.11000
63.52445	242.84199
63.54444	235.94798
63.56444	218.29599
63.58444	218.13001
63.60443	213.98000
63.62443	226.39900
63.64443	216.59700
63.66443	221.99300
63.68442	225.74399
63.70442	225.42600
63.72442	243.69101
63.74441	263.88098
63.76441	232.27301
63.78441	222.33400
63.80441	230.97600
63.82441	253.56900
63.84441	240.01199
63.86441	235.56100
63.88440	239.86600
63.90440	221.31900
63.92440	217.60600
63.94439	217.76000
63.96439	209.88200
63.98439	211.25301
64.00439	238.16000
64.02438	240.72700
64.04438	235.87302
64.06438	248.14500
64.08438	229.31200
64.10437	219.00800
64.12437	214.87102
64.14437	209.93399
64.16437	224.01300
64.18436	210.44798
64.20436	207.30701
64.22436	211.33900
64.24436	182.27000
64.26435	196.57501
64.28436	210.59500
64.30435	216.73999
64.32434	223.75900
64.34435	233.00200
64.36434	226.88101
64.38435	216.07600
64.40434	220.53500
64.42434	205.90300
64.44434	196.89999
64.46434	216.24399
64.48434	234.31700
64.50433	203.55200
64.52433	205.11400
64.54433	198.64101
64.56432	197.54100
64.58432	223.83101
64.60432	227.93199
64.62431	198.14700
64.64431	222.29799
64.66431	211.90399
64.68430	207.81700
64.70430	200.99199
64.72430	199.50301
64.74430	200.58000
64.76429	213.15801
64.78429	213.73599
64.80429	210.48999
64.82429	204.19200
64.84428	197.91100
64.86428	206.42400
64.88429	205.96399
64.90428	215.50301
64.92428	225.72501
64.94428	218.18301
64.96428	221.45500
64.98428	216.95399
65.00427	195.82600
65.02427	217.15001
65.04427	224.51700
65.06426	175.23900
65.08427	206.29700
65.10426	208.12201
65.12425	211.74300
65.14426	200.51799
65.16425	206.03500
65.18426	212.44099
65.20425	210.52200
65.22424	230.70799
65.24425	244.00501
65.26424	224.03500
65.28424	213.26399
65.30424	205.68800
65.32423	201.89800
65.34422	222.46599
65.36422	226.27101
65.38422	203.85101
65.40422	216.88101
65.42422	197.42999
65.44422	220.69900
65.46422	214.45000
65.48422	209.42900
65.50421	202.94499
65.52421	217.69301
65.54421	223.25301
65.56420	226.78600
65.58421	208.24599
65.60420	212.58600
65.62419	222.61200
65.64420	207.28999
65.66419	214.37601
65.68420	241.64900
65.70418	237.85001
65.72418	231.89999
65.74419	220.85600
65.76417	219.01000
65.78418	228.59000
65.80418	197.66200
65.82417	228.32201
65.84417	218.42600
65.86417	195.58400
65.88417	197.76300
65.90417	193.23799
65.92416	190.42000
65.94417	217.52701
65.96416	195.43999
65.98416	197.16101
66.00416	192.64200
66.02415	197.41699
66.04415	212.66501
66.06415	209.62102
66.08415	187.76599
66.10415	205.45799
66.12414	211.32101
66.14414	201.02200
66.16413	207.03900
66.18413	196.87901
66.20412	200.01900
66.22412	192.94199
66.24412	189.48399
66.26411	195.59599
66.28412	182.23799
66.30411	194.37302
66.32410	207.87901
66.34411	171.14300
66.36410	179.25501
66.38411	205.69000
66.40411	217.76100
66.42410	210.49199
66.44411	200.18501
66.46410	188.97800
66.48410	187.25900
66.50410	203.50800
66.52409	223.74199
66.54409	202.02701
66.56409	187.22101
66.58409	202.75101
66.60409	177.49499
66.62408	219.74399
66.64408	192.52000
66.66408	179.79700
66.68407	219.76700
66.70407	212.27600
66.72407	192.50101
66.74407	178.64600
66.76406	192.76100
66.78406	194.50700
66.80406	208.12201
66.82405	212.60400
66.84405	196.88701
66.86405	189.75501
66.88406	178.23999
66.90405	191.39999
66.92405	199.51900
66.94405	190.44199
66.96404	199.80600
66.98405	196.50700
67.00404	193.39900
67.02403	188.93799
67.04403	168.41899
67.06403	200.50101
67.08403	193.64200
67.10402	213.93799
67.12402	191.31599
67.14402	181.88200
67.16402	194.87302
67.18401	207.36500
67.20401	221.67601
67.22401	202.77701
67.24400	182.88001
67.26400	167.28999
67.28400	171.67302
67.30400	201.81400
67.32399	203.04399
67.34399	197.69501
67.36399	204.74100
67.38399	200.33900
67.40399	185.75301
67.42399	197.03600
67.44399	197.59100
67.46398	183.94099
67.48399	193.30000
67.50398	197.55501
67.52397	211.82600
67.54398	186.89101
67.56397	203.10800
67.58397	182.76300
67.60397	212.03301
67.62396	181.35301
67.64397	191.28600
67.66396	170.29199
67.68396	194.85301
67.70396	209.78500
67.72395	216.31100
67.74395	203.34500
67.76395	191.04599
67.78395	172.85301
67.80394	187.83501
67.82394	195.87302
67.84394	197.07501
67.86393	217.31400
67.88393	220.33000
67.90393	196.19800
67.92393	193.73500
67.94392	198.39101
67.96392	219.06799
67.98392	212.42200
68.00391	188.28500
68.02391	209.85701
68.04391	207.30600
68.06391	207.00700
68.08391	226.38701
68.10390	209.82501
68.12390	207.14300
68.14390	202.19501
68.16389	199.39600
68.18390	195.55701
68.20390	197.73799
68.22388	191.26599
68.24389	183.21599
68.26389	195.62001
68.28388	194.58000
68.30388	213.33600
68.32388	217.20599
68.34387	213.64300
68.36387	222.99199
68.38387	227.32400
68.40388	224.85701
68.42387	201.89200
68.44387	197.46100
68.46387	208.99399
68.48386	185.62001
68.50386	186.28200
68.52386	197.05501
68.54386	213.79199
68.56385	222.85400
68.58385	204.97301
68.60385	197.25501
68.62384	194.02800
68.64384	194.04100
68.66384	184.66600
68.68385	200.46199
68.70383	182.37801
68.72383	203.79500
68.74384	211.78500
68.76382	188.27301
68.78382	204.05000
68.80382	175.35400
68.82381	180.66101
68.84381	226.31200
68.86381	181.81799
68.88381	198.40399
68.90381	186.54100
68.92381	180.94299
68.94381	181.83101
68.96380	186.77301
68.98380	192.44099
69.00380	201.85200
69.02380	203.73999
69.04379	192.06100
69.06379	193.34700
69.08379	208.20000
69.10378	208.76700
69.12378	195.87401
69.14378	190.80101
69.16377	201.02301
69.18378	202.12901
69.20377	195.99300
69.22377	205.58900
69.24377	218.37901
69.26376	199.56500
69.28377	202.64800
69.30376	211.98799
69.32375	198.71899
69.34376	193.67702
69.36375	185.82001
69.38375	188.23100
69.40376	191.66400
69.42375	185.83701
69.44375	189.75200
69.46375	189.15302
69.48375	176.76000
69.50374	182.95999
69.52374	205.46300
69.54374	201.96899
69.56374	188.40300
69.58373	185.02200
69.60373	179.72101
69.62373	187.38101
69.64372	185.18600
69.66372	184.03999
69.68372	179.72501
69.70372	193.32701
69.72370	196.59500
69.74371	191.52501
69.76370	188.01199
69.78370	174.01700
69.80370	170.28700
69.82369	199.89200
69.84369	204.49100
69.86369	193.89900
69.88369	198.44499
69.90369	197.22101
69.92368	177.59700
69.94369	194.64900
69.96368	180.70799
69.98368	180.39500
70.00368	188.98599
70.02367	206.60200
70.04367	206.08301
