3.00300	4057.00000
3.02000	3949.00000
3.03700	3957.00000
3.05400	3969.00000
3.07100	3954.00000
3.08800	3906.00000
3.10500	3927.00000
3.12200	3880.00000
3.13900	3908.00000
3.15600	3909.00000
3.17300	3878.00000
3.19000	3850.00000
3.20700	3792.00000
3.22400	3812.00000
3.24100	3815.00000
3.25800	3771.00000
3.27500	3756.00000
3.29200	3770.00000
3.30900	3816.00000
3.32600	3796.00000
3.34300	3776.00000
3.36000	3764.00000
3.37700	3737.00000
3.39400	3713.00000
3.41100	3741.00000
3.42800	3760.00000
3.44500	3785.00000
3.46200	3819.00000
3.47900	3861.00000
3.49600	3887.00000
3.51300	3872.00000
3.53000	3856.00000
3.54700	3778.00000
3.56400	3676.00000
3.58100	3588.00000
3.59800	3535.00000
3.61500	3446.00000
3.63200	3458.00000
3.64900	3433.00000
3.66600	3340.00000
3.68300	3339.00000
3.70000	3277.00000
3.71700	3265.00000
3.73400	3255.00000
3.75100	3247.00000
3.76800	3239.00000
3.78500	3242.00000
3.80200	3255.00000
3.81900	3186.00000
3.83600	3157.00000
3.85300	3165.00000
3.87000	3156.00000
3.88700	3175.00000
3.90400	3137.00000
3.92100	3112.00000
3.93800	3064.00000
3.95500	3086.00000
3.97200	3049.00000
3.98900	3018.00000
4.00600	3044.00000
4.02300	3027.00000
4.04000	2960.00000
4.05700	2974.00000
4.07400	2982.00000
4.09100	3004.00000
4.10800	2996.00000
4.12500	2985.00000
4.14200	2961.00000
4.15900	2957.00000
4.17600	2984.00000
4.19300	2881.00000
4.21000	2962.00000
4.22700	2976.00000
4.24400	2942.00000
4.26100	2904.00000
4.27800	2938.00000
4.29500	2938.00000
4.31200	2896.00000
4.32900	2858.00000
4.34600	2875.00000
4.36300	2875.00000
4.38000	2827.00000
4.39700	2830.00000
4.41400	2840.00000
4.43100	2850.00000
4.44800	2866.00000
4.46500	2823.00000
4.48200	2813.00000
4.49900	2843.00000
4.51600	2826.00000
4.53300	2809.00000
4.55000	2821.00000
4.56700	2795.00000
4.58400	2753.00000
4.60100	2796.00000
4.61800	2799.00000
4.63500	2770.00000
4.65200	2734.00000
4.66900	2731.00000
4.68600	2782.00000
4.70300	2782.00000
4.72000	2684.00000
4.73700	2725.00000
4.75400	2793.00000
4.77100	2729.00000
4.78800	2737.00000
4.80500	2754.00000
4.82200	2750.00000
4.83900	2730.00000
4.85600	2688.00000
4.87300	2691.00000
4.89000	2720.00000
4.90700	2696.00000
4.92400	2720.00000
4.94100	2677.00000
4.95800	2691.00000
4.97500	2722.00000
4.99200	2688.00000
5.00900	2701.00000
5.02600	2679.00000
5.04300	2649.00000
5.06000	2642.00000
5.07700	2684.00000
5.09400	2627.00000
5.11100	2667.00000
5.12800	2672.00000
5.14500	2634.00000
5.16200	2605.00000
5.17900	2619.00000
5.19600	2639.00000
5.21300	2656.00000
5.23000	2660.00000
5.24700	2645.00000
5.26400	2609.00000
5.28100	2612.00000
5.29800	2602.00000
5.31500	2612.00000
5.33200	2632.00000
5.34900	2590.00000
5.36600	2592.00000
5.38300	2590.00000
5.40000	2557.00000
5.41700	2539.00000
5.43400	2541.00000
5.45100	2571.00000
5.46800	2598.00000
5.48500	2605.00000
5.50200	2571.00000
5.51900	2545.00000
5.53600	2553.00000
5.55300	2542.00000
5.57000	2566.00000
5.58700	2590.00000
5.60400	2574.00000
5.62100	2564.00000
5.63800	2518.00000
5.65500	2564.00000
5.67200	2537.00000
5.68900	2487.00000
5.70600	2510.00000
5.72300	2522.00000
5.74000	2508.00000
5.75700	2483.00000
5.77400	2577.00000
5.79100	2525.00000
5.80800	2531.00000
5.82500	2539.00000
5.84200	2507.00000
5.85900	2529.00000
5.87600	2515.00000
5.89300	2496.00000
5.91000	2454.00000
5.92700	2529.00000
5.94400	2436.00000
5.96100	2487.00000
5.97800	2505.00000
5.99500	2510.00000
6.01200	2459.00000
6.02900	2416.00000
6.04600	2467.00000
6.06300	2478.00000
6.08000	2461.00000
6.09700	2431.00000
6.11400	2407.00000
6.13100	2435.00000
6.14800	2440.00000
6.16500	2437.00000
6.18200	2401.00000
6.19900	2437.00000
6.21600	2437.00000
6.23300	2405.00000
6.25000	2419.00000
6.26700	2441.00000
6.28400	2448.00000
6.30100	2440.00000
6.31800	2422.00000
6.33500	2400.00000
6.35200	2382.00000
6.36900	2380.00000
6.38600	2414.00000
6.40300	2404.00000
6.42000	2383.00000
6.43700	2388.00000
6.45400	2412.00000
6.47100	2438.00000
6.48800	2408.00000
6.50500	2425.00000
6.52200	2409.00000
6.53900	2386.00000
6.55600	2382.00000
6.57300	2345.00000
6.59000	2359.00000
6.60700	2379.00000
6.62400	2407.00000
6.64100	2371.00000
6.65800	2392.00000
6.67500	2362.00000
6.69200	2363.00000
6.70900	2362.00000
6.72600	2350.00000
6.74300	2380.00000
6.76000	2348.00000
6.77700	2364.00000
6.79400	2360.00000
6.81100	2349.00000
6.82800	2347.00000
6.84500	2329.00000
6.86200	2332.00000
6.87900	2375.00000
6.89600	2406.00000
6.91300	2402.00000
6.93000	2449.00000
6.94700	2381.00000
6.96400	2396.00000
6.98100	2421.00000
6.99800	2368.00000
7.01500	2359.00000
7.03200	2414.00000
7.04900	2338.00000
7.06600	2305.00000
7.08300	2300.00000
7.10000	2274.00000
7.11700	2256.00000
7.13400	2281.00000
7.15100	2250.00000
7.16800	2233.00000
7.18500	2214.00000
7.20200	2261.00000
7.21900	2278.00000
7.23600	2263.00000
7.25300	2235.00000
7.27000	2228.00000
7.28700	2245.00000
7.30400	2225.00000
7.32100	2211.00000
7.33800	2193.00000
7.35500	2199.00000
7.37200	2229.00000
7.38900	2221.00000
7.40600	2213.00000
7.42300	2224.00000
7.44000	2209.00000
7.45700	2214.00000
7.47400	2221.00000
7.49100	2213.00000
7.50800	2212.00000
7.52500	2218.00000
7.54200	2237.00000
7.55900	2224.00000
7.57600	2195.00000
7.59300	2166.00000
7.61000	2158.00000
7.62700	2165.00000
7.64400	2166.00000
7.66100	2160.00000
7.67800	2186.00000
7.69500	2147.00000
7.71200	2151.00000
7.72900	2141.00000
7.74600	2164.00000
7.76300	2163.00000
7.78000	2127.00000
7.79700	2156.00000
7.81400	2153.00000
7.83100	2154.00000
7.84800	2151.00000
7.86500	2149.00000
7.88200	2161.00000
7.89900	2142.00000
7.91600	2107.00000
7.93300	2149.00000
7.95000	2100.00000
7.96700	2127.00000
7.98400	2114.00000
8.00100	2111.00000
8.01800	2108.00000
8.03500	2103.00000
8.05200	2120.00000
8.06900	2126.00000
8.08600	2085.00000
8.10300	2073.00000
8.12000	2114.00000
8.13700	2113.00000
8.15400	2070.00000
8.17100	2094.00000
8.18800	2080.00000
8.20500	2094.00000
8.22200	2118.00000
8.23900	2105.00000
8.25600	2078.00000
8.27300	2068.00000
8.29000	2056.00000
8.30700	2042.00000
8.32400	2049.00000
8.34100	2058.00000
8.35800	2060.00000
8.37500	2059.00000
8.39200	2071.00000
8.40900	2084.00000
8.42600	2079.00000
8.44300	2062.00000
8.46000	2054.00000
8.47700	2062.00000
8.49400	2057.00000
8.51100	2044.00000
8.52800	2054.00000
8.54500	2039.00000
8.56200	2027.00000
8.57900	2053.00000
8.59600	2050.00000
8.61300	2016.00000
8.63000	2024.00000
8.64700	2037.00000
8.66400	2021.00000
8.68100	1999.00000
8.69800	2017.00000
8.71500	2003.00000
8.73200	2025.00000
8.74900	2045.00000
8.76600	2038.00000
8.78300	2008.00000
8.80000	2033.00000
8.81700	2032.00000
8.83400	2000.00000
8.85100	2004.00000
8.86800	2026.00000
8.88500	1993.00000
8.90200	1992.00000
8.91900	1994.00000
8.93600	1996.00000
8.95300	1936.00000
8.97000	1967.00000
8.98700	1922.00000
9.00400	1987.00000
9.02100	1984.00000
9.03800	1966.00000
9.05500	1911.00000
9.07200	1952.00000
9.08900	1971.00000
9.10600	1972.00000
9.12300	1994.00000
9.14000	2006.00000
9.15700	1987.00000
9.17400	1987.00000
9.19100	1977.00000
9.20800	1964.00000
9.22500	1946.00000
9.24200	1937.00000
9.25900	1957.00000
9.27600	1971.00000
9.29300	2005.00000
9.31000	2021.00000
9.32700	2024.00000
9.34400	1999.00000
9.36100	1986.00000
9.37800	1992.00000
9.39500	2016.00000
9.41200	1987.00000
9.42900	1942.00000
9.44600	1935.00000
9.46300	1926.00000
9.48000	1909.00000
9.49700	1920.00000
9.51400	1952.00000
9.53100	1965.00000
9.54800	1944.00000
9.56500	1956.00000
9.58200	1955.00000
9.59900	1929.00000
9.61600	1939.00000
9.63300	1956.00000
9.65000	1911.00000
9.66700	1950.00000
9.68400	1973.00000
9.70100	1937.00000
9.71800	1908.00000
9.73500	1888.00000
9.75200	1885.00000
9.76900	1942.00000
9.78600	1896.00000
9.80300	1929.00000
9.82000	1942.00000
9.83700	1944.00000
9.85400	1940.00000
9.87100	1949.00000
9.88800	1946.00000
9.90500	1912.00000
9.92200	1949.00000
9.93900	1944.00000
9.95600	2007.00000
9.97300	2032.00000
9.99000	1997.00000
10.00700	2047.00000
10.02400	2057.00000
10.04100	2092.00000
10.05800	2119.00000
10.07500	2139.00000
10.09200	2183.00000
10.10900	2261.00000
10.12600	2279.00000
10.14300	2361.00000
10.16000	2418.00000
10.17700	2464.00000
10.19400	2541.00000
10.21100	2639.00000
10.22800	2739.00000
10.24500	2881.00000
10.26200	3008.00000
10.27900	3116.00000
10.29600	3339.00000
10.31300	3578.00000
10.33000	3848.00000
10.34700	4155.00000
10.36400	4511.00000
10.38100	4852.00000
10.39800	5249.00000
10.41500	5693.00000
10.43200	5949.00000
10.44900	6062.00000
10.46600	6091.00000
10.48300	5839.00000
10.50000	5420.00000
10.51700	4787.00000
10.53400	4118.00000
10.55100	3550.00000
10.56800	3085.00000
10.58500	2686.00000
10.60200	2451.00000
10.61900	2268.00000
10.63600	2156.00000
10.65300	2047.00000
10.67000	2005.00000
10.68700	1994.00000
10.70400	1916.00000
10.72100	1921.00000
10.73800	1892.00000
10.75500	1895.00000
10.77200	1853.00000
10.78900	1862.00000
10.80600	1830.00000
10.82300	1798.00000
10.84000	1828.00000
10.85700	1834.00000
10.87400	1841.00000
10.89100	1806.00000
10.90800	1803.00000
10.92500	1810.00000
10.94200	1811.00000
10.95900	1792.00000
10.97600	1800.00000
10.99300	1787.00000
11.01000	1736.00000
11.02700	1785.00000
11.04400	1797.00000
11.06100	1749.00000
11.07800	1781.00000
11.09500	1783.00000
11.11200	1774.00000
11.12900	1770.00000
11.14600	1775.00000
11.16300	1747.00000
11.18000	1713.00000
11.19700	1756.00000
11.21400	1740.00000
11.23100	1730.00000
11.24800	1716.00000
11.26500	1718.00000
11.28200	1697.00000
11.29900	1703.00000
11.31600	1717.00000
11.33300	1698.00000
11.35000	1701.00000
11.36700	1714.00000
11.38400	1702.00000
11.40100	1710.00000
11.41800	1710.00000
11.43500	1716.00000
11.45200	1717.00000
11.46900	1730.00000
11.48600	1733.00000
11.50300	1718.00000
11.52000	1727.00000
11.53700	1741.00000
11.55400	1724.00000
11.57100	1726.00000
11.58800	1754.00000
11.60500	1736.00000
11.62200	1745.00000
11.63900	1790.00000
11.65600	1800.00000
11.67300	1772.00000
11.69000	1836.00000
11.70700	1889.00000
11.72400	1937.00000
11.74100	1941.00000
11.75800	1948.00000
11.77500	2024.00000
11.79200	2086.00000
11.80900	2124.00000
11.82600	2179.00000
11.84300	2302.00000
11.86000	2378.00000
11.87700	2489.00000
11.89400	2587.00000
11.91100	2701.00000
11.92800	2887.00000
11.94500	3072.00000
11.96200	3202.00000
11.97900	3433.00000
11.99600	3684.00000
12.01300	4017.00000
12.03000	4379.00000
12.04700	4817.00000
12.06400	5351.00000
12.08100	5944.00000
12.09800	6599.00000
12.11500	7476.00000
12.13200	8428.00000
12.14900	9536.00000
12.16600	10802.00000
12.18300	12213.00000
12.20000	13396.00000
12.21700	14454.00000
12.23400	15104.00000
12.25100	15221.00000
12.26800	14515.00000
12.28500	12975.00000
12.30200	10909.00000
12.31900	8731.00000
12.33600	6717.00000
12.35300	5127.00000
12.37000	4062.00000
12.38700	3398.00000
12.40400	2937.00000
12.42100	2636.00000
12.43800	2446.00000
12.45500	2287.00000
12.47200	2188.00000
12.48900	2111.00000
12.50600	2013.00000
12.52300	1948.00000
12.54000	1974.00000
12.55700	1983.00000
12.57400	1930.00000
12.59100	1920.00000
12.60800	1855.00000
12.62500	1853.00000
12.64200	1877.00000
12.65900	1881.00000
12.67600	1888.00000
12.69300	1854.00000
12.71000	1910.00000
12.72700	1921.00000
12.74400	1908.00000
12.76100	1943.00000
12.77800	1967.00000
12.79500	2011.00000
12.81200	2020.00000
12.82900	2062.00000
12.84600	2103.00000
12.86300	2170.00000
12.88000	2255.00000
12.89700	2313.00000
12.91400	2416.00000
12.93100	2509.00000
12.94800	2670.00000
12.96500	2799.00000
12.98200	3001.00000
12.99900	3225.00000
13.01600	3497.00000
13.03300	3773.00000
13.05000	4097.00000
13.06700	4532.00000
13.08400	5027.00000
13.10100	5469.00000
13.11800	6123.00000
13.13500	6657.00000
13.15200	7224.00000
13.16900	7651.00000
13.18600	7959.00000
13.20300	7963.00000
13.22000	7624.00000
13.23700	7034.00000
13.25400	6156.00000
13.27100	5224.00000
13.28800	4373.00000
13.30500	3669.00000
13.32200	3140.00000
13.33900	2723.00000
13.35600	2437.00000
13.37300	2285.00000
13.39000	2157.00000
13.40700	2055.00000
13.42400	1997.00000
13.44100	1946.00000
13.45800	1930.00000
13.47500	1910.00000
13.49200	1892.00000
13.50900	1889.00000
13.52600	1960.00000
13.54300	1979.00000
13.56000	1944.00000
13.57700	1984.00000
13.59400	1994.00000
13.61100	2030.00000
13.62800	1984.00000
13.64500	2066.00000
13.66200	2097.00000
13.67900	2171.00000
13.69600	2274.00000
13.71300	2389.00000
13.73000	2489.00000
13.74700	2613.00000
13.76400	2774.00000
13.78100	2981.00000
13.79800	3131.00000
13.81500	3477.00000
13.83200	3730.00000
13.84900	4195.00000
13.86600	4603.00000
13.88300	5066.00000
13.90000	5479.00000
13.91700	5883.00000
13.93400	6291.00000
13.95100	6377.00000
13.96800	6329.00000
13.98500	6099.00000
14.00200	5616.00000
14.01900	4939.00000
14.03600	4226.00000
14.05300	3669.00000
14.07000	3125.00000
14.08700	2685.00000
14.10400	2423.00000
14.12100	2243.00000
14.13800	2085.00000
14.15500	1975.00000
14.17200	1908.00000
14.18900	1822.00000
14.20600	1795.00000
14.22300	1746.00000
14.24000	1720.00000
14.25700	1694.00000
14.27400	1630.00000
14.29100	1649.00000
14.30800	1669.00000
14.32500	1645.00000
14.34200	1665.00000
14.35900	1651.00000
14.37600	1625.00000
14.39300	1628.00000
14.41000	1617.00000
14.42700	1640.00000
14.44400	1617.00000
14.46100	1595.00000
14.47800	1588.00000
14.49500	1588.00000
14.51200	1601.00000
14.52900	1591.00000
14.54600	1593.00000
14.56300	1606.00000
14.58000	1637.00000
14.59700	1634.00000
14.61400	1671.00000
14.63100	1682.00000
14.64800	1706.00000
14.66500	1708.00000
14.68200	1731.00000
14.69900	1743.00000
14.71600	1794.00000
14.73300	1854.00000
14.75000	1828.00000
14.76700	1927.00000
14.78400	1981.00000
14.80100	2041.00000
14.81800	2175.00000
14.83500	2194.00000
14.85200	2309.00000
14.86900	2335.00000
14.88600	2400.00000
14.90300	2408.00000
14.92000	2370.00000
14.93700	2362.00000
14.95400	2222.00000
14.97100	2189.00000
14.98800	2039.00000
15.00500	1937.00000
15.02200	1847.00000
15.03900	1783.00000
15.05600	1710.00000
15.07300	1684.00000
15.09000	1653.00000
15.10700	1652.00000
15.12400	1634.00000
15.14100	1639.00000
15.15800	1618.00000
15.17500	1619.00000
15.19200	1599.00000
15.20900	1584.00000
15.22600	1628.00000
15.24300	1646.00000
15.26000	1597.00000
15.27700	1611.00000
15.29400	1641.00000
15.31100	1647.00000
15.32800	1681.00000
15.34500	1721.00000
15.36200	1759.00000
15.37900	1785.00000
15.39600	1834.00000
15.41300	1854.00000
15.43000	1883.00000
15.44700	1923.00000
15.46400	1941.00000
15.48100	1972.00000
15.49800	2074.00000
15.51500	2121.00000
15.53200	2181.00000
15.54900	2251.00000
15.56600	2379.00000
15.58300	2430.00000
15.60000	2560.00000
15.61700	2692.00000
15.63400	2784.00000
15.65100	2960.00000
15.66800	3061.00000
15.68500	3116.00000
15.70200	3125.00000
15.71900	3172.00000
15.73600	3065.00000
15.75300	2940.00000
15.77000	2780.00000
15.78700	2653.00000
15.80400	2498.00000
15.82100	2419.00000
15.83800	2256.00000
15.85500	2207.00000
15.87200	2177.00000
15.88900	2171.00000
15.90600	2093.00000
15.92300	2038.00000
15.94000	1950.00000
15.95700	1916.00000
15.97400	1868.00000
15.99100	1803.00000
16.00800	1786.00000
16.02500	1698.00000
16.04200	1629.00000
16.05900	1628.00000
16.07600	1592.00000
16.09300	1596.00000
16.11000	1575.00000
16.12700	1575.00000
16.14400	1563.00000
16.16100	1561.00000
16.17800	1556.00000
16.19500	1561.00000
16.21200	1583.00000
16.22900	1570.00000
16.24600	1560.00000
16.26300	1570.00000
16.28000	1604.00000
16.29700	1623.00000
16.31400	1635.00000
16.33100	1662.00000
16.34800	1684.00000
16.36500	1694.00000
16.38200	1727.00000
16.39900	1803.00000
16.41600	1842.00000
16.43300	1905.00000
16.45000	1967.00000
16.46700	2035.00000
16.48400	2157.00000
16.50100	2246.00000
16.51800	2372.00000
16.53500	2514.00000
16.55200	2650.00000
16.56900	2883.00000
16.58600	3058.00000
16.60300	3312.00000
16.62000	3618.00000
16.63700	3953.00000
16.65400	4194.00000
16.67100	4560.00000
16.68800	4867.00000
16.70500	5193.00000
16.72200	5392.00000
16.73900	5564.00000
16.75600	5696.00000
16.77300	5647.00000
16.79000	5518.00000
16.80700	5308.00000
16.82400	4917.00000
16.84100	4512.00000
16.85800	4150.00000
16.87500	3800.00000
16.89200	3482.00000
16.90900	3207.00000
16.92600	2985.00000
16.94300	2840.00000
16.96000	2745.00000
16.97700	2722.00000
16.99400	2710.00000
17.01100	2744.00000
17.02800	2818.00000
17.04500	2917.00000
17.06200	3025.00000
17.07900	3129.00000
17.09600	3317.00000
17.11300	3517.00000
17.13000	3656.00000
17.14700	3827.00000
17.16400	3978.00000
17.18100	4091.00000
17.19800	4115.00000
17.21500	4065.00000
17.23200	4003.00000
17.24900	3847.00000
17.26600	3631.00000
17.28300	3328.00000
17.30000	3041.00000
17.31700	2781.00000
17.33400	2551.00000
17.35100	2376.00000
17.36800	2203.00000
17.38500	2075.00000
17.40200	1986.00000
17.41900	1910.00000
17.43600	1885.00000
17.45300	1909.00000
17.47000	1862.00000
17.48700	1828.00000
17.50400	1836.00000
17.52100	1814.00000
17.53800	1805.00000
17.55500	1757.00000
17.57200	1753.00000
17.58900	1761.00000
17.60600	1724.00000
17.62300	1698.00000
17.64000	1731.00000
17.65700	1690.00000
17.67400	1700.00000
17.69100	1717.00000
17.70800	1699.00000
17.72500	1732.00000
17.74200	1698.00000
17.75900	1704.00000
17.77600	1716.00000
17.79300	1733.00000
17.81000	1718.00000
17.82700	1781.00000
17.84400	1784.00000
17.86100	1784.00000
17.87800	1844.00000
17.89500	1896.00000
17.91200	1926.00000
17.92900	2010.00000
17.94600	2076.00000
17.96300	2185.00000
17.98000	2260.00000
17.99700	2356.00000
18.01400	2535.00000
18.03100	2716.00000
18.04800	2921.00000
18.06500	3179.00000
18.08200	3538.00000
18.09900	3954.00000
18.11600	4343.00000
18.13300	4758.00000
18.15000	5164.00000
18.16700	5459.00000
18.18400	5692.00000
18.20100	5798.00000
18.21800	5666.00000
18.23500	5422.00000
18.25200	4949.00000
18.26900	4371.00000
18.28600	3804.00000
18.30300	3312.00000
18.32000	2938.00000
18.33700	2658.00000
18.35400	2426.00000
18.37100	2245.00000
18.38800	2122.00000
18.40500	2102.00000
18.42200	2069.00000
18.43900	2029.00000
18.45600	2043.00000
18.47300	2031.00000
18.49000	2029.00000
18.50700	2019.00000
18.52400	2070.00000
18.54100	2113.00000
18.55800	2223.00000
18.57500	2317.00000
18.59200	2387.00000
18.60900	2540.00000
18.62600	2636.00000
18.64300	2766.00000
18.66000	3004.00000
18.67700	3202.00000
18.69400	3446.00000
18.71100	3673.00000
18.72800	4048.00000
18.74500	4183.00000
18.76200	4359.00000
18.77900	4495.00000
18.79600	4586.00000
18.81300	4420.00000
18.83000	4353.00000
18.84700	4154.00000
18.86400	3867.00000
18.88100	3562.00000
18.89800	3242.00000
18.91500	3027.00000
18.93200	2829.00000
18.94900	2698.00000
18.96600	2490.00000
18.98300	2433.00000
19.00000	2372.00000
19.01700	2302.00000
19.03400	2287.00000
19.05100	2222.00000
19.06800	2142.00000
19.08500	2109.00000
19.10200	2074.00000
19.11900	2060.00000
19.13600	2041.00000
19.15300	2023.00000
19.17000	1992.00000
19.18700	2006.00000
19.20400	2016.00000
19.22100	1987.00000
19.23800	1983.00000
19.25500	2015.00000
19.27200	2032.00000
19.28900	2051.00000
19.30600	2111.00000
19.32300	2131.00000
19.34000	2126.00000
19.35700	2157.00000
19.37400	2195.00000
19.39100	2203.00000
19.40800	2253.00000
19.42500	2337.00000
19.44200	2390.00000
19.45900	2387.00000
19.47600	2457.00000
19.49300	2621.00000
19.51000	2652.00000
19.52700	2765.00000
19.54400	2838.00000
19.56100	2932.00000
19.57800	3077.00000
19.59500	3289.00000
19.61200	3546.00000
19.62900	3750.00000
19.64600	3972.00000
19.66300	4273.00000
19.68000	4631.00000
19.69700	5179.00000
19.71400	5634.00000
19.73100	6339.00000
19.74800	7076.00000
19.76500	7965.00000
19.78200	8790.00000
19.79900	10099.00000
19.81600	11182.00000
19.83300	12510.00000
19.85000	13669.00000
19.86700	14763.00000
19.88400	15613.00000
19.90100	16140.00000
19.91800	16443.00000
19.93500	16220.00000
19.95200	15645.00000
19.96900	14877.00000
19.98600	13850.00000
20.00300	12642.00000
20.02000	11402.00000
20.03700	10285.00000
20.05400	9115.00000
20.07100	8088.00000
20.08800	7145.00000
20.10500	6406.00000
20.12200	5741.00000
20.13900	5108.00000
20.15600	4656.00000
20.17300	4191.00000
20.19000	3799.00000
20.20700	3492.00000
20.22400	3291.00000
20.24100	3100.00000
20.25800	2916.00000
20.27500	2798.00000
20.29200	2701.00000
20.30900	2634.00000
20.32600	2529.00000
20.34300	2466.00000
20.36000	2446.00000
20.37700	2367.00000
20.39400	2329.00000
20.41100	2275.00000
20.42800	2222.00000
20.44500	2186.00000
20.46200	2158.00000
20.47900	2178.00000
20.49600	2135.00000
20.51300	2149.00000
20.53000	2122.00000
20.54700	2123.00000
20.56400	2107.00000
20.58100	2112.00000
20.59800	2118.00000
20.61500	2159.00000
20.63200	2136.00000
20.64900	2170.00000
20.66600	2228.00000
20.68300	2334.00000
20.70000	2362.00000
20.71700	2470.00000
20.73400	2547.00000
20.75100	2676.00000
20.76800	2794.00000
20.78500	3044.00000
20.80200	3265.00000
20.81900	3519.00000
20.83600	3890.00000
20.85300	4299.00000
20.87000	4765.00000
20.88700	5419.00000
20.90400	6085.00000
20.92100	6877.00000
20.93800	7834.00000
20.95500	8784.00000
20.97200	9800.00000
20.98900	10740.00000
21.00600	11628.00000
21.02300	12375.00000
21.04000	12828.00000
21.05700	13191.00000
21.07400	13193.00000
21.09100	12926.00000
21.10800	12525.00000
21.12500	11857.00000
21.14200	11113.00000
21.15900	10280.00000
21.17600	9301.00000
21.19300	8379.00000
21.21000	7532.00000
21.22700	6716.00000
21.24400	6037.00000
21.26100	5430.00000
21.27800	4961.00000
21.29500	4721.00000
21.31200	4581.00000
21.32900	4493.00000
21.34600	4523.00000
21.36300	4665.00000
21.38000	4965.00000
21.39700	5284.00000
21.41400	5762.00000
21.43100	6341.00000
21.44800	7057.00000
21.46500	7873.00000
21.48200	8843.00000
21.49900	9900.00000
21.51600	11048.00000
21.53300	12081.00000
21.55000	12946.00000
21.56700	13791.00000
21.58400	14167.00000
21.60100	14433.00000
21.61800	14274.00000
21.63500	14138.00000
21.65200	13851.00000
21.66900	13557.00000
21.68600	13388.00000
21.70300	13203.00000
21.72000	13072.00000
21.73700	12930.00000
21.75400	12794.00000
21.77100	12553.00000
21.78800	12179.00000
21.80500	11643.00000
21.82200	11115.00000
21.83900	10228.00000
21.85600	9397.00000
21.87300	8476.00000
21.89000	7590.00000
21.90700	6885.00000
21.92400	6226.00000
21.94100	5713.00000
21.95800	5305.00000
21.97500	4983.00000
21.99200	4735.00000
22.00900	4618.00000
22.02600	4501.00000
22.04300	4392.00000
22.06000	4280.00000
22.07700	4207.00000
22.09400	4233.00000
22.11100	4166.00000
22.12800	4059.00000
22.14500	3943.00000
22.16200	3787.00000
22.17900	3586.00000
22.19600	3422.00000
22.21300	3290.00000
22.23000	3172.00000
22.24700	3051.00000
22.26400	2959.00000
22.28100	2911.00000
22.29800	2860.00000
22.31500	2838.00000
22.33200	2839.00000
22.34900	2905.00000
22.36600	2962.00000
22.38300	3005.00000
22.40000	3110.00000
22.41700	3223.00000
22.43400	3291.00000
22.45100	3410.00000
22.46800	3455.00000
22.48500	3541.00000
22.50200	3522.00000
22.51900	3529.00000
22.53600	3514.00000
22.55300	3583.00000
22.57000	3657.00000
22.58700	3729.00000
22.60400	3799.00000
22.62100	3882.00000
22.63800	4066.00000
22.65500	4105.00000
22.67200	4267.00000
22.68900	4326.00000
22.70600	4409.00000
22.72300	4509.00000
22.74000	4649.00000
22.75700	4846.00000
22.77400	5044.00000
22.79100	5275.00000
22.80800	5621.00000
22.82500	5971.00000
22.84200	6414.00000
22.85900	7009.00000
22.87600	7611.00000
22.89300	8219.00000
22.91000	8960.00000
22.92700	9708.00000
22.94400	10514.00000
22.96100	11306.00000
22.97800	12136.00000
22.99500	12925.00000
23.01200	13720.00000
23.02900	14322.00000
23.04600	14689.00000
23.06300	14936.00000
23.08000	14991.00000
23.09700	14710.00000
23.11400	14231.00000
23.13100	13659.00000
23.14800	12877.00000
23.16500	11976.00000
23.18200	10979.00000
23.19900	9994.00000
23.21600	9045.00000
23.23300	8112.00000
23.25000	7367.00000
23.26700	6625.00000
23.28400	5987.00000
23.30100	5414.00000
23.31800	4930.00000
23.33500	4481.00000
23.35200	4164.00000
23.36900	3854.00000
23.38600	3575.00000
23.40300	3345.00000
23.42000	3167.00000
23.43700	3004.00000
23.45400	2838.00000
23.47100	2731.00000
23.48800	2607.00000
23.50500	2546.00000
23.52200	2469.00000
23.53900	2401.00000
23.55600	2386.00000
23.57300	2277.00000
23.59000	2276.00000
23.60700	2197.00000
23.62400	2189.00000
23.64100	2184.00000
23.65800	2140.00000
23.67500	2105.00000
23.69200	2123.00000
23.70900	2115.00000
23.72600	2130.00000
23.74300	2171.00000
23.76000	2198.00000
23.77700	2208.00000
23.79400	2267.00000
23.81100	2282.00000
23.82800	2360.00000
23.84500	2406.00000
23.86200	2421.00000
23.87900	2583.00000
23.89600	2724.00000
23.91300	2830.00000
23.93000	2974.00000
23.94700	3154.00000
23.96400	3440.00000
23.98100	3704.00000
23.99800	4003.00000
24.01500	4419.00000
24.03200	4800.00000
24.04900	5239.00000
24.06600	5710.00000
24.08300	6168.00000
24.10000	6570.00000
24.11700	6914.00000
24.13400	7174.00000
24.15100	7278.00000
24.16800	7266.00000
24.18500	7188.00000
24.20200	6921.00000
24.21900	6582.00000
24.23600	6247.00000
24.25300	5847.00000
24.27000	5425.00000
24.28700	5058.00000
24.30400	4771.00000
24.32100	4471.00000
24.33800	4221.00000
24.35500	3960.00000
24.37200	3751.00000
24.38900	3576.00000
24.40600	3360.00000
24.42300	3189.00000
24.44000	3055.00000
24.45700	2981.00000
24.47400	2892.00000
24.49100	2847.00000
24.50800	2887.00000
24.52500	2971.00000
24.54200	3015.00000
24.55900	3131.00000
24.57600	3251.00000
24.59300	3311.00000
24.61000	3433.00000
24.62700	3375.00000
24.64400	3365.00000
24.66100	3273.00000
24.67800	3143.00000
24.69500	2940.00000
24.71200	2793.00000
24.72900	2701.00000
24.74600	2539.00000
24.76300	2404.00000
24.78000	2329.00000
24.79700	2265.00000
24.81400	2208.00000
24.83100	2116.00000
24.84800	2061.00000
24.86500	1984.00000
24.88200	1966.00000
24.89900	1927.00000
24.91600	1874.00000
24.93300	1844.00000
24.95000	1853.00000
24.96700	1840.00000
24.98400	1816.00000
25.00100	1842.00000
25.01800	1859.00000
25.03500	1866.00000
25.05200	1913.00000
25.06900	1972.00000
25.08600	1992.00000
25.10300	2025.00000
25.12000	2102.00000
25.13700	2213.00000
25.15400	2284.00000
25.17100	2362.00000
25.18800	2478.00000
25.20500	2619.00000
25.22200	2804.00000
25.23900	2980.00000
25.25600	3177.00000
25.27300	3328.00000
25.29000	3507.00000
25.30700	3626.00000
25.32400	3760.00000
25.34100	3772.00000
25.35800	3762.00000
25.37500	3683.00000
25.39200	3574.00000
25.40900	3503.00000
25.42600	3307.00000
25.44300	3169.00000
25.46000	3030.00000
25.47700	2934.00000
25.49400	2890.00000
25.51100	2826.00000
25.52800	2850.00000
25.54500	2903.00000
25.56200	2980.00000
25.57900	3110.00000
25.59600	3261.00000
25.61300	3360.00000
25.63000	3570.00000
25.64700	3772.00000
25.66400	4087.00000
25.68100	4366.00000
25.69800	4661.00000
25.71500	5023.00000
25.73200	5487.00000
25.74900	6004.00000
25.76600	6468.00000
25.78300	7061.00000
25.80000	7524.00000
25.81700	8162.00000
25.83400	8828.00000
25.85100	9420.00000
25.86800	9774.00000
25.88500	10207.00000
25.90200	10602.00000
25.91900	10702.00000
25.93600	10671.00000
25.95300	10510.00000
25.97000	10234.00000
25.98700	9975.00000
26.00400	9479.00000
26.02100	8908.00000
26.03800	8443.00000
26.05500	7826.00000
26.07200	7202.00000
26.08900	6687.00000
26.10600	6226.00000
26.12300	5784.00000
26.14000	5351.00000
26.15700	4981.00000
26.17400	4681.00000
26.19100	4424.00000
26.20800	4191.00000
26.22500	3968.00000
26.24200	3818.00000
26.25900	3680.00000
26.27600	3595.00000
26.29300	3514.00000
26.31000	3429.00000
26.32700	3368.00000
26.34400	3277.00000
26.36100	3200.00000
26.37800	3149.00000
26.39500	3084.00000
26.41200	3009.00000
26.42900	2939.00000
26.44600	2929.00000
26.46300	2892.00000
26.48000	2908.00000
26.49700	2847.00000
26.51400	2919.00000
26.53100	2972.00000
26.54800	2983.00000
26.56500	3040.00000
26.58200	3081.00000
26.59900	3126.00000
26.61600	3221.00000
26.63300	3259.00000
26.65000	3290.00000
26.66700	3293.00000
26.68400	3257.00000
26.70100	3243.00000
26.71800	3177.00000
26.73500	3143.00000
26.75200	3127.00000
26.76900	3036.00000
26.78600	2882.00000
26.80300	2901.00000
26.82000	2818.00000
26.83700	2714.00000
26.85400	2687.00000
26.87100	2605.00000
26.88800	2593.00000
26.90500	2487.00000
26.92200	2457.00000
26.93900	2423.00000
26.95600	2377.00000
26.97300	2349.00000
26.99000	2391.00000
27.00700	2445.00000
27.02400	2489.00000
27.04100	2558.00000
27.05800	2577.00000
27.07500	2598.00000
27.09200	2596.00000
27.10900	2531.00000
27.12600	2508.00000
27.14300	2462.00000
27.16000	2399.00000
27.17700	2406.00000
27.19400	2352.00000
27.21100	2188.00000
27.22800	2039.00000
27.24500	1977.00000
27.26200	1880.00000
27.27900	1770.00000
27.29600	1706.00000
27.31300	1650.00000
27.33000	1570.00000
27.34700	1571.00000
27.36400	1555.00000
27.38100	1530.00000
27.39800	1533.00000
27.41500	1508.00000
27.43200	1498.00000
27.44900	1538.00000
27.46600	1500.00000
27.48300	1484.00000
27.50000	1500.00000
27.51700	1531.00000
27.53400	1557.00000
27.55100	1548.00000
27.56800	1575.00000
27.58500	1639.00000
27.60200	1691.00000
27.61900	1721.00000
27.63600	1796.00000
27.65300	1806.00000
27.67000	1880.00000
27.68700	1892.00000
27.70400	1929.00000
27.72100	2028.00000
27.73800	2063.00000
27.75500	2047.00000
27.77200	2092.00000
27.78900	2084.00000
27.80600	2063.00000
27.82300	2132.00000
27.84000	2115.00000
27.85700	2135.00000
27.87400	2096.00000
27.89100	2040.00000
27.90800	2038.00000
27.92500	1977.00000
27.94200	1981.00000
27.95900	1938.00000
27.97600	1926.00000
27.99300	1951.00000
28.01000	2002.00000
28.02700	2049.00000
28.04400	2100.00000
28.06100	2164.00000
28.07800	2263.00000
28.09500	2373.00000
28.11200	2498.00000
28.12900	2615.00000
28.14600	2739.00000
28.16300	2890.00000
28.18000	3043.00000
28.19700	3228.00000
28.21400	3409.00000
28.23100	3572.00000
28.24800	3765.00000
28.26500	3911.00000
28.28200	4055.00000
28.29900	4134.00000
28.31600	4168.00000
28.33300	4180.00000
28.35000	4117.00000
28.36700	4048.00000
28.38400	3910.00000
28.40100	3617.00000
28.41800	3439.00000
28.43500	3227.00000
28.45200	2933.00000
28.46900	2736.00000
28.48600	2517.00000
28.50300	2323.00000
28.52000	2179.00000
28.53700	2049.00000
28.55400	1950.00000
28.57100	1859.00000
28.58800	1769.00000
28.60500	1689.00000
28.62200	1663.00000
28.63900	1650.00000
28.65600	1570.00000
28.67300	1613.00000
28.69000	1618.00000
28.70700	1627.00000
28.72400	1602.00000
28.74100	1679.00000
28.75800	1686.00000
28.77500	1703.00000
28.79200	1723.00000
28.80900	1759.00000
28.82600	1814.00000
28.84300	1827.00000
28.86000	1867.00000
28.87700	1930.00000
28.89400	1971.00000
28.91100	2030.00000
28.92800	2071.00000
28.94500	2106.00000
28.96200	2150.00000
28.97900	2183.00000
28.99600	2221.00000
29.01300	2240.00000
29.03000	2226.00000
29.04700	2232.00000
29.06400	2286.00000
29.08100	2257.00000
29.09800	2199.00000
29.11500	2204.00000
29.13200	2179.00000
29.14900	2163.00000
29.16600	2172.00000
29.18300	2146.00000
29.20000	2119.00000
29.21700	2119.00000
29.23400	2112.00000
29.25100	2089.00000
29.26800	2083.00000
29.28500	2067.00000
29.30200	2090.00000
29.31900	2050.00000
29.33600	2038.00000
29.35300	2019.00000
29.37000	1995.00000
29.38700	1934.00000
29.40400	1935.00000
29.42100	1920.00000
29.43800	1913.00000
29.45500	1855.00000
29.47200	1837.00000
29.48900	1814.00000
29.50600	1772.00000
29.52300	1764.00000
29.54000	1731.00000
29.55700	1604.00000
29.57400	1633.00000
29.59100	1568.00000
29.60800	1495.00000
29.62500	1459.00000
29.64200	1431.00000
29.65900	1373.00000
29.67600	1376.00000
29.69300	1368.00000
29.71000	1346.00000
29.72700	1313.00000
29.74400	1328.00000
29.76100	1250.00000
29.77800	1278.00000
29.79500	1271.00000
29.81200	1268.00000
29.82900	1267.00000
29.84600	1278.00000
29.86300	1276.00000
29.88000	1293.00000
29.89700	1311.00000
29.91400	1315.00000
29.93100	1337.00000
29.94800	1364.00000
29.96500	1417.00000
29.98200	1455.00000
29.99900	1476.00000
30.01600	1511.00000
30.03300	1553.00000
30.05000	1632.00000
30.06700	1659.00000
30.08400	1697.00000
30.10100	1739.00000
30.11800	1766.00000
30.13500	1762.00000
30.15200	1797.00000
30.16900	1824.00000
30.18600	1781.00000
30.20300	1753.00000
30.22000	1717.00000
30.23700	1673.00000
30.25400	1673.00000
30.27100	1653.00000
30.28800	1604.00000
30.30500	1549.00000
30.32200	1525.00000
30.33900	1499.00000
30.35600	1481.00000
30.37300	1460.00000
30.39000	1398.00000
30.40700	1376.00000
30.42400	1397.00000
30.44100	1363.00000
30.45800	1372.00000
30.47500	1378.00000
30.49200	1369.00000
30.50900	1378.00000
30.52600	1398.00000
30.54300	1447.00000
30.56000	1496.00000
30.57700	1521.00000
30.59400	1601.00000
30.61100	1631.00000
30.62800	1683.00000
30.64500	1761.00000
30.66200	1811.00000
30.67900	1899.00000
30.69600	2011.00000
30.71300	2180.00000
30.73000	2296.00000
30.74700	2468.00000
30.76400	2642.00000
30.78100	2804.00000
30.79800	2943.00000
30.81500	3113.00000
30.83200	3216.00000
30.84900	3319.00000
30.86600	3393.00000
30.88300	3425.00000
30.90000	3448.00000
30.91700	3392.00000
30.93400	3376.00000
30.95100	3251.00000
30.96800	3156.00000
30.98500	3114.00000
31.00200	3000.00000
31.01900	2927.00000
31.03600	2876.00000
31.05300	2878.00000
31.07000	2887.00000
31.08700	2887.00000
31.10400	2907.00000
31.12100	2947.00000
31.13800	3053.00000
31.15500	3136.00000
31.17200	3178.00000
31.18900	3193.00000
31.20600	3222.00000
31.22300	3259.00000
31.24000	3237.00000
31.25700	3215.00000
31.27400	3251.00000
31.29100	3281.00000
31.30800	3298.00000
31.32500	3349.00000
31.34200	3418.00000
31.35900	3478.00000
31.37600	3465.00000
31.39300	3491.00000
31.41000	3507.00000
31.42700	3468.00000
31.44400	3438.00000
31.46100	3422.00000
31.47800	3350.00000
31.49500	3266.00000
31.51200	3320.00000
31.52900	3303.00000
31.54600	3347.00000
31.56300	3328.00000
31.58000	3270.00000
31.59700	3275.00000
31.61400	3235.00000
31.63100	3180.00000
31.64800	3034.00000
31.66500	3099.00000
31.68200	3037.00000
31.69900	3055.00000
31.71600	2986.00000
31.73300	3033.00000
31.75000	2988.00000
31.76700	2969.00000
31.78400	2975.00000
31.80100	2935.00000
31.81800	2951.00000
31.83500	2923.00000
31.85200	2903.00000
31.86900	2902.00000
31.88600	2922.00000
31.90300	2894.00000
31.92000	2838.00000
31.93700	2778.00000
31.95400	2751.00000
31.97100	2695.00000
31.98800	2610.00000
32.00500	2600.00000
32.02200	2545.00000
32.03900	2479.00000
32.05600	2413.00000
32.07300	2367.00000
32.09000	2316.00000
32.10700	2230.00000
32.12400	2165.00000
32.14100	2130.00000
32.15800	2120.00000
32.17500	2069.00000
32.19200	2041.00000
32.20900	2026.00000
32.22600	1970.00000
32.24300	1966.00000
32.26000	2010.00000
32.27700	1997.00000
32.29400	2015.00000
32.31100	2063.00000
32.32800	2030.00000
32.34500	2103.00000
32.36200	2162.00000
32.37900	2218.00000
32.39600	2248.00000
32.41300	2301.00000
32.43000	2302.00000
32.44700	2444.00000
32.46400	2413.00000
32.48100	2414.00000
32.49800	2529.00000
32.51500	2485.00000
32.53200	2500.00000
32.54900	2445.00000
32.56600	2407.00000
32.58300	2382.00000
32.60000	2320.00000
32.61700	2271.00000
32.63400	2191.00000
32.65100	2080.00000
32.66800	2033.00000
32.68500	1926.00000
32.70200	1863.00000
32.71900	1787.00000
32.73600	1744.00000
32.75300	1651.00000
32.77000	1587.00000
32.78700	1580.00000
32.80400	1537.00000
32.82100	1495.00000
32.83800	1448.00000
32.85500	1442.00000
32.87200	1423.00000
32.88900	1373.00000
32.90600	1363.00000
32.92300	1349.00000
32.94000	1315.00000
32.95700	1294.00000
32.97400	1288.00000
32.99100	1272.00000
33.00800	1275.00000
33.02500	1255.00000
33.04200	1219.00000
33.05900	1219.00000
33.07600	1230.00000
33.09300	1219.00000
33.11000	1220.00000
33.12700	1204.00000
33.14400	1190.00000
33.16100	1199.00000
33.17800	1207.00000
33.19500	1201.00000
33.21200	1178.00000
33.22900	1160.00000
33.24600	1144.00000
33.26300	1141.00000
33.28000	1100.00000
33.29700	1107.00000
33.31400	1093.00000
33.33100	1055.00000
33.34800	1074.00000
33.36500	1079.00000
33.38200	1083.00000
33.39900	1073.00000
33.41600	1082.00000
33.43300	1064.00000
33.45000	1074.00000
33.46700	1090.00000
33.48400	1081.00000
33.50100	1073.00000
33.51800	1129.00000
33.53500	1119.00000
33.55200	1104.00000
33.56900	1112.00000
33.58600	1135.00000
33.60300	1145.00000
33.62000	1147.00000
33.63700	1134.00000
33.65400	1183.00000
33.67100	1189.00000
33.68800	1215.00000
33.70500	1224.00000
33.72200	1204.00000
33.73900	1210.00000
33.75600	1276.00000
33.77300	1257.00000
33.79000	1294.00000
33.80700	1272.00000
33.82400	1247.00000
33.84100	1260.00000
33.85800	1256.00000
33.87500	1243.00000
33.89200	1241.00000
33.90900	1230.00000
33.92600	1212.00000
33.94300	1189.00000
33.96000	1189.00000
33.97700	1179.00000
33.99400	1159.00000
34.01100	1153.00000
34.02800	1153.00000
34.04500	1143.00000
34.06200	1132.00000
34.07900	1129.00000
34.09600	1130.00000
34.11300	1142.00000
34.13000	1152.00000
34.14700	1168.00000
34.16400	1181.00000
34.18100	1195.00000
34.19800	1218.00000
34.21500	1215.00000
34.23200	1242.00000
34.24900	1251.00000
34.26600	1272.00000
34.28300	1295.00000
34.30000	1306.00000
34.31700	1335.00000
34.33400	1310.00000
34.35100	1318.00000
34.36800	1347.00000
34.38500	1359.00000
34.40200	1380.00000
34.41900	1382.00000
34.43600	1390.00000
34.45300	1420.00000
34.47000	1420.00000
34.48700	1447.00000
34.50400	1477.00000
34.52100	1439.00000
34.53800	1444.00000
34.55500	1487.00000
34.57200	1442.00000
34.58900	1451.00000
34.60600	1426.00000
34.62300	1441.00000
34.64000	1438.00000
34.65700	1455.00000
34.67400	1472.00000
34.69100	1440.00000
34.70800	1434.00000
34.72500	1480.00000
34.74200	1533.00000
34.75900	1536.00000
34.77600	1543.00000
34.79300	1557.00000
34.81000	1579.00000
34.82700	1578.00000
34.84400	1553.00000
34.86100	1551.00000
34.87800	1559.00000
34.89500	1555.00000
34.91200	1515.00000
34.92900	1453.00000
34.94600	1412.00000
34.96300	1401.00000
34.98000	1381.00000
34.99700	1335.00000
35.01400	1278.00000
35.03100	1244.00000
35.04800	1207.00000
35.06500	1174.00000
35.08200	1131.00000
35.09900	1115.00000
35.11600	1116.00000
35.13300	1113.00000
35.15000	1097.00000
35.16700	1117.00000
35.18400	1131.00000
35.20100	1096.00000
35.21800	1100.00000
35.23500	1110.00000
35.25200	1125.00000
35.26900	1163.00000
35.28600	1176.00000
35.30300	1193.00000
35.32000	1195.00000
35.33700	1224.00000
35.35400	1246.00000
35.37100	1275.00000
35.38800	1255.00000
35.40500	1292.00000
35.42200	1321.00000
35.43900	1304.00000
35.45600	1287.00000
35.47300	1327.00000
35.49000	1292.00000
35.50700	1339.00000
35.52400	1262.00000
35.54100	1240.00000
35.55800	1197.00000
35.57500	1183.00000
35.59200	1164.00000
35.60900	1111.00000
35.62600	1118.00000
35.64300	1092.00000
35.66000	1072.00000
35.67700	1083.00000
35.69400	1047.00000
35.71100	1057.00000
35.72800	1047.00000
35.74500	1065.00000
35.76200	1042.00000
35.77900	1008.00000
35.79600	1010.00000
35.81300	1004.00000
35.83000	1012.00000
35.84700	1008.00000
35.86400	1009.00000
35.88100	1011.00000
35.89800	1023.00000
35.91500	1004.00000
35.93200	993.00000
35.94900	992.00000
35.96600	979.00000
35.98300	971.00000
36.00000	975.00000
36.01700	974.00000
36.03400	985.00000
36.05100	988.00000
36.06800	956.00000
36.08500	945.00000
36.10200	944.00000
36.11900	928.00000
36.13600	907.00000
36.15300	920.00000
36.17000	924.00000
36.18700	901.00000
36.20400	929.00000
36.22100	915.00000
36.23800	893.00000
36.25500	926.00000
36.27200	929.00000
36.28900	915.00000
36.30600	918.00000
36.32300	932.00000
36.34000	957.00000
36.35700	949.00000
36.37400	942.00000
36.39100	952.00000
36.40800	956.00000
36.42500	959.00000
36.44200	959.00000
36.45900	966.00000
36.47600	989.00000
36.49300	997.00000
36.51000	990.00000
36.52700	1021.00000
36.54400	1015.00000
36.56100	1027.00000
36.57800	1056.00000
36.59500	1067.00000
36.61200	1086.00000
36.62900	1099.00000
36.64600	1129.00000
36.66300	1166.00000
36.68000	1173.00000
36.69700	1199.00000
36.71400	1259.00000
36.73100	1272.00000
36.74800	1296.00000
36.76500	1327.00000
36.78200	1353.00000
36.79900	1385.00000
36.81600	1378.00000
36.83300	1425.00000
36.85000	1478.00000
36.86700	1480.00000
36.88400	1505.00000
36.90100	1535.00000
36.91800	1537.00000
36.93500	1564.00000
36.95200	1547.00000
36.96900	1533.00000
36.98600	1535.00000
37.00300	1516.00000
37.02000	1495.00000
37.03700	1471.00000
37.05400	1417.00000
37.07100	1362.00000
37.08800	1344.00000
37.10500	1321.00000
37.12200	1302.00000
37.13900	1264.00000
37.15600	1237.00000
37.17300	1299.00000
37.19000	1266.00000
37.20700	1222.00000
37.22400	1240.00000
37.24100	1280.00000
37.25800	1259.00000
37.27500	1280.00000
37.29200	1251.00000
37.30900	1235.00000
37.32600	1233.00000
37.34300	1222.00000
37.36000	1214.00000
37.37700	1197.00000
37.39400	1125.00000
37.41100	1175.00000
37.42800	1167.00000
37.44500	1141.00000
37.46200	1143.00000
37.47900	1147.00000
37.49600	1135.00000
37.51300	1125.00000
37.53000	1154.00000
37.54700	1129.00000
37.56400	1167.00000
37.58100	1192.00000
37.59800	1175.00000
37.61500	1167.00000
37.63200	1155.00000
37.64900	1196.00000
37.66600	1192.00000
37.68300	1180.00000
37.70000	1177.00000
37.71700	1194.00000
37.73400	1197.00000
37.75100	1184.00000
37.76800	1212.00000
37.78500	1216.00000
37.80200	1205.00000
37.81900	1243.00000
37.83600	1276.00000
37.85300	1296.00000
37.87000	1340.00000
37.88700	1381.00000
37.90400	1429.00000
37.92100	1438.00000
37.93800	1470.00000
37.95500	1511.00000
37.97200	1510.00000
37.98900	1506.00000
38.00600	1500.00000
38.02300	1489.00000
38.04000	1488.00000
38.05700	1435.00000
38.07400	1408.00000
38.09100	1391.00000
38.10800	1345.00000
38.12500	1331.00000
38.14200	1308.00000
38.15900	1290.00000
38.17600	1257.00000
38.19300	1253.00000
38.21000	1238.00000
38.22700	1239.00000
38.24400	1222.00000
38.26100	1201.00000
38.27800	1179.00000
38.29500	1205.00000
38.31200	1222.00000
38.32900	1203.00000
38.34600	1223.00000
38.36300	1214.00000
38.38000	1193.00000
38.39700	1204.00000
38.41400	1235.00000
38.43100	1216.00000
38.44800	1256.00000
38.46500	1345.00000
38.48200	1432.00000
38.49900	1508.00000
38.51600	1594.00000
38.53300	1565.00000
38.55000	1527.00000
38.56700	1427.00000
38.58400	1379.00000
38.60100	1339.00000
38.61800	1318.00000
38.63500	1272.00000
38.65200	1241.00000
38.66900	1175.00000
38.68600	1119.00000
38.70300	1107.00000
38.72000	1085.00000
38.73700	1091.00000
38.75400	1097.00000
38.77100	1095.00000
38.78800	1075.00000
38.80500	1085.00000
38.82200	1122.00000
38.83900	1163.00000
38.85600	1204.00000
38.87300	1260.00000
38.89000	1292.00000
38.90700	1360.00000
38.92400	1421.00000
38.94100	1474.00000
38.95800	1542.00000
38.97500	1593.00000
38.99200	1649.00000
39.00900	1679.00000
39.02600	1729.00000
39.04300	1749.00000
39.06000	1778.00000
39.07700	1765.00000
39.09400	1740.00000
39.11100	1702.00000
39.12800	1666.00000
39.14500	1612.00000
39.16200	1569.00000
39.17900	1536.00000
39.19600	1477.00000
39.21300	1451.00000
39.23000	1400.00000
39.24700	1361.00000
39.26400	1301.00000
39.28100	1324.00000
39.29800	1244.00000
39.31500	1280.00000
39.33200	1278.00000
39.34900	1264.00000
39.36600	1251.00000
39.38300	1275.00000
39.40000	1306.00000
39.41700	1352.00000
39.43400	1359.00000
39.45100	1350.00000
39.46800	1387.00000
39.48500	1493.00000
39.50200	1443.00000
39.51900	1483.00000
39.53600	1457.00000
39.55300	1444.00000
39.57000	1465.00000
39.58700	1439.00000
39.60400	1454.00000
39.62100	1418.00000
39.63800	1386.00000
39.65500	1378.00000
39.67200	1371.00000
39.68900	1349.00000
39.70600	1317.00000
39.72300	1291.00000
39.74000	1264.00000
39.75700	1251.00000
39.77400	1268.00000
39.79100	1246.00000
39.80800	1270.00000
39.82500	1273.00000
39.84200	1289.00000
39.85900	1324.00000
39.87600	1335.00000
39.89300	1343.00000
39.91000	1394.00000
39.92700	1417.00000
39.94400	1434.00000
39.96100	1453.00000
39.97800	1487.00000
39.99500	1520.00000
40.01200	1511.00000
40.02900	1501.00000
40.04600	1473.00000
40.06300	1478.00000
40.08000	1467.00000
40.09700	1457.00000
40.11400	1403.00000
40.13100	1369.00000
40.14800	1353.00000
40.16500	1324.00000
40.18200	1313.00000
40.19900	1271.00000
40.21600	1237.00000
40.23300	1221.00000
40.25000	1196.00000
40.26700	1182.00000
40.28400	1138.00000
40.30100	1152.00000
40.31800	1144.00000
40.33500	1128.00000
40.35200	1043.00000
40.36900	1080.00000
40.38600	1041.00000
40.40300	1083.00000
40.42000	1070.00000
40.43700	1075.00000
40.45400	1052.00000
40.47100	1047.00000
40.48800	1031.00000
40.50500	1050.00000
40.52200	1049.00000
40.53900	1047.00000
40.55600	1067.00000
40.57300	1073.00000
40.59000	1096.00000
40.60700	1041.00000
40.62400	1073.00000
40.64100	1039.00000
40.65800	1034.00000
40.67500	1056.00000
40.69200	1069.00000
40.70900	1054.00000
40.72600	1063.00000
40.74300	1060.00000
40.76000	1037.00000
40.77700	1016.00000
40.79400	1018.00000
40.81100	1023.00000
40.82800	1016.00000
40.84500	987.00000
40.86200	988.00000
40.87900	991.00000
40.89600	992.00000
40.91300	966.00000
40.93000	956.00000
40.94700	959.00000
40.96400	957.00000
40.98100	946.00000
40.99800	932.00000
41.01500	909.00000
41.03200	917.00000
41.04900	926.00000
41.06600	925.00000
41.08300	917.00000
41.10000	924.00000
41.11700	930.00000
41.13400	935.00000
41.15100	943.00000
41.16800	933.00000
41.18500	931.00000
41.20200	948.00000
41.21900	984.00000
41.23600	979.00000
41.25300	977.00000
41.27000	966.00000
41.28700	988.00000
41.30400	1000.00000
41.32100	999.00000
41.33800	999.00000
41.35500	1016.00000
41.37200	1017.00000
41.38900	997.00000
41.40600	1019.00000
41.42300	994.00000
41.44000	999.00000
41.45700	963.00000
41.47400	949.00000
41.49100	960.00000
41.50800	943.00000
41.52500	955.00000
41.54200	968.00000
41.55900	927.00000
41.57600	893.00000
41.59300	920.00000
41.61000	962.00000
41.62700	952.00000
41.64400	961.00000
41.66100	965.00000
41.67800	1001.00000
41.69500	998.00000
41.71200	1030.00000
41.72900	1035.00000
41.74600	1056.00000
41.76300	1074.00000
41.78000	1090.00000
41.79700	1116.00000
41.81400	1153.00000
41.83100	1179.00000
41.84800	1184.00000
41.86500	1192.00000
41.88200	1227.00000
41.89900	1225.00000
41.91600	1207.00000
41.93300	1210.00000
41.95000	1211.00000
41.96700	1224.00000
41.98400	1225.00000
42.00100	1211.00000
42.01800	1164.00000
42.03500	1130.00000
42.05200	1123.00000
42.06900	1109.00000
42.08600	1122.00000
42.10300	1105.00000
42.12000	1076.00000
42.13700	1073.00000
42.15400	1063.00000
42.17100	1051.00000
42.18800	1026.00000
42.20500	1024.00000
42.22200	1021.00000
42.23900	1028.00000
42.25600	1014.00000
42.27300	997.00000
42.29000	980.00000
42.30700	1002.00000
42.32400	975.00000
42.34100	966.00000
42.35800	966.00000
42.37500	983.00000
42.39200	978.00000
42.40900	991.00000
42.42600	996.00000
42.44300	1008.00000
42.46000	1002.00000
42.47700	989.00000
42.49400	1007.00000
42.51100	1010.00000
42.52800	1008.00000
42.54500	1037.00000
42.56200	1022.00000
42.57900	1058.00000
42.59600	1092.00000
42.61300	1075.00000
42.63000	1056.00000
42.64700	1094.00000
42.66400	1118.00000
42.68100	1122.00000
42.69800	1149.00000
42.71500	1171.00000
42.73200	1175.00000
42.74900	1186.00000
42.76600	1202.00000
42.78300	1210.00000
42.80000	1220.00000
42.81700	1230.00000
42.83400	1229.00000
42.85100	1207.00000
42.86800	1191.00000
42.88500	1179.00000
42.90200	1220.00000
42.91900	1215.00000
42.93600	1164.00000
42.95300	1134.00000
42.97000	1125.00000
42.98700	1112.00000
43.00400	1103.00000
43.02100	1086.00000
43.03800	1085.00000
43.05500	1084.00000
43.07200	1092.00000
43.08900	1086.00000
43.10600	1051.00000
43.12300	1044.00000
43.14000	1059.00000
43.15700	1037.00000
43.17400	1018.00000
43.19100	1002.00000
43.20800	993.00000
43.22500	985.00000
43.24200	1003.00000
43.25900	937.00000
43.27600	977.00000
43.29300	944.00000
43.31000	926.00000
43.32700	925.00000
43.34400	909.00000
43.36100	882.00000
43.37800	914.00000
43.39500	876.00000
43.41200	879.00000
43.42900	901.00000
43.44600	868.00000
43.46300	912.00000
43.48000	863.00000
43.49700	881.00000
43.51400	880.00000
43.53100	892.00000
43.54800	891.00000
43.56500	878.00000
43.58200	882.00000
43.59900	924.00000
43.61600	896.00000
43.63300	873.00000
43.65000	864.00000
43.66700	871.00000
43.68400	864.00000
43.70100	866.00000
43.71800	855.00000
43.73500	855.00000
43.75200	852.00000
43.76900	863.00000
43.78600	838.00000
43.80300	828.00000
43.82000	851.00000
43.83700	841.00000
43.85400	841.00000
43.87100	870.00000
43.88800	888.00000
43.90500	868.00000
43.92200	855.00000
43.93900	867.00000
43.95600	884.00000
43.97300	879.00000
43.99000	914.00000
44.00700	951.00000
44.02400	933.00000
44.04100	905.00000
44.05800	915.00000
44.07500	918.00000
44.09200	914.00000
44.10900	925.00000
44.12600	922.00000
44.14300	946.00000
44.16000	917.00000
44.17700	937.00000
44.19400	915.00000
44.21100	905.00000
44.22800	882.00000
44.24500	900.00000
44.26200	888.00000
44.27900	869.00000
44.29600	883.00000
44.31300	892.00000
44.33000	872.00000
44.34700	870.00000
44.36400	896.00000
44.38100	866.00000
44.39800	907.00000
44.41500	888.00000
44.43200	901.00000
44.44900	903.00000
44.46600	924.00000
44.48300	925.00000
44.50000	931.00000
44.51700	945.00000
44.53400	977.00000
44.55100	978.00000
44.56800	994.00000
44.58500	987.00000
44.60200	993.00000
44.61900	1000.00000
44.63600	1030.00000
44.65300	1034.00000
44.67000	1033.00000
44.68700	1052.00000
44.70400	1078.00000
44.72100	1102.00000
44.73800	1086.00000
44.75500	1075.00000
44.77200	1096.00000
44.78900	1096.00000
44.80600	1084.00000
44.82300	1099.00000
44.84000	1110.00000
44.85700	1137.00000
44.87400	1155.00000
44.89100	1135.00000
44.90800	1114.00000
44.92500	1123.00000
44.94200	1165.00000
44.95900	1177.00000
44.97600	1191.00000
44.99300	1234.00000
45.01000	1253.00000
45.02700	1303.00000
45.04400	1296.00000
45.06100	1307.00000
45.07800	1330.00000
45.09500	1332.00000
45.11200	1350.00000
45.12900	1343.00000
45.14600	1317.00000
45.16300	1323.00000
45.18000	1309.00000
45.19700	1348.00000
45.21400	1322.00000
45.23100	1257.00000
45.24800	1268.00000
45.26500	1258.00000
45.28200	1238.00000
45.29900	1257.00000
45.31600	1192.00000
45.33300	1192.00000
45.35000	1158.00000
45.36700	1132.00000
45.38400	1132.00000
45.40100	1102.00000
45.41800	1086.00000
45.43500	1046.00000
45.45200	1033.00000
45.46900	1039.00000
45.48600	1026.00000
45.50300	993.00000
45.52000	982.00000
45.53700	993.00000
45.55400	976.00000
45.57100	955.00000
45.58800	960.00000
45.60500	964.00000
45.62200	936.00000
45.63900	917.00000
45.65600	933.00000
45.67300	946.00000
45.69000	931.00000
45.70700	935.00000
45.72400	919.00000
45.74100	910.00000
45.75800	915.00000
45.77500	930.00000
45.79200	954.00000
45.80900	964.00000
45.82600	947.00000
45.84300	943.00000
45.86000	964.00000
45.87700	973.00000
45.89400	968.00000
45.91100	1009.00000
45.92800	1030.00000
45.94500	1060.00000
45.96200	1089.00000
45.97900	1152.00000
45.99600	1203.00000
46.01300	1209.00000
46.03000	1286.00000
46.04700	1297.00000
46.06400	1311.00000
46.08100	1320.00000
46.09800	1346.00000
46.11500	1302.00000
46.13200	1281.00000
46.14900	1274.00000
46.16600	1276.00000
46.18300	1273.00000
46.20000	1226.00000
46.21700	1258.00000
46.23400	1197.00000
46.25100	1156.00000
46.26800	1135.00000
46.28500	1106.00000
46.30200	1131.00000
46.31900	1092.00000
46.33600	1092.00000
46.35300	1056.00000
46.37000	1076.00000
46.38700	1047.00000
46.40400	1063.00000
46.42100	1038.00000
46.43800	1054.00000
46.45500	1030.00000
46.47200	1001.00000
46.48900	1054.00000
46.50600	1005.00000
46.52300	997.00000
46.54000	1020.00000
46.55700	1031.00000
46.57400	1016.00000
46.59100	1010.00000
46.60800	1022.00000
46.62500	997.00000
46.64200	994.00000
46.65900	993.00000
46.67600	988.00000
46.69300	999.00000
46.71000	1010.00000
46.72700	1013.00000
46.74400	994.00000
46.76100	994.00000
46.77800	1001.00000
46.79500	984.00000
46.81200	966.00000
46.82900	969.00000
46.84600	969.00000
46.86300	961.00000
46.88000	991.00000
46.89700	1007.00000
46.91400	984.00000
46.93100	975.00000
46.94800	994.00000
46.96500	980.00000
46.98200	971.00000
46.99900	971.00000
47.01600	978.00000
47.03300	951.00000
47.05000	976.00000
47.06700	966.00000
47.08400	931.00000
47.10100	951.00000
47.11800	969.00000
47.13500	960.00000
47.15200	968.00000
47.16900	970.00000
47.18600	964.00000
47.20300	969.00000
47.22000	974.00000
47.23700	979.00000
47.25400	962.00000
47.27100	974.00000
47.28800	996.00000
47.30500	958.00000
47.32200	970.00000
47.33900	957.00000
47.35600	946.00000
47.37300	958.00000
47.39000	918.00000
47.40700	904.00000
47.42400	902.00000
47.44100	925.00000
47.45800	897.00000
47.47500	877.00000
47.49200	863.00000
47.50900	868.00000
47.52600	882.00000
47.54300	864.00000
47.56000	850.00000
47.57700	819.00000
47.59400	827.00000
47.61100	802.00000
47.62800	793.00000
47.64500	791.00000
47.66200	792.00000
47.67900	787.00000
47.69600	785.00000
47.71300	796.00000
47.73000	785.00000
47.74700	762.00000
47.76400	761.00000
47.78100	760.00000
47.79800	766.00000
47.81500	770.00000
47.83200	736.00000
47.84900	752.00000
47.86600	770.00000
47.88300	766.00000
47.90000	770.00000
47.91700	769.00000
47.93400	793.00000
47.95100	794.00000
47.96800	768.00000
47.98500	777.00000
48.00200	752.00000
48.01900	756.00000
48.03600	768.00000
48.05300	776.00000
48.07000	816.00000
48.08700	808.00000
48.10400	775.00000
48.12100	790.00000
48.13800	797.00000
48.15500	802.00000
48.17200	799.00000
48.18900	795.00000
48.20600	821.00000
48.22300	832.00000
48.24000	806.00000
48.25700	821.00000
48.27400	843.00000
48.29100	839.00000
48.30800	845.00000
48.32500	881.00000
48.34200	847.00000
48.35900	815.00000
48.37600	854.00000
48.39300	851.00000
48.41000	843.00000
48.42700	873.00000
48.44400	894.00000
48.46100	830.00000
48.47800	826.00000
48.49500	799.00000
48.51200	814.00000
48.52900	840.00000
48.54600	825.00000
48.56300	788.00000
48.58000	793.00000
48.59700	777.00000
48.61400	772.00000
48.63100	753.00000
48.64800	775.00000
48.66500	777.00000
48.68200	756.00000
48.69900	740.00000
48.71600	739.00000
48.73300	766.00000
48.75000	778.00000
48.76700	769.00000
48.78400	772.00000
48.80100	774.00000
48.81800	758.00000
48.83500	756.00000
48.85200	758.00000
48.86900	774.00000
48.88600	787.00000
48.90300	788.00000
48.92000	807.00000
48.93700	800.00000
48.95400	787.00000
48.97100	796.00000
48.98800	789.00000
49.00500	800.00000
49.02200	814.00000
49.03900	806.00000
49.05600	813.00000
49.07300	816.00000
49.09000	844.00000
49.10700	825.00000
49.12400	824.00000
49.14100	857.00000
49.15800	846.00000
49.17500	872.00000
49.19200	882.00000
49.20900	862.00000
49.22600	885.00000
49.24300	878.00000
49.26000	894.00000
49.27700	881.00000
49.29400	877.00000
49.31100	888.00000
49.32800	902.00000
49.34500	900.00000
49.36200	935.00000
49.37900	936.00000
49.39600	943.00000
49.41300	944.00000
49.43000	961.00000
49.44700	957.00000
49.46400	960.00000
49.48100	942.00000
49.49800	948.00000
49.51500	974.00000
49.53200	953.00000
49.54900	945.00000
49.56600	933.00000
49.58300	928.00000
49.60000	930.00000
49.61700	922.00000
49.63400	925.00000
49.65100	919.00000
49.66800	888.00000
49.68500	889.00000
49.70200	900.00000
49.71900	904.00000
49.73600	909.00000
49.75300	895.00000
49.77000	887.00000
49.78700	906.00000
49.80400	910.00000
49.82100	889.00000
49.83800	886.00000
49.85500	900.00000
49.87200	906.00000
49.88900	889.00000
49.90600	868.00000
49.92300	898.00000
49.94000	934.00000
49.95700	904.00000
49.97400	910.00000
49.99100	964.00000
50.00800	941.00000
50.02500	956.00000
50.04200	962.00000
50.05900	959.00000
50.07600	977.00000
50.09300	991.00000
50.11000	1000.00000
50.12700	1016.00000
50.14400	1041.00000
50.16100	1061.00000
50.17800	1027.00000
50.19500	1008.00000
50.21200	1038.00000
50.22900	1059.00000
50.24600	1014.00000
50.26300	1005.00000
50.28000	1012.00000
50.29700	1005.00000
50.31400	1023.00000
50.33100	1005.00000
50.34800	1009.00000
50.36500	1021.00000
50.38200	994.00000
50.39900	1015.00000
50.41600	962.00000
50.43300	980.00000
50.45000	1000.00000
50.46700	969.00000
50.48400	945.00000
50.50100	954.00000
50.51800	965.00000
50.53500	958.00000
50.55200	970.00000
50.56900	929.00000
50.58600	935.00000
50.60300	931.00000
50.62000	908.00000
50.63700	882.00000
50.65400	887.00000
50.67100	905.00000
50.68800	884.00000
50.70500	874.00000
50.72200	855.00000
50.73900	842.00000
50.75600	846.00000
50.77300	858.00000
50.79000	860.00000
50.80700	840.00000
50.82400	846.00000
50.84100	878.00000
50.85800	887.00000
50.87500	897.00000
50.89200	896.00000
50.90900	903.00000
50.92600	906.00000
50.94300	913.00000
50.96000	899.00000
50.97700	897.00000
50.99400	957.00000
51.01100	920.00000
51.02800	940.00000
51.04500	891.00000
51.06200	892.00000
51.07900	918.00000
51.09600	906.00000
51.11300	926.00000
51.13000	922.00000
51.14700	910.00000
51.16400	927.00000
51.18100	946.00000
51.19800	918.00000
51.21500	897.00000
51.23200	920.00000
51.24900	902.00000
51.26600	938.00000
51.28300	934.00000
51.30000	938.00000
51.31700	940.00000
51.33400	943.00000
51.35100	929.00000
51.36800	970.00000
51.38500	960.00000
51.40200	958.00000
51.41900	963.00000
51.43600	987.00000
51.45300	991.00000
51.47000	1004.00000
51.48700	981.00000
51.50400	972.00000
51.52100	962.00000
51.53800	957.00000
51.55500	942.00000
51.57200	936.00000
51.58900	925.00000
51.60600	901.00000
51.62300	896.00000
51.64000	879.00000
51.65700	865.00000
51.67400	840.00000
51.69100	826.00000
51.70800	811.00000
51.72500	793.00000
51.74200	782.00000
51.75900	780.00000
51.77600	761.00000
51.79300	776.00000
51.81000	791.00000
51.82700	798.00000
51.84400	766.00000
51.86100	748.00000
51.87800	767.00000
51.89500	759.00000
51.91200	769.00000
51.92900	773.00000
51.94600	775.00000
51.96300	777.00000
51.98000	783.00000
51.99700	776.00000
52.01400	786.00000
52.03100	779.00000
52.04800	791.00000
52.06500	801.00000
52.08200	788.00000
52.09900	798.00000
52.11600	788.00000
52.13300	788.00000
52.15000	777.00000
52.16700	801.00000
52.18400	790.00000
52.20100	782.00000
52.21800	797.00000
52.23500	793.00000
52.25200	819.00000
52.26900	788.00000
52.28600	779.00000
52.30300	797.00000
52.32000	788.00000
52.33700	760.00000
52.35400	777.00000
52.37100	783.00000
52.38800	770.00000
52.40500	754.00000
52.42200	759.00000
52.43900	774.00000
52.45600	750.00000
52.47300	767.00000
52.49000	748.00000
52.50700	733.00000
52.52400	732.00000
52.54100	713.00000
52.55800	728.00000
52.57500	738.00000
52.59200	731.00000
52.60900	731.00000
52.62600	711.00000
52.64300	719.00000
52.66000	726.00000
52.67700	710.00000
52.69400	708.00000
52.71100	712.00000
52.72800	711.00000
52.74500	700.00000
52.76200	701.00000
52.77900	704.00000
52.79600	696.00000
52.81300	687.00000
52.83000	683.00000
52.84700	702.00000
52.86400	705.00000
52.88100	700.00000
52.89800	697.00000
52.91500	696.00000
52.93200	680.00000
52.94900	680.00000
52.96600	703.00000
52.98300	707.00000
53.00000	718.00000
53.01700	700.00000
53.03400	714.00000
53.05100	720.00000
53.06800	738.00000
53.08500	732.00000
53.10200	741.00000
53.11900	741.00000
53.13600	723.00000
53.15300	726.00000
53.17000	755.00000
53.18700	762.00000
53.20400	770.00000
53.22100	780.00000
53.23800	785.00000
53.25500	759.00000
53.27200	780.00000
53.28900	811.00000
53.30600	784.00000
53.32300	762.00000
53.34000	766.00000
53.35700	766.00000
53.37400	744.00000
53.39100	745.00000
53.40800	750.00000
53.42500	760.00000
53.44200	756.00000
53.45900	763.00000
53.47600	766.00000
53.49300	756.00000
53.51000	748.00000
53.52700	745.00000
53.54400	740.00000
53.56100	723.00000
53.57800	714.00000
53.59500	730.00000
53.61200	735.00000
53.62900	710.00000
53.64600	703.00000
53.66300	726.00000
53.68000	730.00000
53.69700	730.00000
53.71400	711.00000
53.73100	700.00000
53.74800	705.00000
53.76500	697.00000
53.78200	702.00000
53.79900	698.00000
53.81600	684.00000
53.83300	680.00000
53.85000	656.00000
53.86700	667.00000
53.88400	654.00000
53.90100	664.00000
53.91800	678.00000
53.93500	665.00000
53.95200	693.00000
53.96900	681.00000
53.98600	672.00000
54.00300	661.00000
54.02000	646.00000
54.03700	658.00000
54.05400	660.00000
54.07100	661.00000
54.08800	669.00000
54.10500	664.00000
54.12200	648.00000
54.13900	633.00000
54.15600	655.00000
54.17300	638.00000
54.19000	639.00000
54.20700	633.00000
54.22400	646.00000
54.24100	619.00000
54.25800	627.00000
54.27500	615.00000
54.29200	634.00000
54.30900	613.00000
54.32600	610.00000
54.34300	615.00000
54.36000	601.00000
54.37700	618.00000
54.39400	610.00000
54.41100	608.00000
54.42800	621.00000
54.44500	596.00000
54.46200	609.00000
54.47900	617.00000
54.49600	605.00000
54.51300	598.00000
54.53000	594.00000
54.54700	587.00000
54.56400	607.00000
54.58100	603.00000
54.59800	597.00000
54.61500	614.00000
54.63200	609.00000
54.64900	601.00000
54.66600	607.00000
54.68300	606.00000
54.70000	599.00000
54.71700	606.00000
54.73400	619.00000
54.75100	601.00000
54.76800	582.00000
54.78500	584.00000
54.80200	599.00000
54.81900	598.00000
54.83600	612.00000
54.85300	609.00000
54.87000	595.00000
54.88700	606.00000
54.90400	610.00000
54.92100	622.00000
54.93800	629.00000
54.95500	614.00000
54.97200	627.00000
54.98900	630.00000
55.00600	611.00000
55.02300	634.00000
55.04000	618.00000
55.05700	624.00000
55.07400	637.00000
55.09100	632.00000
55.10800	629.00000
55.12500	623.00000
55.14200	613.00000
55.15900	632.00000
55.17600	636.00000
55.19300	615.00000
55.21000	618.00000
55.22700	637.00000
55.24400	630.00000
55.26100	645.00000
55.27800	626.00000
55.29500	622.00000
55.31200	660.00000
55.32900	644.00000
55.34600	622.00000
55.36300	619.00000
55.38000	623.00000
55.39700	620.00000
55.41400	634.00000
55.43100	657.00000
55.44800	639.00000
55.46500	627.00000
55.48200	645.00000
55.49900	643.00000
55.51600	619.00000
55.53300	626.00000
55.55000	636.00000
55.56700	631.00000
55.58400	647.00000
55.60100	638.00000
55.61800	632.00000
55.63500	638.00000
55.65200	649.00000
55.66900	642.00000
55.68600	630.00000
55.70300	645.00000
55.72000	657.00000
55.73700	639.00000
55.75400	627.00000
55.77100	660.00000
55.78800	650.00000
55.80500	652.00000
55.82200	682.00000
55.83900	670.00000
55.85600	641.00000
55.87300	646.00000
55.89000	662.00000
55.90700	660.00000
55.92400	654.00000
55.94100	655.00000
55.95800	664.00000
55.97500	678.00000
55.99200	678.00000
56.00900	666.00000
56.02600	682.00000
56.04300	663.00000
56.06000	666.00000
56.07700	682.00000
56.09400	679.00000
56.11100	667.00000
56.12800	676.00000
56.14500	703.00000
56.16200	671.00000
56.17900	675.00000
56.19600	691.00000
56.21300	720.00000
56.23000	722.00000
56.24700	705.00000
56.26400	694.00000
56.28100	687.00000
56.29800	688.00000
56.31500	703.00000
56.33200	692.00000
56.34900	697.00000
56.36600	707.00000
56.38300	702.00000
56.40000	706.00000
56.41700	712.00000
56.43400	714.00000
56.45100	693.00000
56.46800	685.00000
56.48500	663.00000
56.50200	658.00000
56.51900	649.00000
56.53600	665.00000
56.55300	661.00000
56.57000	651.00000
56.58700	658.00000
56.60400	670.00000
56.62100	682.00000
56.63800	666.00000
56.65500	658.00000
56.67200	654.00000
56.68900	644.00000
56.70600	639.00000
56.72300	630.00000
56.74000	630.00000
56.75700	634.00000
56.77400	634.00000
56.79100	640.00000
56.80800	649.00000
56.82500	655.00000
56.84200	623.00000
56.85900	645.00000
56.87600	643.00000
56.89300	633.00000
56.91000	639.00000
56.92700	640.00000
56.94400	624.00000
56.96100	643.00000
56.97800	645.00000
56.99500	626.00000
57.01200	625.00000
57.02900	631.00000
57.04600	626.00000
57.06300	652.00000
57.08000	640.00000
57.09700	672.00000
57.11400	673.00000
57.13100	680.00000
57.14800	692.00000
57.16500	677.00000
57.18200	693.00000
57.19900	688.00000
57.21600	719.00000
57.23300	709.00000
57.25000	717.00000
57.26700	725.00000
57.28400	720.00000
57.30100	725.00000
57.31800	720.00000
57.33500	708.00000
57.35200	701.00000
57.36900	702.00000
57.38600	726.00000
57.40300	711.00000
57.42000	675.00000
57.43700	703.00000
57.45400	689.00000
57.47100	690.00000
57.48800	679.00000
57.50500	671.00000
57.52200	665.00000
57.53900	672.00000
57.55600	666.00000
57.57300	661.00000
57.59000	662.00000
57.60700	660.00000
57.62400	640.00000
57.64100	629.00000
57.65800	656.00000
57.67500	658.00000
57.69200	659.00000
57.70900	651.00000
57.72600	640.00000
57.74300	648.00000
57.76000	654.00000
57.77700	639.00000
57.79400	628.00000
57.81100	632.00000
57.82800	618.00000
57.84500	624.00000
57.86200	639.00000
57.87900	621.00000
57.89600	600.00000
57.91300	601.00000
57.93000	590.00000
57.94700	606.00000
57.96400	591.00000
57.98100	613.00000
57.99800	596.00000
58.01500	584.00000
58.03200	597.00000
58.04900	627.00000
58.06600	622.00000
58.08300	586.00000
58.10000	601.00000
58.11700	604.00000
58.13400	601.00000
58.15100	617.00000
58.16800	597.00000
58.18500	572.00000
58.20200	594.00000
58.21900	599.00000
58.23600	591.00000
58.25300	592.00000
58.27000	577.00000
58.28700	596.00000
58.30400	598.00000
58.32100	578.00000
58.33800	594.00000
58.35500	603.00000
58.37200	595.00000
58.38900	590.00000
58.40600	588.00000
58.42300	599.00000
58.44000	591.00000
58.45700	580.00000
58.47400	585.00000
58.49100	589.00000
58.50800	585.00000
58.52500	581.00000
58.54200	580.00000
58.55900	583.00000
58.57600	580.00000
58.59300	568.00000
58.61000	567.00000
58.62700	570.00000
58.64400	555.00000
58.66100	551.00000
58.67800	571.00000
58.69500	568.00000
58.71200	545.00000
58.72900	550.00000
58.74600	533.00000
58.76300	541.00000
58.78000	532.00000
58.79700	541.00000
58.81400	537.00000
58.83100	520.00000
58.84800	532.00000
58.86500	520.00000
58.88200	524.00000
58.89900	535.00000
58.91600	538.00000
58.93300	525.00000
58.95000	516.00000
58.96700	520.00000
58.98400	520.00000
59.00100	532.00000
59.01800	535.00000
59.03500	509.00000
59.05200	507.00000
59.06900	534.00000
59.08600	510.00000
59.10300	526.00000
59.12000	520.00000
59.13700	522.00000
59.15400	527.00000
59.17100	529.00000
59.18800	526.00000
59.20500	532.00000
59.22200	530.00000
59.23900	523.00000
59.25600	523.00000
59.27300	544.00000
59.29000	549.00000
59.30700	541.00000
59.32400	558.00000
59.34100	557.00000
59.35800	537.00000
59.37500	538.00000
59.39200	547.00000
59.40900	545.00000
59.42600	542.00000
59.44300	540.00000
59.46000	534.00000
59.47700	537.00000
59.49400	516.00000
59.51100	522.00000
59.52800	523.00000
59.54500	521.00000
59.56200	531.00000
59.57900	526.00000
59.59600	525.00000
59.61300	521.00000
59.63000	512.00000
59.64700	518.00000
59.66400	521.00000
59.68100	524.00000
59.69800	525.00000
59.71500	516.00000
59.73200	500.00000
59.74900	511.00000
59.76600	529.00000
59.78300	521.00000
59.80000	526.00000
59.81700	522.00000
59.83400	522.00000
59.85100	526.00000
59.86800	511.00000
59.88500	519.00000
59.90200	527.00000
59.91900	527.00000
59.93600	524.00000
59.95300	530.00000
59.97000	536.00000
59.98700	513.00000
60.00400	539.00000
60.02100	519.00000
60.03800	522.00000
60.05500	540.00000
60.07200	538.00000
60.08900	524.00000
60.10600	511.00000
60.12300	535.00000
60.14000	538.00000
60.15700	531.00000
60.17400	531.00000
60.19100	517.00000
60.20800	520.00000
60.22500	533.00000
60.24200	510.00000
60.25900	503.00000
60.27600	526.00000
60.29300	514.00000
60.31000	508.00000
60.32700	517.00000
60.34400	530.00000
60.36100	531.00000
60.37800	520.00000
60.39500	502.00000
60.41200	509.00000
60.42900	512.00000
60.44600	515.00000
60.46300	517.00000
60.48000	503.00000
60.49700	500.00000
60.51400	514.00000
60.53100	497.00000
60.54800	490.00000
60.56500	502.00000
60.58200	516.00000
60.59900	514.00000
60.61600	500.00000
60.63300	499.00000
60.65000	500.00000
60.66700	507.00000
60.68400	492.00000
60.70100	494.00000
60.71800	490.00000
60.73500	489.00000
60.75200	495.00000
60.76900	495.00000
60.78600	500.00000
60.80300	509.00000
60.82000	495.00000
60.83700	503.00000
60.85400	493.00000
60.87100	491.00000
60.88800	493.00000
60.90500	500.00000
60.92200	496.00000
60.93900	503.00000
60.95600	491.00000
60.97300	463.00000
60.99000	499.00000
61.00700	490.00000
61.02400	501.00000
61.04100	493.00000
61.05800	490.00000
61.07500	489.00000
61.09200	486.00000
61.10900	480.00000
61.12600	504.00000
61.14300	499.00000
61.16000	491.00000
61.17700	500.00000
61.19400	496.00000
61.21100	506.00000
61.22800	489.00000
61.24500	490.00000
61.26200	495.00000
61.27900	515.00000
61.29600	506.00000
61.31300	488.00000
61.33000	481.00000
61.34700	506.00000
61.36400	482.00000
61.38100	479.00000
61.39800	485.00000
61.41500	479.00000
61.43200	486.00000
61.44900	484.00000
61.46600	477.00000
61.48300	478.00000
61.50000	500.00000
61.51700	499.00000
61.53400	498.00000
61.55100	485.00000
61.56800	487.00000
61.58500	482.00000
61.60200	463.00000
61.61900	482.00000
61.63600	486.00000
61.65300	481.00000
61.67000	478.00000
61.68700	481.00000
61.70400	480.00000
61.72100	477.00000
61.73800	481.00000
61.75500	478.00000
61.77200	479.00000
61.78900	467.00000
61.80600	484.00000
61.82300	485.00000
61.84000	483.00000
61.85700	490.00000
61.87400	469.00000
61.89100	470.00000
61.90800	500.00000
61.92500	471.00000
61.94200	475.00000
61.95900	476.00000
61.97600	484.00000
61.99300	470.00000
62.01000	450.00000
62.02700	484.00000
62.04400	470.00000
62.06100	468.00000
62.07800	475.00000
62.09500	440.00000
62.11200	456.00000
62.12900	465.00000
62.14600	451.00000
62.16300	475.00000
62.18000	469.00000
62.19700	482.00000
62.21400	482.00000
62.23100	465.00000
62.24800	485.00000
62.26500	472.00000
62.28200	463.00000
62.29900	453.00000
62.31600	462.00000
62.33300	468.00000
62.35000	470.00000
62.36700	449.00000
62.38400	447.00000
62.40100	458.00000
62.41800	455.00000
62.43500	473.00000
62.45200	475.00000
62.46900	459.00000
62.48600	467.00000
62.50300	468.00000
62.52000	457.00000
62.53700	467.00000
62.55400	470.00000
62.57100	462.00000
62.58800	484.00000
62.60500	480.00000
62.62200	470.00000
62.63900	482.00000
62.65600	462.00000
62.67300	457.00000
62.69000	481.00000
62.70700	491.00000
62.72400	484.00000
62.74100	482.00000
62.75800	477.00000
62.77500	477.00000
62.79200	455.00000
62.80900	472.00000
62.82600	478.00000
62.84300	491.00000
62.86000	487.00000
62.87700	500.00000
62.89400	513.00000
62.91100	497.00000
62.92800	488.00000
62.94500	499.00000
62.96200	497.00000
62.97900	483.00000
62.99600	478.00000
63.01300	483.00000
63.03000	479.00000
63.04700	466.00000
63.06400	497.00000
63.08100	477.00000
63.09800	475.00000
63.11500	482.00000
63.13200	491.00000
63.14900	481.00000
63.16600	496.00000
63.18300	480.00000
63.20000	463.00000
63.21700	485.00000
63.23400	492.00000
63.25100	488.00000
63.26800	498.00000
63.28500	498.00000
63.30200	502.00000
63.31900	491.00000
63.33600	501.00000
63.35300	497.00000
63.37000	490.00000
63.38700	501.00000
63.40400	495.00000
63.42100	489.00000
63.43800	499.00000
63.45500	518.00000
63.47200	504.00000
63.48900	488.00000
63.50600	485.00000
63.52300	502.00000
63.54000	516.00000
63.55700	505.00000
63.57400	493.00000
63.59100	501.00000
63.60800	502.00000
63.62500	478.00000
63.64200	478.00000
63.65900	491.00000
63.67600	501.00000
63.69300	500.00000
63.71000	500.00000
63.72700	500.00000
63.74400	512.00000
63.76100	518.00000
63.77800	505.00000
63.79500	517.00000
63.81200	490.00000
63.82900	478.00000
63.84600	505.00000
63.86300	516.00000
63.88000	530.00000
63.89700	504.00000
63.91400	496.00000
63.93100	501.00000
63.94800	525.00000
63.96500	516.00000
63.98200	510.00000
63.99900	524.00000
64.01600	533.00000
64.03300	508.00000
64.05000	516.00000
64.06700	511.00000
64.08400	495.00000
64.10100	495.00000
64.11800	488.00000
64.13500	503.00000
64.15200	464.00000
64.16900	500.00000
64.18600	497.00000
64.20300	483.00000
64.22000	484.00000
64.23700	489.00000
64.25400	482.00000
64.27100	498.00000
64.28800	486.00000
64.30500	478.00000
64.32200	472.00000
64.33900	466.00000
64.35600	470.00000
64.37300	476.00000
64.39000	482.00000
64.40700	484.00000
64.42400	479.00000
64.44100	471.00000
64.45800	467.00000
64.47500	476.00000
64.49200	465.00000
64.50900	472.00000
64.52600	482.00000
64.54300	472.00000
64.56000	468.00000
64.57700	494.00000
64.59400	501.00000
64.61100	470.00000
64.62800	482.00000
64.64500	493.00000
64.66200	482.00000
64.67900	466.00000
64.69600	470.00000
64.71300	472.00000
64.73000	469.00000
64.74700	478.00000
64.76400	492.00000
64.78100	471.00000
64.79800	469.00000
64.81500	467.00000
64.83200	469.00000
64.84900	466.00000
64.86600	451.00000
64.88300	458.00000
64.90000	461.00000
64.91700	482.00000
64.93400	459.00000
64.95100	465.00000
64.96800	461.00000
64.98500	476.00000
65.00200	487.00000
65.01900	474.00000
65.03600	474.00000
65.05300	491.00000
65.07000	456.00000
65.08700	481.00000
65.10400	494.00000
65.12100	478.00000
65.13800	478.00000
65.15500	465.00000
65.17200	475.00000
65.18900	476.00000
65.20600	478.00000
65.22300	451.00000
65.24000	462.00000
65.25700	448.00000
65.27400	458.00000
65.29100	457.00000
65.30800	453.00000
65.32500	462.00000
65.34200	469.00000
65.35900	463.00000
65.37600	452.00000
65.39300	453.00000
65.41000	466.00000
65.42700	469.00000
65.44400	461.00000
65.46100	470.00000
65.47800	469.00000
65.49500	456.00000
65.51200	457.00000
65.52900	455.00000
65.54600	455.00000
65.56300	463.00000
65.58000	462.00000
65.59700	458.00000
65.61400	456.00000
65.63100	465.00000
65.64800	473.00000
65.66500	472.00000
65.68200	467.00000
65.69900	461.00000
65.71600	458.00000
65.73300	449.00000
65.75000	434.00000
65.76700	433.00000
65.78400	439.00000
65.80100	446.00000
65.81800	451.00000
65.83500	459.00000
65.85200	489.00000
65.86900	461.00000
65.88600	463.00000
65.90300	476.00000
65.92000	468.00000
65.93700	460.00000
65.95400	457.00000
65.97100	441.00000
65.98800	481.00000
66.00500	481.00000
66.02200	454.00000
66.03900	459.00000
66.05600	450.00000
66.07300	460.00000
66.09000	467.00000
66.10700	432.00000
66.12400	446.00000
66.14100	462.00000
66.15800	454.00000
66.17500	456.00000
66.19200	431.00000
66.20900	447.00000
66.22600	460.00000
66.24300	461.00000
66.26000	470.00000
66.27700	483.00000
66.29400	470.00000
66.31100	453.00000
66.32800	454.00000
66.34500	451.00000
66.36200	461.00000
66.37900	462.00000
66.39600	458.00000
66.41300	465.00000
66.43000	466.00000
66.44700	476.00000
66.46400	462.00000
66.48100	442.00000
66.49800	463.00000
66.51500	467.00000
66.53200	451.00000
66.54900	455.00000
66.56600	461.00000
66.58300	463.00000
66.60000	460.00000
66.61700	456.00000
66.63400	445.00000
66.65100	460.00000
66.66800	456.00000
66.68500	450.00000
66.70200	456.00000
66.71900	453.00000
66.73600	461.00000
66.75300	449.00000
66.77000	464.00000
66.78700	451.00000
66.80400	469.00000
66.82100	454.00000
66.83800	449.00000
66.85500	464.00000
66.87200	454.00000
66.88900	430.00000
66.90600	436.00000
66.92300	433.00000
66.94000	462.00000
66.95700	444.00000
66.97400	446.00000
66.99100	427.00000
67.00800	437.00000
67.02500	450.00000
67.04200	439.00000
67.05900	449.00000
67.07600	442.00000
67.09300	437.00000
67.11000	421.00000
67.12700	427.00000
67.14400	433.00000
67.16100	414.00000
67.17800	426.00000
67.19500	442.00000
67.21200	432.00000
67.22900	431.00000
67.24600	443.00000
67.26300	446.00000
67.28000	439.00000
67.29700	444.00000
67.31400	435.00000
67.33100	434.00000
67.34800	423.00000
67.36500	428.00000
67.38200	446.00000
67.39900	444.00000
67.41600	439.00000
67.43300	435.00000
67.45000	437.00000
67.46700	456.00000
67.48400	465.00000
67.50100	465.00000
67.51800	454.00000
67.53500	446.00000
67.55200	432.00000
67.56900	432.00000
67.58600	450.00000
67.60300	457.00000
67.62000	447.00000
67.63700	435.00000
67.65400	439.00000
67.67100	431.00000
67.68800	439.00000
67.70500	439.00000
67.72200	438.00000
67.73900	443.00000
67.75600	430.00000
67.77300	453.00000
67.79000	443.00000
67.80700	444.00000
67.82400	439.00000
67.84100	450.00000
67.85800	453.00000
67.87500	459.00000
67.89200	458.00000
67.90900	446.00000
67.92600	433.00000
67.94300	463.00000
67.96000	446.00000
67.97700	444.00000
67.99400	449.00000
68.01100	453.00000
68.02800	451.00000
68.04500	456.00000
68.06200	451.00000
68.07900	475.00000
68.09600	449.00000
68.11300	449.00000
68.13000	451.00000
68.14700	451.00000
68.16400	442.00000
68.18100	432.00000
68.19800	443.00000
68.21500	443.00000
68.23200	433.00000
68.24900	430.00000
68.26600	429.00000
68.28300	439.00000
68.30000	444.00000
68.31700	436.00000
68.33400	439.00000
68.35100	427.00000
68.36800	428.00000
68.38500	434.00000
68.40200	430.00000
68.41900	425.00000
68.43600	446.00000
68.45300	439.00000
68.47000	428.00000
68.48700	432.00000
68.50400	425.00000
68.52100	424.00000
68.53800	425.00000
68.55500	440.00000
68.57200	445.00000
68.58900	420.00000
68.60600	419.00000
68.62300	427.00000
68.64000	439.00000
68.65700	445.00000
68.67400	437.00000
68.69100	434.00000
68.70800	446.00000
68.72500	435.00000
68.74200	432.00000
68.75900	440.00000
68.77600	432.00000
68.79300	454.00000
68.81000	439.00000
68.82700	443.00000
68.84400	444.00000
68.86100	445.00000
68.87800	441.00000
68.89500	451.00000
68.91200	439.00000
68.92900	452.00000
68.94600	463.00000
68.96300	452.00000
68.98000	471.00000
68.99700	449.00000
69.01400	442.00000
69.03100	463.00000
69.04800	461.00000
69.06500	447.00000
69.08200	446.00000
69.09900	450.00000
69.11600	442.00000
69.13300	445.00000
69.15000	460.00000
69.16700	447.00000
69.18400	441.00000
69.20100	450.00000
69.21800	446.00000
69.23500	434.00000
69.25200	440.00000
69.26900	440.00000
69.28600	436.00000
69.30300	430.00000
69.32000	430.00000
69.33700	435.00000
69.35400	429.00000
69.37100	430.00000
69.38800	436.00000
69.40500	435.00000
69.42200	433.00000
69.43900	427.00000
69.45600	428.00000
69.47300	436.00000
69.49000	432.00000
69.50700	431.00000
69.52400	439.00000
69.54100	434.00000
69.55800	420.00000
69.57500	433.00000
69.59200	436.00000
69.60900	426.00000
69.62600	439.00000
69.64300	447.00000
69.66000	447.00000
69.67700	448.00000
69.69400	445.00000
69.71100	431.00000
69.72800	442.00000
69.74500	446.00000
69.76200	441.00000
69.77900	439.00000
69.79600	435.00000
69.81300	449.00000
69.83000	429.00000
69.84700	436.00000
69.86400	450.00000
69.88100	427.00000
69.89800	458.00000
69.91500	453.00000
69.93200	449.00000
69.94900	447.00000
69.96600	420.00000
69.98300	430.00000
70.00000	420.00000
70.01700	430.00000
70.03400	420.00000
70.05100	456.00000
70.06800	466.00000
70.08500	451.00000
70.10200	456.00000
70.11900	450.00000
70.13600	434.00000
70.15300	436.00000
70.17000	437.00000
70.18700	427.00000
70.20400	426.00000
70.22100	451.00000
70.23800	440.00000
70.25500	448.00000
70.27200	460.00000
70.28900	461.00000
70.30600	435.00000
70.32300	443.00000
70.34000	444.00000
70.35700	426.00000
70.37400	437.00000
70.39100	438.00000
70.40800	422.00000
70.42500	424.00000
70.44200	441.00000
70.45900	430.00000
70.47600	436.00000
70.49300	443.00000
70.51000	446.00000
70.52700	436.00000
70.54400	432.00000
70.56100	424.00000
70.57800	427.00000
70.59500	430.00000
70.61200	445.00000
70.62900	450.00000
70.64600	438.00000
70.66300	403.00000
70.68000	420.00000
70.69700	423.00000
70.71400	418.00000
70.73100	429.00000
70.74800	433.00000
70.76500	440.00000
70.78200	438.00000
70.79900	416.00000
70.81600	421.00000
70.83300	418.00000
70.85000	423.00000
70.86700	445.00000
70.88400	425.00000
70.90100	410.00000
70.91800	421.00000
70.93500	410.00000
70.95200	412.00000
70.96900	435.00000
70.98600	425.00000
71.00300	409.00000
71.02000	463.00000
71.03700	431.00000
71.05400	403.00000
71.07100	408.00000
71.08800	424.00000
71.10500	441.00000
71.12200	436.00000
71.13900	400.00000
71.15600	421.00000
71.17300	433.00000
71.19000	427.00000
71.20700	435.00000
71.22400	427.00000
71.24100	403.00000
71.25800	416.00000
71.27500	425.00000
71.29200	426.00000
71.30900	418.00000
71.32600	416.00000
71.34300	417.00000
71.36000	416.00000
71.37700	401.00000
71.39400	415.00000
71.41100	423.00000
71.42800	427.00000
71.44500	432.00000
71.46200	415.00000
71.47900	396.00000
71.49600	411.00000
71.51300	420.00000
71.53000	411.00000
71.54700	402.00000
71.56400	415.00000
71.58100	422.00000
71.59800	423.00000
71.61500	425.00000
71.63200	416.00000
71.64900	437.00000
71.66600	435.00000
71.68300	406.00000
71.70000	420.00000
71.71700	403.00000
71.73400	411.00000
71.75100	410.00000
71.76800	404.00000
71.78500	421.00000
71.80200	424.00000
71.81900	440.00000
71.83600	403.00000
71.85300	425.00000
71.87000	419.00000
71.88700	414.00000
71.90400	417.00000
71.92100	437.00000
71.93800	428.00000
71.95500	418.00000
71.97200	442.00000
71.98900	423.00000
72.00600	439.00000
72.02300	417.00000
72.04000	456.00000
72.05700	423.00000
72.07400	439.00000
72.09100	425.00000
72.10800	433.00000
72.12500	424.00000
72.14200	423.00000
72.15900	434.00000
72.17600	431.00000
72.19300	446.00000
72.21000	446.00000
72.22700	428.00000
72.24400	432.00000
72.26100	428.00000
72.27800	417.00000
72.29500	416.00000
72.31200	413.00000
72.32900	426.00000
72.34600	436.00000
72.36300	423.00000
72.38000	420.00000
72.39700	421.00000
72.41400	408.00000
72.43100	409.00000
72.44800	412.00000
72.46500	418.00000
72.48200	424.00000
72.49900	429.00000
72.51600	436.00000
72.53300	434.00000
72.55000	425.00000
72.56700	423.00000
72.58400	425.00000
72.60100	426.00000
72.61800	437.00000
72.63500	432.00000
72.65200	442.00000
72.66900	431.00000
72.68600	448.00000
72.70300	443.00000
72.72000	449.00000
72.73700	443.00000
72.75400	453.00000
72.77100	436.00000
72.78800	428.00000
72.80500	433.00000
72.82200	407.00000
72.83900	422.00000
72.85600	445.00000
72.87300	441.00000
72.89000	412.00000
72.90700	419.00000
72.92400	422.00000
72.94100	419.00000
72.95800	437.00000
72.97500	414.00000
72.99200	405.00000
73.00900	430.00000
73.02600	406.00000
73.04300	430.00000
73.06000	433.00000
73.07700	426.00000
73.09400	418.00000
73.11100	425.00000
73.12800	413.00000
73.14500	428.00000
73.16200	428.00000
73.17900	439.00000
73.19600	431.00000
73.21300	426.00000
73.23000	415.00000
73.24700	425.00000
73.26400	425.00000
73.28100	428.00000
73.29800	429.00000
73.31500	434.00000
73.33200	433.00000
73.34900	428.00000
73.36600	422.00000
73.38300	420.00000
73.40000	429.00000
73.41700	431.00000
73.43400	437.00000
73.45100	439.00000
73.46800	432.00000
73.48500	436.00000
73.50200	461.00000
73.51900	449.00000
73.53600	453.00000
73.55300	447.00000
73.57000	442.00000
73.58700	443.00000
73.60400	453.00000
73.62100	443.00000
73.63800	422.00000
73.65500	460.00000
73.67200	479.00000
73.68900	436.00000
73.70600	448.00000
73.72300	447.00000
73.74000	438.00000
73.75700	451.00000
73.77400	448.00000
73.79100	460.00000
73.80800	450.00000
73.82500	452.00000
73.84200	430.00000
73.85900	433.00000
73.87600	447.00000
73.89300	449.00000
73.91000	434.00000
73.92700	436.00000
73.94400	431.00000
73.96100	439.00000
73.97800	436.00000
73.99500	440.00000
74.01200	440.00000
74.02900	437.00000
74.04600	454.00000
74.06300	451.00000
74.08000	446.00000
74.09700	424.00000
74.11400	423.00000
74.13100	432.00000
74.14800	452.00000
74.16500	453.00000
74.18200	441.00000
74.19900	433.00000
74.21600	443.00000
74.23300	436.00000
74.25000	424.00000
74.26700	436.00000
74.28400	429.00000
74.30100	427.00000
74.31800	423.00000
74.33500	418.00000
74.35200	420.00000
74.36900	430.00000
74.38600	443.00000
74.40300	444.00000
74.42000	442.00000
74.43700	422.00000
74.45400	417.00000
74.47100	410.00000
74.48800	411.00000
74.50500	411.00000
74.52200	416.00000
74.53900	405.00000
74.55600	412.00000
74.57300	417.00000
74.59000	420.00000
74.60700	426.00000
74.62400	426.00000
74.64100	433.00000
74.65800	438.00000
74.67500	417.00000
74.69200	421.00000
74.70900	431.00000
74.72600	411.00000
74.74300	432.00000
74.76000	421.00000
74.77700	423.00000
74.79400	411.00000
74.81100	414.00000
74.82800	422.00000
74.84500	420.00000
74.86200	433.00000
74.87900	445.00000
74.89600	439.00000
74.91300	430.00000
74.93000	438.00000
74.94700	415.00000
74.96400	439.00000
74.98100	421.00000
74.99800	437.00000
75.01500	437.00000
