3.00560	51.82000
3.01260	48.76000
3.02350	49.36000
3.03360	51.07000
3.04360	50.33000
3.05350	48.98000
3.06370	51.60000
3.07380	51.26000
3.08380	50.78000
3.09360	47.84000
3.10360	50.49000
3.11370	49.47000
3.12380	49.41000
3.13380	47.54000
3.14360	48.39000
3.15370	47.30000
3.16370	45.42000
3.17390	48.79000
3.18370	47.22000
3.19370	49.64000
3.20360	51.19000
3.21380	49.62000
3.22380	49.07000
3.23370	48.13000
3.24360	45.74000
3.25360	46.09000
3.26380	48.66000
3.27380	48.20000
3.28380	47.42000
3.29360	48.12000
3.30370	48.76000
3.31380	46.89000
3.32380	46.23000
3.33380	46.69000
3.34360	47.34000
3.35370	46.33000
3.36380	46.34000
3.37380	48.60000
3.38380	47.02000
3.39370	48.23000
3.40370	48.43000
3.41370	48.21000
3.42390	48.05000
3.43370	46.86000
3.44370	48.65000
3.45360	47.84000
3.46380	47.40000
3.47380	47.88000
3.48380	45.58000
3.49360	46.81000
3.50360	45.75000
3.51370	43.82000
3.52380	44.56000
3.53380	45.15000
3.54360	45.75000
3.55370	43.73000
3.56370	43.71000
3.57380	43.11000
3.58380	43.63000
3.59360	44.42000
3.60360	43.53000
3.61370	42.40000
3.62380	42.97000
3.63370	41.57000
3.64360	43.33000
3.65360	39.79000
3.66370	43.18000
3.67380	42.22000
3.68370	40.95000
3.69360	41.48000
3.70360	40.78000
3.71380	41.89000
3.72380	41.41000
3.73370	40.86000
3.74360	42.41000
3.75360	42.62000
3.76370	41.04000
3.77380	43.00000
3.78380	41.28000
3.79360	42.13000
3.80370	41.19000
3.81370	39.97000
3.82380	39.11000
3.83380	39.99000
3.84370	43.02000
3.85360	40.45000
3.86370	41.21000
3.87380	42.05000
3.88370	39.61000
3.89360	39.01000
3.90360	39.66000
3.91370	39.66000
3.92380	41.07000
3.93370	39.70000
3.94360	40.98000
3.95360	38.75000
3.96370	37.09000
3.97380	40.47000
3.98380	36.86000
3.99360	39.04000
4.00360	40.57000
4.01370	39.30000
4.02380	36.97000
4.03380	38.42000
4.04360	39.87000
4.05370	37.54000
4.06370	39.18000
4.07390	36.48000
4.08370	38.70000
4.09360	38.04000
4.10360	36.58000
4.11380	36.55000
4.12380	34.61000
4.13370	38.15000
4.14360	39.23000
4.15360	38.07000
4.16380	36.54000
4.17380	39.70000
4.18370	38.04000
4.19360	38.62000
4.20370	37.11000
4.21380	35.49000
4.22390	37.68000
4.23380	36.27000
4.24360	37.97000
4.25370	37.11000
4.26380	36.33000
4.27390	37.25000
4.28380	36.92000
4.29370	36.37000
4.30370	37.69000
4.31380	35.67000
4.32390	35.24000
4.33370	35.32000
4.34370	35.42000
4.35360	37.47000
4.36380	36.14000
4.37380	34.47000
4.38380	36.51000
4.39370	34.39000
4.40360	36.42000
4.41380	36.26000
4.42380	37.76000
4.43380	35.00000
4.44360	34.57000
4.45360	34.85000
4.46370	34.35000
4.47380	34.96000
4.48380	35.44000
4.49360	35.11000
4.50360	35.23000
4.51370	33.90000
4.52390	35.78000
4.53380	34.39000
4.54370	36.91000
4.55360	36.02000
4.56380	32.70000
4.57390	35.50000
4.58370	32.58000
4.59360	33.20000
4.60360	34.36000
4.61380	34.26000
4.62380	36.20000
4.63370	35.14000
4.64360	35.48000
4.65370	34.73000
4.66380	35.54000
4.67380	35.25000
4.68370	36.13000
4.69360	35.00000
4.70370	35.08000
4.71370	33.75000
4.72380	36.66000
4.73370	36.19000
4.74360	34.61000
4.75360	34.97000
4.76370	34.04000
4.77380	34.56000
4.78380	33.71000
4.79370	37.07000
4.80360	36.50000
4.81370	34.88000
4.82380	38.22000
4.83370	38.58000
4.84360	39.41000
4.85360	42.62000
4.86370	46.12000
4.87380	54.17000
4.88380	63.37000
4.89360	80.90000
4.90360	106.89000
4.91370	142.64000
4.92380	192.55000
4.93380	258.29000
4.94360	310.15000
4.95360	358.77000
4.96370	381.43000
4.97380	376.34000
4.98370	319.14000
4.99360	250.80000
5.00360	180.58000
5.01370	126.61000
5.02390	87.47000
5.03370	59.19000
5.04360	44.30000
5.05360	40.68000
5.06380	38.34000
5.07380	37.43000
5.08380	33.73000
5.09360	33.80000
5.10360	35.80000
5.11370	34.22000
5.12380	33.69000
5.13380	31.64000
5.14360	33.64000
5.15370	34.22000
5.16380	34.34000
5.17380	33.47000
5.18370	31.40000
5.19360	31.53000
5.20370	31.22000
5.21380	34.31000
5.22380	32.65000
5.23370	31.98000
5.24370	32.17000
5.25360	32.53000
5.26370	30.68000
5.27380	31.55000
5.28380	31.28000
5.29370	31.39000
5.30370	31.62000
5.31380	33.50000
5.32380	31.52000
5.33380	32.05000
5.34360	30.45000
5.35370	30.03000
5.36380	32.32000
5.37390	31.33000
5.38380	28.38000
5.39370	30.72000
5.40370	32.77000
5.41380	30.13000
5.42390	31.24000
5.43370	29.47000
5.44360	31.81000
5.45360	31.78000
5.46380	29.65000
5.47380	30.25000
5.48380	30.71000
5.49360	30.09000
5.50360	31.64000
5.51380	30.89000
5.52380	30.59000
5.53380	29.77000
5.54360	28.72000
5.55360	31.76000
5.56380	30.07000
5.57380	30.99000
5.58370	31.73000
5.59360	29.10000
5.60360	31.68000
5.61370	32.14000
5.62380	30.58000
5.63370	29.69000
5.64360	29.45000
5.65360	30.94000
5.66380	29.40000
5.67380	29.88000
5.68370	31.50000
5.69360	29.83000
5.70360	31.13000
5.71380	31.09000
5.72380	31.36000
5.73380	31.51000
5.74360	30.38000
5.75370	33.48000
5.76370	29.38000
5.77380	30.91000
5.78380	31.62000
5.79360	30.76000
5.80360	31.39000
5.81370	33.46000
5.82390	33.43000
5.83370	33.86000
5.84360	36.01000
5.85360	38.90000
5.86370	39.81000
5.87380	46.25000
5.88370	52.12000
5.89360	62.33000
5.90360	80.22000
5.91370	98.59000
5.92380	124.15000
5.93370	148.37000
5.94360	174.11000
5.95360	213.24000
5.96380	243.90000
5.97380	277.38000
5.98370	285.95000
5.99360	294.20000
6.00370	271.09000
6.01370	236.24000
6.02380	189.69000
6.03370	146.82000
6.04360	110.25000
6.05370	84.21000
6.06370	57.63000
6.07380	47.57000
6.08370	42.17000
6.09360	37.89000
6.10360	34.61000
6.11380	32.38000
6.12380	31.64000
6.13380	32.10000
6.14370	30.60000
6.15360	30.21000
6.16380	29.55000
6.17380	31.05000
6.18380	31.37000
6.19360	29.11000
6.20360	28.19000
6.21380	28.30000
6.22380	30.07000
6.23380	27.98000
6.24360	29.29000
6.25370	28.09000
6.26370	26.72000
6.27380	28.33000
6.28380	29.63000
6.29370	26.89000
6.30370	29.72000
6.31380	28.53000
6.32390	28.03000
6.33370	28.11000
6.34370	26.78000
6.35360	28.06000
6.36380	28.12000
6.37390	27.54000
6.38370	28.09000
6.39360	28.09000
6.40360	28.61000
6.41380	28.51000
6.42380	29.08000
6.43370	28.69000
6.44360	26.81000
6.45370	27.51000
6.46380	29.61000
6.47380	28.26000
6.48380	29.09000
6.49360	27.91000
6.50370	29.55000
6.51370	26.56000
6.52390	26.49000
6.53370	28.92000
6.54370	27.08000
6.55370	29.44000
6.56380	30.75000
6.57390	28.35000
6.58370	29.07000
6.59370	28.29000
6.60360	28.87000
6.61370	26.95000
6.62380	25.87000
6.63370	27.09000
6.64360	27.26000
6.65360	25.84000
6.66380	28.91000
6.67380	29.40000
6.68370	26.99000
6.69360	27.57000
6.70360	27.95000
6.71370	27.04000
6.72380	26.97000
6.73370	26.28000
6.74360	27.23000
6.75360	27.65000
6.76370	28.07000
6.77380	29.18000
6.78370	28.75000
6.79360	28.55000
6.80360	28.80000
6.81370	29.01000
6.82390	31.54000
6.83370	33.66000
6.84360	35.22000
6.85360	37.05000
6.86380	45.24000
6.87380	56.02000
6.88370	69.81000
6.89360	84.04000
6.90370	97.75000
6.91380	110.74000
6.92380	120.96000
6.93370	123.55000
6.94360	115.71000
6.95370	102.32000
6.96370	86.75000
6.97380	72.46000
6.98370	52.69000
6.99360	45.86000
7.00370	39.81000
7.01370	36.07000
7.02380	35.92000
7.03370	35.56000
7.04370	38.49000
7.05360	49.42000
7.06380	63.31000
7.07380	99.18000
7.08370	136.00000
7.09360	177.44000
7.10360	207.39000
7.11380	222.44000
7.12380	198.07000
7.13380	159.42000
7.14360	119.84000
7.15360	74.21000
7.16380	49.24000
7.17380	34.65000
7.18380	29.75000
7.19360	28.54000
7.20360	26.91000
7.21370	27.46000
7.22390	25.88000
7.23380	27.62000
7.24360	26.15000
7.25360	25.37000
7.26380	24.89000
7.27390	26.03000
7.28380	25.96000
7.29370	26.68000
7.30370	26.10000
7.31380	26.30000
7.32390	27.51000
7.33380	27.73000
7.34360	25.51000
7.35370	24.89000
7.36380	26.05000
7.37380	25.14000
7.38380	24.51000
7.39360	26.01000
7.40370	26.51000
7.41380	25.92000
7.42380	27.08000
7.43370	24.17000
7.44360	26.36000
7.45370	26.31000
7.46370	24.64000
7.47390	26.25000
7.48370	25.85000
7.49370	26.31000
7.50360	25.65000
7.51380	26.91000
7.52380	25.26000
7.53380	27.80000
7.54370	25.88000
7.55360	26.09000
7.56380	26.10000
7.57380	24.57000
7.58380	26.84000
7.59360	25.40000
7.60360	24.79000
7.61370	25.53000
7.62380	26.43000
7.63380	24.46000
7.64360	25.37000
7.65360	26.61000
7.66370	25.41000
7.67380	26.40000
7.68370	25.59000
7.69360	26.79000
7.70360	27.30000
7.71380	25.97000
7.72390	26.84000
7.73370	29.13000
7.74360	29.06000
7.75360	32.23000
7.76380	34.98000
7.77380	37.30000
7.78380	39.51000
7.79360	43.35000
7.80360	45.12000
7.81370	43.35000
7.82380	44.10000
7.83370	40.08000
7.84360	36.08000
7.85370	37.49000
7.86370	38.37000
7.87380	44.30000
7.88370	49.81000
7.89360	57.45000
7.90360	65.10000
7.91380	68.62000
7.92380	63.87000
7.93370	62.46000
7.94360	52.47000
7.95360	42.34000
7.96370	38.22000
7.97380	32.01000
7.98370	31.78000
7.99360	28.27000
8.00360	25.02000
8.01380	26.39000
8.02380	26.81000
8.03380	26.67000
8.04360	27.01000
8.05360	26.55000
8.06370	27.24000
8.07380	25.45000
8.08380	26.48000
8.09360	25.20000
8.10370	25.65000
8.11370	26.75000
8.12390	26.00000
8.13370	25.24000
8.14370	25.61000
8.15360	26.10000
8.16380	23.40000
8.17390	24.34000
8.18380	26.15000
8.19370	27.88000
8.20360	26.62000
8.21380	26.42000
8.22380	23.97000
8.23380	24.95000
8.24360	25.55000
8.25360	25.81000
8.26380	26.81000
8.27390	25.54000
8.28370	26.09000
8.29360	24.61000
8.30370	25.49000
8.31370	25.10000
8.32390	26.29000
8.33370	25.70000
8.34360	24.88000
8.35370	24.70000
8.36380	24.68000
8.37390	24.64000
8.38370	23.65000
8.39370	26.22000
8.40370	26.17000
8.41380	27.33000
8.42380	26.78000
8.43380	24.62000
8.44370	25.71000
8.45370	25.28000
8.46380	27.75000
8.47380	25.25000
8.48380	27.11000
8.49360	24.44000
8.50360	26.16000
8.51370	26.35000
8.52380	24.64000
8.53380	25.83000
8.54360	25.66000
8.55360	25.09000
8.56370	25.57000
8.57390	26.21000
8.58370	28.07000
8.59360	24.73000
8.60360	25.16000
8.61380	26.35000
8.62380	25.80000
8.63370	25.27000
8.64360	25.74000
8.65360	26.65000
8.66380	28.43000
8.67380	25.32000
8.68370	26.64000
8.69360	25.33000
8.70370	26.97000
8.71370	27.37000
8.72380	25.65000
8.73370	26.24000
8.74360	26.64000
8.75370	27.65000
8.76370	25.12000
8.77390	27.12000
8.78370	26.94000
8.79360	26.95000
8.80360	27.30000
8.81380	26.66000
8.82380	27.96000
8.83370	27.30000
8.84360	27.52000
8.85360	27.10000
8.86380	28.58000
8.87380	27.52000
8.88370	28.80000
8.89360	28.62000
8.90360	28.31000
8.91370	29.00000
8.92380	27.38000
8.93370	26.73000
8.94360	27.04000
8.95360	28.29000
8.96370	26.87000
8.97380	28.78000
8.98380	26.45000
8.99360	26.87000
9.00360	28.44000
9.01370	26.52000
9.02390	29.55000
9.03370	28.33000
9.04360	31.00000
9.05360	29.88000
9.06380	30.12000
9.07380	33.12000
9.08370	34.55000
9.09360	39.07000
9.10360	39.84000
9.11380	45.90000
9.12380	52.53000
9.13380	66.88000
9.14360	76.66000
9.15360	86.59000
9.16380	95.89000
9.17380	100.54000
9.18370	107.54000
9.19360	102.23000
9.20370	95.87000
9.21380	85.86000
9.22380	78.76000
9.23380	64.52000
9.24370	55.69000
9.25370	50.21000
9.26380	48.18000
9.27390	45.59000
9.28370	44.94000
9.29370	43.53000
9.30370	39.03000
9.31380	35.89000
9.32380	33.67000
9.33370	33.01000
9.34370	31.03000
9.35370	32.70000
9.36380	31.20000
9.37380	28.77000
9.38380	30.58000
9.39360	30.89000
9.40370	33.35000
9.41370	32.69000
9.42390	34.68000
9.43380	34.84000
9.44370	33.38000
9.45370	31.63000
9.46380	32.61000
9.47390	31.74000
9.48370	32.02000
9.49360	30.09000
9.50360	31.65000
9.51380	31.51000
9.52380	32.36000
9.53370	32.13000
9.54370	34.03000
9.55360	34.93000
9.56380	38.94000
9.57380	44.14000
9.58370	52.95000
9.59360	63.67000
9.60370	84.37000
9.61380	115.22000
9.62380	177.71000
9.63370	234.30000
9.64360	273.59000
9.65370	311.48000
9.66370	336.27000
9.67380	340.65000
9.68370	307.32000
9.69370	274.06000
9.70370	232.36000
9.71370	186.09000
9.72380	139.90000
9.73370	97.11000
9.74360	80.42000
9.75360	67.55000
9.76380	56.46000
9.77380	50.08000
9.78370	42.70000
9.79360	39.20000
9.80360	39.06000
9.81370	35.76000
9.82380	34.06000
9.83380	35.55000
9.84360	35.16000
9.85360	32.21000
9.86370	34.20000
9.87380	31.97000
9.88370	35.80000
9.89360	36.98000
9.90360	40.23000
9.91370	39.92000
9.92390	44.60000
9.93370	49.13000
9.94360	47.58000
9.95360	49.07000
9.96380	44.31000
9.97380	43.15000
9.98370	38.75000
9.99360	39.29000
10.00360	32.95000
10.01380	34.86000
10.02380	32.69000
10.03380	32.62000
10.04360	32.37000
10.05370	32.31000
10.06370	30.50000
10.07380	32.57000
10.08370	31.48000
10.09360	32.31000
10.10370	31.05000
10.11380	32.43000
10.12380	30.51000
10.13380	32.05000
10.14370	31.08000
10.15370	30.38000
10.16370	32.39000
10.17390	33.18000
10.18380	30.91000
10.19370	33.81000
10.20370	31.47000
10.21380	31.70000
10.22380	33.03000
10.23370	32.09000
10.24370	33.47000
10.25360	32.40000
10.26380	31.67000
10.27380	32.05000
10.28380	31.07000
10.29360	30.77000
10.30370	31.43000
10.31380	33.10000
10.32390	33.28000
10.33370	34.18000
10.34370	32.98000
10.35370	33.80000
10.36380	33.31000
10.37390	35.96000
10.38380	36.35000
10.39370	34.97000
10.40370	37.92000
10.41380	38.99000
10.42390	38.97000
10.43380	41.86000
10.44370	40.53000
10.45370	40.85000
10.46380	42.21000
10.47380	40.72000
10.48370	38.63000
10.49360	36.60000
10.50370	34.98000
10.51380	35.42000
10.52390	34.22000
10.53370	33.36000
10.54360	29.75000
10.55370	32.83000
10.56370	32.17000
10.57380	32.62000
10.58370	33.99000
10.59360	34.86000
10.60370	34.71000
10.61380	32.32000
10.62380	32.94000
10.63370	34.84000
10.64370	33.69000
10.65360	33.76000
10.66380	35.08000
10.67380	34.31000
10.68380	32.42000
10.69370	33.77000
10.70370	34.19000
10.71370	33.70000
10.72380	34.06000
10.73380	34.00000
10.74360	35.50000
10.75360	35.96000
10.76370	39.10000
10.77380	38.05000
10.78370	40.20000
10.79360	45.26000
10.80360	50.59000
10.81380	61.20000
10.82380	68.87000
10.83370	77.90000
10.84360	89.31000
10.85360	102.32000
10.86380	111.00000
10.87380	113.92000
10.88370	113.71000
10.89360	110.30000
10.90360	99.78000
10.91380	89.14000
10.92380	79.05000
10.93370	71.73000
10.94360	67.65000
10.95370	64.11000
10.96370	64.93000
10.97380	67.24000
10.98380	74.17000
10.99360	78.31000
11.00370	86.29000
11.01370	92.30000
11.02390	94.75000
11.03370	89.86000
11.04370	88.67000
11.05360	83.04000
11.06380	72.16000
11.07380	62.61000
11.08370	55.91000
11.09360	50.92000
11.10360	47.06000
11.11380	42.12000
11.12390	40.81000
11.13380	39.98000
11.14370	38.59000
11.15360	38.91000
11.16380	38.12000
11.17380	36.61000
11.18380	36.16000
11.19360	39.24000
11.20370	39.27000
11.21370	36.22000
11.22380	37.34000
11.23380	39.53000
11.24360	38.20000
11.25360	39.61000
11.26370	38.98000
11.27390	40.46000
11.28380	35.26000
11.29370	37.87000
11.30360	38.43000
11.31380	37.69000
11.32380	40.14000
11.33370	40.50000
11.34360	43.62000
11.35370	44.15000
11.36380	47.22000
11.37390	49.47000
11.38380	54.94000
11.39360	59.27000
11.40370	67.89000
11.41380	79.44000
11.42380	87.68000
11.43380	99.98000
11.44360	125.43000
11.45370	155.41000
11.46370	187.26000
11.47390	205.56000
11.48370	222.53000
11.49360	237.79000
11.50370	234.91000
11.51380	217.48000
11.52390	202.81000
11.53370	176.28000
11.54370	152.56000
11.55370	125.44000
11.56380	96.06000
11.57380	81.41000
11.58380	70.26000
11.59360	59.50000
11.60360	58.31000
11.61380	49.99000
11.62380	49.62000
11.63370	48.99000
11.64360	48.47000
11.65360	50.47000
11.66370	56.73000
11.67380	70.46000
11.68380	88.85000
11.69360	109.18000
11.70370	131.62000
11.71370	146.82000
11.72380	162.75000
11.73370	152.43000
11.74360	137.72000
11.75360	119.19000
11.76380	96.87000
11.77380	77.07000
11.78370	60.41000
11.79360	53.52000
11.80360	51.11000
11.81380	45.59000
11.82380	47.57000
11.83370	47.76000
11.84360	50.18000
11.85360	52.25000
11.86380	53.75000
11.87380	58.69000
11.88370	64.73000
11.89360	71.18000
11.90370	71.11000
11.91370	75.88000
11.92380	73.40000
11.93370	77.70000
11.94360	77.37000
11.95360	81.29000
11.96380	83.81000
11.97380	90.08000
11.98370	89.95000
11.99360	106.30000
12.00360	114.17000
12.01380	116.77000
12.02380	126.01000
12.03380	128.00000
12.04360	126.44000
12.05360	118.15000
12.06380	106.05000
12.07380	100.22000
12.08380	88.82000
12.09360	78.17000
12.10360	68.02000
12.11370	58.37000
12.12390	52.39000
12.13380	49.04000
12.14360	48.73000
12.15370	51.30000
12.16370	52.89000
12.17390	60.26000
12.18370	73.11000
12.19370	83.47000
12.20370	100.15000
12.21380	114.81000
12.22390	126.00000
12.23370	129.04000
12.24370	124.85000
12.25360	115.65000
12.26380	97.19000
12.27390	77.40000
12.28380	65.43000
12.29360	53.66000
12.30370	46.45000
12.31380	43.42000
12.32380	37.51000
12.33380	38.18000
12.34360	35.78000
12.35370	39.32000
12.36380	38.42000
12.37390	41.28000
12.38370	40.60000
12.39370	40.68000
12.40370	42.81000
12.41370	43.81000
12.42390	50.00000
12.43370	51.27000
12.44370	52.70000
12.45370	53.82000
12.46380	55.78000
12.47380	54.27000
12.48380	55.87000
12.49360	57.56000
12.50370	60.27000
12.51370	56.28000
12.52380	53.97000
12.53380	51.69000
12.54360	46.22000
12.55370	43.17000
12.56370	43.51000
12.57390	39.70000
12.58370	37.47000
12.59360	35.42000
12.60370	37.07000
12.61370	36.92000
12.62380	37.35000
12.63380	34.91000
12.64360	36.18000
12.65360	33.79000
12.66380	33.46000
12.67390	35.32000
12.68380	35.52000
12.69370	37.06000
12.70360	37.63000
12.71380	39.58000
12.72380	43.17000
12.73380	43.09000
12.74360	46.19000
12.75370	47.40000
12.76370	45.31000
12.77380	42.17000
12.78370	40.24000
12.79360	39.60000
12.80360	34.79000
12.81370	33.09000
12.82380	33.66000
12.83370	30.07000
12.84360	32.12000
12.85360	32.03000
12.86370	31.12000
12.87380	30.46000
12.88370	30.70000
12.89360	29.12000
12.90360	30.41000
12.91370	30.03000
12.92380	30.80000
12.93370	29.61000
12.94360	29.14000
12.95360	30.90000
12.96370	30.22000
12.97380	31.33000
12.98380	30.88000
12.99360	30.26000
13.00360	30.66000
13.01370	29.47000
13.02380	29.98000
13.03380	30.32000
13.04360	29.34000
13.05360	28.78000
13.06370	29.38000
13.07390	27.41000
13.08370	29.19000
13.09360	27.65000
13.10360	29.64000
13.11380	28.61000
13.12380	27.56000
13.13380	26.90000
13.14370	29.36000
13.15370	27.47000
13.16380	27.22000
13.17380	27.37000
13.18380	27.48000
13.19360	27.49000
13.20370	28.71000
13.21380	29.51000
13.22390	27.47000
13.23370	26.46000
13.24360	26.89000
13.25370	27.97000
13.26380	26.44000
13.27390	27.31000
13.28370	28.71000
13.29370	25.98000
13.30370	27.58000
13.31380	27.52000
13.32380	26.80000
13.33370	26.04000
13.34370	27.98000
13.35370	28.05000
13.36380	26.67000
13.37390	27.04000
13.38380	27.23000
13.39370	27.81000
13.40370	27.42000
13.41380	27.09000
13.42380	28.37000
13.43380	28.50000
13.44360	27.30000
13.45370	26.91000
13.46370	28.43000
13.47390	29.35000
13.48370	27.43000
13.49360	27.56000
13.50360	29.26000
13.51380	28.59000
13.52390	27.29000
13.53370	28.47000
13.54360	28.86000
13.55360	29.52000
13.56380	28.22000
13.57380	30.26000
13.58370	31.84000
13.59360	31.27000
13.60370	32.13000
13.61380	34.98000
13.62380	36.16000
13.63370	37.00000
13.64360	36.59000
13.65370	36.95000
13.66370	35.92000
13.67380	34.89000
13.68370	33.56000
13.69360	32.77000
13.70370	33.07000
13.71370	31.08000
13.72380	30.68000
13.73370	35.36000
13.74360	33.34000
13.75360	32.99000
13.76380	36.79000
13.77380	39.55000
13.78370	38.78000
13.79360	43.48000
13.80360	46.35000
13.81380	48.87000
13.82380	58.24000
13.83380	69.55000
13.84360	72.82000
13.85360	77.90000
13.86380	86.63000
13.87380	97.06000
13.88380	99.19000
13.89360	101.04000
13.90360	97.48000
13.91370	93.51000
13.92380	86.37000
13.93370	76.62000
13.94360	64.08000
13.95370	58.22000
13.96370	53.37000
13.97380	49.46000
13.98370	42.85000
13.99360	39.01000
14.00360	36.49000
14.01380	32.89000
14.02390	33.74000
14.03370	31.53000
14.04360	28.27000
14.05360	27.74000
14.06380	28.73000
14.07380	28.42000
14.08380	27.36000
14.09360	26.94000
14.10370	27.45000
14.11380	26.84000
14.12380	27.49000
14.13380	26.41000
14.14360	26.67000
14.15370	28.05000
14.16370	25.02000
14.17380	29.20000
14.18380	28.42000
14.19370	29.81000
14.20370	28.23000
14.21380	30.94000
14.22390	32.92000
14.23370	34.22000
14.24370	33.35000
14.25360	33.65000
14.26380	32.78000
14.27380	33.58000
14.28380	30.87000
14.29370	31.48000
14.30360	32.69000
14.31380	30.81000
14.32380	32.05000
14.33380	32.86000
14.34360	33.94000
14.35370	34.08000
14.36380	34.83000
14.37390	35.73000
14.38370	33.50000
14.39370	32.83000
14.40360	31.98000
14.41370	31.67000
14.42390	31.30000
14.43380	28.91000
14.44370	28.70000
14.45360	29.32000
14.46380	28.78000
14.47380	27.64000
14.48380	25.81000
14.49360	26.53000
14.50360	28.04000
14.51380	27.51000
14.52380	30.03000
14.53380	30.38000
14.54360	29.87000
14.55370	30.79000
14.56380	31.11000
14.57380	36.25000
14.58380	38.03000
14.59360	39.65000
14.60370	42.14000
14.61370	50.57000
14.62380	58.83000
14.63370	76.76000
14.64360	93.15000
14.65370	113.13000
14.66370	131.84000
14.67380	135.83000
14.68370	135.35000
14.69370	127.64000
14.70370	108.78000
14.71380	94.21000
14.72380	76.52000
14.73380	67.91000
14.74360	58.68000
14.75360	55.68000
14.76380	58.88000
14.77380	59.86000
14.78380	63.85000
14.79360	70.41000
14.80360	75.51000
14.81370	83.14000
14.82380	91.42000
14.83370	95.23000
14.84360	99.85000
14.85360	92.04000
14.86370	91.27000
14.87380	82.24000
14.88370	75.77000
14.89360	70.60000
14.90360	63.89000
14.91380	59.40000
14.92380	58.08000
14.93370	54.47000
14.94360	53.68000
14.95360	52.39000
14.96380	46.67000
14.97380	47.23000
14.98380	45.48000
14.99360	38.75000
15.00370	38.53000
15.01380	35.78000
15.02390	32.25000
15.03370	30.74000
15.04360	29.09000
15.05370	29.43000
15.06370	28.70000
15.07380	27.12000
15.08370	29.03000
15.09360	28.83000
15.10360	29.48000
15.11380	29.34000
15.12380	32.32000
15.13380	33.80000
15.14370	33.13000
15.15360	34.60000
15.16370	35.72000
15.17380	35.79000
15.18380	33.60000
15.19370	33.26000
15.20370	33.47000
15.21380	31.21000
15.22380	28.53000
15.23380	28.24000
15.24360	26.93000
15.25370	26.23000
15.26370	24.50000
15.27390	25.69000
15.28370	25.67000
15.29360	24.32000
15.30370	25.92000
15.31380	26.81000
15.32390	26.86000
15.33370	25.54000
15.34360	27.27000
15.35370	28.08000
15.36380	27.61000
15.37390	29.07000
15.38380	31.44000
15.39370	35.26000
15.40370	38.99000
15.41380	42.37000
15.42390	50.68000
15.43380	59.00000
15.44360	63.78000
15.45370	65.39000
15.46380	65.96000
15.47380	65.61000
15.48380	55.08000
15.49360	45.97000
15.50370	42.38000
15.51370	35.56000
15.52380	34.39000
15.53370	28.39000
15.54360	28.91000
15.55360	24.96000
15.56380	26.04000
15.57380	24.74000
15.58370	24.94000
15.59370	24.40000
15.60360	25.37000
15.61380	26.53000
15.62380	24.69000
15.63380	25.28000
15.64360	25.95000
15.65370	26.24000
15.66370	26.83000
15.67380	29.23000
15.68380	30.02000
15.69360	29.21000
15.70360	31.59000
15.71370	32.70000
15.72380	32.11000
15.73380	30.10000
15.74360	30.29000
15.75360	27.68000
15.76370	27.01000
15.77380	23.85000
15.78370	22.37000
15.79360	23.76000
15.80360	23.13000
15.81380	22.52000
15.82380	20.89000
15.83370	23.63000
15.84360	23.44000
15.85360	21.57000
15.86380	24.71000
15.87370	24.82000
15.88380	24.39000
15.89350	24.38000
15.90370	24.76000
15.91370	24.14000
15.92380	24.36000
15.93370	24.85000
15.94360	24.67000
15.95370	24.53000
15.96370	23.50000
15.97380	22.61000
15.98370	25.11000
15.99360	22.60000
16.00360	24.08000
16.01370	24.74000
16.02380	23.62000
16.03370	23.55000
16.04360	21.89000
16.05370	23.48000
16.06380	20.68000
16.07380	21.40000
16.08370	21.27000
16.09370	21.39000
16.10360	19.97000
16.11380	20.63000
16.12380	20.81000
16.13380	20.48000
16.14360	19.94000
16.15370	21.26000
16.16370	21.20000
16.17380	19.76000
16.18380	20.84000
16.19360	20.40000
16.20360	21.21000
16.21370	20.29000
16.22390	20.14000
16.23370	19.92000
16.24360	21.32000
16.25360	20.55000
16.26380	20.51000
16.27380	21.41000
16.28370	20.56000
16.29360	19.32000
16.30360	19.64000
16.31380	20.68000
16.32390	20.50000
16.33380	19.14000
16.34360	20.79000
16.35370	21.20000
16.36380	21.12000
16.37390	22.03000
16.38380	21.25000
16.39360	20.76000
16.40370	21.23000
16.41370	20.51000
16.42380	21.58000
16.43370	20.08000
16.44360	20.62000
16.45370	22.20000
16.46380	21.78000
16.47390	23.04000
16.48370	22.76000
16.49370	22.19000
16.50360	23.16000
16.51380	27.30000
16.52380	26.87000
16.53380	26.08000
16.54370	27.74000
16.55360	26.95000
16.56380	28.88000
16.57380	27.90000
16.58380	28.52000
16.59360	27.50000
16.60360	26.39000
16.61380	25.94000
16.62380	24.07000
16.63370	21.84000
16.64360	22.84000
16.65370	23.65000
16.66370	21.66000
16.67380	20.16000
16.68370	19.11000
16.69360	19.03000
16.70360	20.59000
16.71380	19.46000
16.72380	18.83000
16.73370	19.84000
16.74360	19.47000
16.75360	19.70000
16.76380	19.37000
16.77380	19.98000
16.78370	20.13000
16.79360	20.69000
16.80370	19.15000
16.81370	20.28000
16.82380	19.64000
16.83370	19.97000
16.84360	20.10000
16.85370	21.01000
16.86370	20.35000
16.87380	19.83000
16.88370	21.86000
16.89360	22.70000
16.90370	21.27000
16.91370	23.05000
16.92380	22.88000
16.93370	24.38000
16.94360	24.98000
16.95360	23.90000
16.96380	24.78000
16.97380	25.93000
16.98370	25.70000
16.99370	25.88000
17.00360	24.19000
17.01370	24.37000
17.02380	24.05000
17.03380	22.79000
17.04360	22.08000
17.05360	21.63000
17.06370	20.37000
17.07380	20.52000
17.08370	21.21000
17.09360	20.22000
17.10360	20.90000
17.11380	21.06000
17.12390	20.86000
17.13370	19.92000
17.14370	20.38000
17.15360	20.72000
17.16380	20.10000
17.17380	21.77000
17.18380	22.66000
17.19360	22.95000
17.20360	25.46000
17.21380	26.93000
17.22380	30.12000
17.23380	30.98000
17.24360	31.45000
17.25370	31.86000
17.26380	34.62000
17.27390	34.66000
17.28380	32.77000
17.29360	31.64000
17.30370	32.16000
17.31380	31.88000
17.32390	31.50000
17.33370	30.47000
17.34370	31.88000
17.35360	31.88000
17.36380	29.19000
17.37380	30.56000
17.38380	28.99000
17.39370	30.75000
17.40360	30.78000
17.41380	29.75000
17.42380	27.33000
17.43380	27.21000
17.44360	27.78000
17.45360	28.06000
17.46380	25.92000
17.47380	25.46000
17.48380	25.18000
17.49360	24.18000
17.50360	24.08000
17.51370	23.96000
17.52380	24.67000
17.53380	26.16000
17.54370	28.15000
17.55360	31.10000
17.56380	32.77000
17.57390	33.66000
17.58370	36.95000
17.59360	37.84000
17.60360	39.32000
17.61380	38.64000
17.62390	36.26000
17.63370	34.50000
17.64360	33.56000
17.65360	35.77000
17.66380	33.26000
17.67380	33.07000
17.68380	31.46000
17.69360	33.13000
17.70370	34.80000
17.71380	35.62000
17.72380	37.43000
17.73370	41.05000
17.74360	45.66000
17.75370	49.42000
17.76370	54.20000
17.77380	58.86000
17.78370	63.32000
17.79360	69.30000
17.80360	68.19000
17.81370	68.06000
17.82380	66.86000
17.83370	65.23000
17.84360	60.93000
17.85360	55.70000
17.86380	55.18000
17.87380	50.85000
17.88370	44.17000
17.89360	41.99000
17.90370	39.57000
17.91370	36.99000
17.92380	34.11000
17.93380	33.22000
17.94360	31.46000
17.95360	28.39000
17.96370	26.28000
17.97380	27.55000
17.98380	25.43000
17.99360	24.28000
18.00370	25.33000
18.01370	24.86000
18.02390	25.20000
18.03370	26.03000
18.04370	25.43000
18.05360	27.76000
18.06370	28.16000
18.07390	27.05000
18.08370	28.30000
18.09360	27.59000
18.10360	27.97000
18.11380	27.41000
18.12380	27.38000
18.13380	29.12000
18.14360	32.71000
18.15370	35.24000
18.16370	38.82000
18.17380	41.94000
18.18380	41.18000
18.19360	42.07000
18.20370	38.28000
18.21380	36.39000
18.22380	31.96000
18.23370	28.10000
18.24360	27.08000
18.25370	24.81000
18.26370	25.50000
18.27390	23.27000
18.28370	24.19000
18.29370	24.27000
18.30370	23.40000
18.31380	23.19000
18.32380	23.02000
18.33370	24.18000
18.34370	24.91000
18.35370	25.33000
18.36380	26.98000
18.37380	26.12000
18.38380	28.77000
18.39370	26.81000
18.40370	28.63000
18.41370	29.33000
18.42390	29.65000
18.43380	28.35000
18.44360	27.43000
18.45370	29.62000
18.46380	28.71000
18.47390	25.19000
18.48370	24.20000
18.49360	25.22000
18.50360	22.70000
18.51370	23.79000
18.52380	22.92000
18.53370	26.51000
18.54360	25.95000
18.55360	25.56000
18.56380	27.08000
18.57380	27.39000
18.58380	31.74000
18.59360	31.26000
18.60360	32.71000
18.61380	33.26000
18.62380	32.82000
18.63370	32.56000
18.64360	31.85000
18.65370	27.59000
18.66370	26.39000
18.67380	24.72000
18.68370	23.47000
18.69360	23.86000
18.70360	22.47000
18.71380	22.11000
18.72380	23.88000
18.73370	23.80000
18.74370	23.86000
18.75360	24.84000
18.76380	27.63000
18.77380	30.36000
18.78370	35.45000
18.79360	41.80000
18.80360	47.96000
18.81370	51.73000
18.82380	52.67000
18.83370	53.66000
18.84370	50.12000
18.85360	44.53000
18.86370	39.11000
18.87380	32.06000
18.88380	29.54000
18.89360	25.77000
18.90370	23.41000
18.91370	21.64000
18.92380	20.03000
18.93370	20.47000
18.94360	19.50000
18.95360	18.55000
18.96370	17.46000
18.97380	17.27000
18.98370	17.27000
18.99360	17.88000
19.00360	17.32000
19.01380	17.15000
19.02380	16.47000
19.03370	17.54000
19.04360	17.91000
19.05370	15.52000
19.06380	16.87000
19.07380	16.55000
19.08370	18.79000
19.09360	18.78000
19.10370	15.66000
19.11380	17.38000
19.12380	17.33000
19.13370	17.87000
19.14360	17.93000
19.15360	19.29000
19.16370	19.47000
19.17380	19.21000
19.18370	18.88000
19.19360	19.55000
19.20360	19.61000
19.21380	18.60000
19.22380	19.73000
19.23370	19.34000
19.24360	20.76000
19.25370	20.73000
19.26380	20.29000
19.27380	22.52000
19.28380	22.63000
19.29360	23.65000
19.30370	23.97000
19.31370	24.10000
19.32380	24.69000
19.33370	25.93000
19.34370	27.14000
19.35370	27.61000
19.36380	31.81000
19.37390	30.25000
19.38380	33.29000
19.39370	33.99000
19.40360	37.45000
19.41380	37.69000
19.42380	36.54000
19.43380	32.66000
19.44360	32.87000
19.45360	28.32000
19.46380	27.80000
19.47380	26.34000
19.48370	24.17000
19.49360	23.89000
19.50370	20.45000
19.51380	19.17000
19.52380	19.84000
19.53370	19.42000
19.54360	17.88000
19.55370	17.27000
19.56370	17.74000
19.57380	17.11000
19.58370	17.19000
19.59370	16.60000
19.60360	17.02000
19.61380	16.03000
19.62380	17.18000
19.63370	15.73000
19.64370	17.17000
19.65360	14.95000
19.66380	15.16000
19.67380	17.62000
19.68380	16.60000
19.69360	16.19000
19.70360	15.73000
19.71380	15.46000
19.72380	17.32000
19.73380	17.67000
19.74360	16.35000
19.75370	16.46000
19.76370	15.67000
19.77380	16.75000
19.78370	16.35000
19.79360	17.96000
19.80360	15.83000
19.81370	17.41000
19.82380	16.14000
19.83370	17.20000
19.84360	16.36000
19.85360	15.50000
19.86380	16.29000
19.87380	15.72000
19.88370	15.28000
19.89360	15.90000
19.90360	16.34000
19.91380	16.56000
19.92380	18.31000
19.93380	18.03000
19.94360	16.49000
19.95370	17.57000
19.96380	19.06000
19.97380	17.07000
19.98370	18.42000
19.99360	20.18000
20.00370	20.37000
20.01370	19.53000
20.02380	19.47000
20.03370	21.17000
20.04360	19.71000
20.05360	19.29000
20.06380	20.72000
20.07380	20.13000
20.08370	18.47000
20.09360	19.69000
20.10360	20.04000
20.11380	19.78000
20.12380	20.22000
20.13380	18.10000
20.14370	20.52000
20.15360	17.61000
20.16380	19.08000
20.17380	19.40000
20.18380	18.17000
20.19360	17.55000
20.20370	18.48000
20.21380	19.13000
20.22380	19.10000
20.23370	20.46000
20.24360	20.82000
20.25370	20.37000
20.26380	20.98000
20.27390	21.50000
20.28370	20.96000
20.29360	21.01000
20.30370	21.25000
20.31380	19.01000
20.32380	21.10000
20.33370	18.68000
20.34370	18.20000
20.35370	18.99000
20.36380	18.14000
20.37390	17.26000
20.38380	18.04000
20.39370	17.55000
20.40370	18.01000
20.41380	17.16000
20.42380	17.22000
20.43380	18.57000
20.44360	16.34000
20.45370	16.76000
20.46380	17.55000
20.47390	16.58000
20.48370	17.62000
20.49360	18.11000
20.50370	17.39000
20.51370	20.15000
20.52380	19.19000
20.53370	18.35000
20.54370	19.50000
20.55360	20.89000
20.56380	19.64000
20.57380	21.75000
20.58370	21.48000
20.59360	20.51000
20.60360	18.62000
20.61380	21.53000
20.62380	21.61000
20.63380	20.43000
20.64360	20.90000
20.65360	22.03000
20.66380	24.10000
20.67380	22.25000
20.68380	24.21000
20.69360	24.14000
20.70360	23.67000
20.71380	23.39000
20.72390	22.21000
20.73370	19.30000
20.74360	18.87000
20.75360	19.29000
20.76370	19.32000
20.77390	18.94000
20.78370	17.47000
20.79360	16.07000
20.80360	17.16000
20.81380	18.04000
20.82380	18.16000
20.83370	16.90000
20.84360	18.57000
20.85360	17.48000
20.86380	17.30000
20.87380	17.59000
20.88370	17.01000
20.89360	18.80000
20.90370	19.37000
20.91370	20.72000
20.92380	21.32000
20.93370	21.88000
20.94360	22.66000
20.95360	23.75000
20.96380	21.46000
20.97380	24.00000
20.98370	24.61000
20.99360	22.26000
21.00360	21.88000
21.01370	22.64000
21.02380	22.97000
21.03370	21.68000
21.04360	21.42000
21.05360	19.15000
21.06370	19.32000
21.07380	18.71000
21.08380	19.55000
21.09360	19.28000
21.10370	18.25000
21.11380	16.90000
21.12390	17.48000
21.13380	16.26000
21.14360	18.53000
21.15370	18.21000
21.16370	18.74000
21.17390	18.42000
21.18370	19.47000
21.19360	17.00000
21.20360	19.56000
21.21380	20.64000
21.22380	22.69000
21.23370	21.36000
21.24360	20.79000
21.25370	20.54000
21.26380	22.27000
21.27380	21.46000
21.28370	22.07000
21.29370	21.44000
21.30370	21.73000
21.31380	21.36000
21.32380	20.72000
21.33370	21.02000
21.34370	20.70000
21.35370	19.94000
21.36380	22.84000
21.37390	23.55000
21.38380	23.56000
21.39370	22.48000
21.40360	23.98000
21.41380	23.76000
21.42390	24.81000
21.43370	22.84000
21.44370	23.72000
21.45370	22.95000
21.46390	21.66000
21.47380	21.61000
21.48380	21.76000
21.49360	19.99000
21.50370	19.92000
21.51370	20.46000
21.52380	20.94000
21.53380	19.67000
21.54360	20.21000
21.55370	18.34000
21.56370	18.75000
21.57390	18.78000
21.58370	19.00000
21.59360	17.61000
21.60370	19.04000
21.61370	18.04000
21.62380	18.85000
21.63380	17.65000
21.64360	18.51000
21.65360	18.70000
21.66380	21.36000
21.67380	24.52000
21.68380	29.78000
21.69360	38.65000
21.70360	47.41000
21.71380	60.26000
21.72380	69.96000
21.73370	76.23000
21.74350	71.82000
21.75370	63.88000
21.76370	53.63000
21.77380	41.53000
21.78370	32.57000
21.79360	26.37000
21.80370	20.98000
21.81370	18.77000
21.82380	17.75000
21.83370	16.97000
21.84370	17.54000
21.85360	16.55000
21.86380	16.29000
21.87380	17.10000
21.88370	15.78000
21.89370	15.63000
21.90360	15.92000
21.91380	16.97000
21.92380	15.83000
21.93370	14.70000
21.94360	16.58000
21.95360	16.06000
21.96380	15.67000
21.97380	15.73000
21.98370	16.13000
21.99360	15.42000
22.00360	14.12000
22.01370	16.16000
22.02380	15.30000
22.03370	14.12000
22.04360	15.44000
22.05360	15.83000
22.06380	16.60000
22.07390	15.70000
22.08370	16.17000
22.09360	15.63000
22.10360	16.24000
22.11380	16.12000
22.12390	17.13000
22.13370	16.96000
22.14360	17.46000
22.15360	16.68000
22.16380	17.20000
22.17380	16.43000
22.18380	16.93000
22.19360	17.39000
22.20370	17.22000
22.21380	17.40000
22.22380	17.45000
22.23380	17.46000
22.24360	18.36000
22.25370	16.91000
22.26380	16.33000
22.27390	16.95000
22.28380	16.46000
22.29370	16.52000
22.30370	16.59000
22.31380	16.20000
22.32390	16.83000
22.33370	16.89000
22.34370	17.62000
22.35370	15.42000
22.36380	16.17000
22.37390	17.64000
22.38380	17.14000
22.39370	16.61000
22.40370	16.55000
22.41380	17.89000
22.42380	17.38000
22.43380	18.50000
22.44370	18.59000
22.45370	18.89000
22.46380	17.53000
22.47390	18.85000
22.48380	18.70000
22.49360	20.00000
22.50370	20.13000
22.51380	21.70000
22.52390	22.65000
22.53380	23.21000
22.54360	27.23000
22.55370	26.37000
22.56380	30.18000
22.57380	30.98000
22.58370	30.58000
22.59360	30.18000
22.60360	30.18000
22.61380	29.61000
22.62380	28.48000
22.63380	27.85000
22.64360	28.95000
22.65370	28.31000
22.66370	27.35000
22.67380	28.28000
22.68380	30.12000
22.69360	30.11000
22.70370	27.44000
22.71370	29.96000
22.72380	29.66000
22.73370	29.68000
22.74360	28.00000
22.75360	28.29000
22.76380	27.60000
22.77380	27.17000
22.78370	26.83000
22.79360	24.65000
22.80360	26.89000
22.81370	26.52000
22.82380	25.38000
22.83370	24.88000
22.84360	25.14000
22.85360	26.25000
22.86380	27.34000
22.87380	27.85000
22.88380	26.30000
22.89360	28.36000
22.90370	26.88000
22.91370	28.35000
22.92380	25.84000
22.93380	25.73000
22.94360	24.58000
22.95370	23.23000
22.96370	23.70000
22.97380	22.53000
22.98370	22.84000
22.99360	22.12000
23.00360	23.00000
23.01370	21.25000
23.02380	24.13000
23.03380	23.83000
23.04360	24.30000
23.05360	27.70000
23.06380	27.82000
23.07380	27.90000
23.08370	30.84000
23.09360	31.40000
23.10360	31.00000
23.11380	30.16000
23.12390	26.98000
23.13380	25.64000
23.14360	23.90000
23.15370	21.98000
23.16380	20.24000
23.17380	20.88000
23.18380	17.56000
23.19360	19.90000
23.20370	20.36000
23.21380	19.24000
23.22380	18.71000
23.23370	19.61000
23.24370	19.12000
23.25360	18.46000
23.26380	19.25000
23.27380	18.92000
23.28370	18.97000
23.29370	18.97000
23.30370	18.56000
23.31380	18.91000
23.32380	18.03000
23.33380	20.41000
23.34360	19.13000
23.35370	19.19000
23.36380	19.61000
23.37390	20.71000
23.38380	19.01000
23.39370	20.11000
23.40360	18.98000
23.41380	20.41000
23.42390	19.09000
23.43380	18.94000
23.44360	18.61000
23.45360	17.79000
23.46380	19.76000
23.47390	19.66000
23.48370	21.47000
23.49360	19.55000
23.50360	19.58000
23.51380	21.02000
23.52380	19.61000
23.53370	19.01000
23.54360	22.06000
23.55370	21.39000
23.56380	22.74000
23.57380	21.66000
23.58370	20.07000
23.59360	20.68000
23.60370	19.85000
23.61370	19.40000
23.62390	19.58000
23.63380	19.03000
23.64360	18.46000
23.65360	18.12000
23.66370	19.22000
23.67380	17.71000
23.68370	17.65000
23.69360	19.20000
23.70360	16.81000
23.71380	17.42000
23.72380	19.88000
23.73370	19.53000
23.74360	22.18000
23.75370	21.74000
23.76380	22.36000
23.77380	24.55000
23.78380	27.34000
23.79360	27.44000
23.80360	30.74000
23.81370	33.98000
23.82380	34.83000
23.83380	37.39000
23.84360	35.71000
23.85360	37.32000
23.86370	37.62000
23.87380	34.82000
23.88370	32.38000
23.89360	31.25000
23.90360	31.70000
23.91370	26.98000
23.92380	27.55000
23.93370	26.04000
23.94360	23.93000
23.95360	24.35000
23.96380	23.37000
23.97380	22.62000
23.98370	21.85000
23.99360	22.58000
24.00370	20.41000
24.01370	19.75000
24.02380	19.20000
24.03370	20.46000
24.04360	20.41000
24.05370	19.51000
24.06370	22.12000
24.07390	20.40000
24.08370	20.38000
24.09360	20.42000
24.10360	21.50000
24.11380	21.71000
24.12380	20.75000
24.13370	20.92000
24.14370	20.06000
24.15370	22.63000
24.16370	23.24000
24.17380	22.18000
24.18380	20.22000
24.19370	18.72000
24.20370	21.62000
24.21380	21.50000
24.22380	21.96000
24.23370	20.64000
24.24360	19.65000
24.25370	20.05000
24.26380	19.95000
24.27390	19.24000
24.28380	19.91000
24.29360	18.51000
24.30360	19.55000
24.31370	18.85000
24.32390	17.94000
24.33370	19.46000
24.34370	20.68000
24.35370	20.02000
24.36380	19.38000
24.37390	20.03000
24.38380	21.00000
24.39360	20.46000
24.40360	20.83000
24.41380	20.07000
24.42380	20.31000
24.43380	21.63000
24.44370	19.72000
24.45370	20.78000
24.46380	19.61000
24.47380	19.97000
24.48380	19.57000
24.49360	19.71000
24.50370	19.89000
24.51380	19.18000
24.52380	20.63000
24.53370	20.06000
24.54370	20.07000
24.55360	22.34000
24.56370	21.27000
24.57380	22.14000
24.58370	20.08000
24.59370	22.58000
24.60360	22.28000
24.61380	22.29000
24.62380	21.58000
24.63380	22.70000
24.64360	21.15000
24.65360	21.78000
24.66370	22.06000
24.67380	21.59000
24.68380	23.84000
24.69360	23.68000
24.70360	24.39000
24.71380	22.99000
24.72380	23.81000
24.73370	27.14000
24.74360	26.30000
24.75370	25.99000
24.76370	28.20000
24.77380	27.01000
24.78370	27.05000
24.79360	27.80000
24.80360	23.41000
24.81380	23.96000
24.82380	24.95000
24.83370	22.99000
24.84360	22.28000
24.85360	20.67000
24.86380	20.71000
24.87380	19.97000
24.88370	17.37000
24.89360	18.76000
24.90370	18.50000
24.91370	18.48000
24.92380	18.67000
24.93380	18.35000
24.94360	17.59000
24.95370	16.79000
24.96380	18.33000
24.97380	18.36000
24.98370	18.02000
24.99360	16.78000
25.00370	17.15000
25.01370	16.75000
25.02380	17.76000
25.03370	18.21000
25.04360	17.20000
25.05360	16.65000
25.06370	16.60000
25.07380	16.65000
25.08370	17.79000
25.09360	18.44000
25.10360	18.02000
25.11380	17.54000
25.12380	17.44000
25.13380	19.63000
25.14360	19.01000
25.15370	18.19000
25.16370	17.87000
25.17380	18.53000
25.18380	19.16000
25.19360	18.72000
25.20370	17.58000
25.21380	16.70000
25.22380	19.18000
25.23370	18.55000
25.24360	17.81000
25.25370	19.55000
25.26380	20.76000
25.27390	21.29000
25.28380	21.61000
25.29360	25.81000
25.30370	28.27000
25.31380	30.58000
25.32380	31.14000
25.33370	31.66000
25.34370	29.23000
25.35370	27.32000
25.36380	25.58000
25.37380	22.70000
25.38380	19.99000
25.39360	20.12000
25.40370	19.84000
25.41370	20.66000
25.42390	20.54000
25.43380	20.18000
25.44370	21.42000
25.45370	21.08000
25.46380	20.30000
25.47390	21.73000
25.48370	22.05000
25.49360	26.38000
25.50360	26.57000
25.51380	27.71000
25.52380	31.45000
25.53380	30.57000
25.54360	33.89000
25.55360	33.31000
25.56370	33.19000
25.57380	33.15000
25.58370	31.46000
25.59360	28.55000
25.60360	28.54000
25.61380	27.17000
25.62380	26.92000
25.63380	25.72000
25.64360	26.27000
25.65360	26.36000
25.66380	24.93000
25.67380	25.27000
25.68370	26.56000
25.69360	23.30000
25.70370	22.31000
25.71380	20.99000
25.72380	21.18000
25.73370	21.04000
25.74360	21.64000
25.75360	21.19000
25.76380	23.45000
25.77380	21.40000
25.78370	22.66000
25.79360	23.92000
25.80360	22.12000
25.81370	21.93000
25.82380	23.41000
25.83370	22.32000
25.84360	22.31000
25.85370	18.61000
25.86370	20.10000
25.87380	20.04000
25.88370	18.39000
25.89360	19.49000
25.90370	17.47000
25.91370	18.90000
25.92380	18.77000
25.93370	19.95000
25.94360	17.86000
25.95360	18.92000
25.96380	18.74000
25.97380	19.85000
25.98370	19.63000
25.99360	20.45000
26.00370	20.46000
26.01370	20.54000
26.02380	23.80000
26.03380	23.58000
26.04360	22.31000
26.05370	23.45000
26.06370	22.88000
26.07380	24.51000
26.08370	25.18000
26.09370	24.81000
26.10360	24.84000
26.11380	24.40000
26.12390	23.75000
26.13370	24.66000
26.14370	23.67000
26.15370	23.22000
26.16380	22.76000
26.17380	22.40000
26.18370	22.57000
26.19360	20.42000
26.20370	22.23000
26.21380	21.77000
26.22380	19.94000
26.23370	22.64000
26.24360	22.30000
26.25370	22.33000
26.26380	23.12000
26.27380	21.51000
26.28380	23.27000
26.29370	23.93000
26.30370	22.96000
26.31380	24.11000
26.32380	24.26000
26.33370	24.16000
26.34370	24.01000
26.35370	22.89000
26.36380	25.02000
26.37390	25.76000
26.38380	27.44000
26.39370	26.34000
26.40360	26.33000
26.41380	25.37000
26.42380	27.55000
26.43380	29.05000
26.44360	31.17000
26.45370	28.39000
26.46380	29.19000
26.47380	25.49000
26.48380	29.80000
26.49360	28.59000
26.50370	27.79000
26.51370	27.65000
26.52390	27.19000
26.53370	27.66000
26.54360	27.99000
26.55360	28.42000
26.56370	25.06000
26.57380	27.42000
26.58370	24.06000
26.59360	27.80000
26.60360	26.96000
26.61380	26.28000
26.62380	27.60000
26.63370	27.79000
26.64360	27.53000
26.65360	27.19000
26.66380	27.00000
26.67380	27.03000
26.68380	28.31000
26.69360	28.55000
26.70360	28.54000
26.71380	29.28000
26.72380	26.92000
26.73380	27.91000
26.74360	28.03000
26.75370	26.50000
26.76370	26.86000
26.77380	26.28000
26.78370	23.33000
26.79360	24.69000
26.80360	25.00000
26.81370	22.84000
26.82380	24.62000
26.83370	24.61000
26.84370	23.09000
26.85360	23.59000
26.86380	23.96000
26.87380	23.59000
26.88380	24.26000
26.89360	23.48000
26.90360	22.49000
26.91370	23.23000
26.92380	22.60000
26.93380	22.43000
26.94360	20.61000
26.95360	21.83000
26.96370	20.54000
26.97380	20.83000
26.98380	19.89000
26.99360	18.50000
27.00370	18.24000
27.01370	18.98000
27.02380	17.97000
27.03370	17.35000
27.04360	17.66000
27.05360	18.06000
27.06380	17.58000
27.07380	16.81000
27.08370	18.24000
27.09360	17.94000
27.10360	18.69000
27.11380	17.72000
27.12380	18.03000
27.13380	18.16000
27.14360	18.49000
27.15370	17.86000
27.16370	18.29000
27.17380	17.51000
27.18380	17.84000
27.19360	20.27000
27.20370	18.86000
27.21380	19.52000
27.22380	19.00000
27.23370	17.98000
27.24360	18.15000
27.25370	17.98000
27.26370	17.76000
27.27390	17.48000
27.28380	17.46000
27.29370	19.45000
27.30370	18.86000
27.31380	19.89000
27.32380	17.56000
27.33380	19.37000
27.34370	17.99000
27.35370	18.44000
27.36380	19.18000
27.37380	18.55000
27.38380	19.80000
27.39370	18.85000
27.40370	18.68000
27.41370	19.06000
27.42380	17.84000
27.43380	19.95000
27.44370	19.19000
27.45370	21.15000
27.46380	18.93000
27.47390	20.14000
27.48370	20.66000
27.49360	20.54000
27.50360	19.85000
27.51380	20.83000
27.52380	21.19000
27.53370	20.43000
27.54360	18.93000
27.55360	19.74000
27.56380	20.41000
27.57380	18.85000
27.58370	21.16000
27.59360	20.88000
27.60360	21.87000
27.61380	21.97000
27.62380	22.28000
27.63380	23.23000
27.64360	21.53000
27.65370	21.84000
27.66370	22.27000
27.67380	21.10000
27.68370	21.53000
27.69360	21.87000
27.70370	21.20000
27.71380	19.13000
27.72380	20.57000
27.73370	19.69000
27.74360	17.84000
27.75370	18.14000
27.76370	19.26000
27.77380	20.02000
27.78370	19.28000
27.79360	19.24000
27.80360	18.73000
27.81380	17.62000
27.82380	17.57000
27.83370	17.70000
27.84360	18.56000
27.85360	18.86000
27.86380	19.37000
27.87380	17.72000
27.88370	18.30000
27.89360	19.41000
27.90370	18.86000
27.91370	17.92000
27.92390	17.82000
27.93370	18.69000
27.94360	20.07000
27.95360	20.55000
27.96380	19.90000
27.97380	19.34000
27.98380	20.04000
27.99360	18.59000
28.00370	19.56000
28.01380	20.97000
28.02380	20.28000
28.03380	19.24000
28.04360	21.20000
28.05360	19.92000
28.06370	20.11000
28.07380	20.07000
28.08370	20.63000
28.09360	20.21000
28.10360	19.48000
28.11380	19.98000
28.12380	20.80000
28.13380	19.93000
28.14370	19.43000
28.15370	20.38000
28.16380	19.72000
28.17380	20.85000
28.18380	20.24000
28.19370	20.38000
28.20370	20.34000
28.21380	22.01000
28.22380	20.65000
28.23380	20.22000
28.24360	19.43000
28.25370	20.70000
28.26380	20.62000
28.27380	19.18000
28.28380	19.43000
28.29360	19.58000
28.30370	20.05000
28.31370	20.20000
28.32390	20.17000
28.33370	20.53000
28.34370	20.77000
28.35370	21.36000
28.36380	20.68000
28.37390	21.39000
28.38380	20.48000
28.39370	20.11000
28.40370	20.98000
28.41380	21.09000
28.42390	21.50000
28.43380	21.45000
28.44360	21.43000
28.45360	21.17000
28.46380	19.73000
28.47380	20.38000
28.48370	19.85000
28.49360	21.12000
28.50370	21.05000
28.51370	22.40000
28.52380	21.53000
28.53380	22.63000
28.54360	20.24000
28.55370	21.26000
28.56370	20.57000
28.57390	19.98000
28.58370	20.44000
28.59370	19.16000
28.60360	20.36000
28.61380	19.05000
28.62380	17.65000
28.63370	19.80000
28.64360	19.14000
28.65360	19.30000
28.66370	18.84000
28.67380	17.83000
28.68380	18.10000
28.69360	17.42000
28.70360	19.20000
28.71380	18.51000
28.72380	20.41000
28.73380	17.39000
28.74360	19.71000
28.75370	19.24000
28.76370	19.38000
28.77380	19.08000
28.78380	18.59000
28.79360	18.70000
28.80360	18.27000
28.81370	19.04000
28.82390	18.50000
28.83370	18.93000
28.84370	19.21000
28.85360	17.44000
28.86380	19.05000
28.87380	18.34000
28.88370	16.67000
28.89360	19.31000
28.90360	17.73000
28.91370	18.57000
28.92380	18.87000
28.93370	20.32000
28.94350	20.62000
28.95370	19.97000
28.96370	20.22000
28.97380	19.26000
28.98380	20.80000
28.99360	20.48000
29.00370	21.00000
29.01370	21.36000
29.02380	19.88000
29.03370	21.79000
29.04370	21.85000
29.05360	21.84000
29.06370	24.15000
29.07390	22.96000
29.08370	22.19000
29.09370	22.22000
29.10360	24.38000
29.11380	23.77000
29.12380	24.08000
29.13380	20.68000
29.14370	21.32000
29.15370	20.79000
29.16380	22.14000
29.17380	23.42000
29.18380	23.31000
29.19360	22.43000
29.20370	22.21000
29.21380	25.08000
29.22390	23.61000
29.23370	24.48000
29.24360	24.99000
29.25370	23.78000
29.26370	26.82000
29.27390	27.44000
29.28380	27.93000
29.29370	27.17000
29.30370	27.37000
29.31380	29.59000
29.32390	26.88000
29.33370	27.46000
29.34370	26.59000
29.35370	27.52000
29.36380	25.57000
29.37390	25.68000
29.38380	25.41000
29.39360	24.63000
29.40370	24.94000
29.41380	22.66000
29.42380	22.40000
29.43380	23.22000
29.44360	21.63000
29.45370	19.92000
29.46370	21.95000
29.47380	23.08000
29.48380	21.64000
29.49360	23.24000
29.50370	21.81000
29.51370	21.96000
29.52380	22.26000
29.53370	22.13000
29.54370	22.24000
29.55360	24.03000
29.56380	22.70000
29.57380	24.52000
29.58380	24.02000
29.59360	27.11000
29.60360	27.48000
29.61380	24.93000
29.62380	25.29000
29.63380	23.54000
29.64360	25.65000
29.65360	22.83000
29.66370	23.23000
29.67380	24.14000
29.68380	23.51000
29.69360	23.58000
29.70360	22.24000
29.71380	20.20000
29.72380	21.89000
29.73380	22.78000
29.74360	22.54000
29.75360	21.55000
29.76380	20.02000
29.77380	20.80000
29.78370	20.95000
29.79360	21.84000
29.80360	20.84000
29.81380	19.89000
29.82380	19.63000
29.83370	21.44000
29.84360	21.81000
29.85370	23.10000
29.86370	20.25000
29.87380	20.56000
29.88380	21.20000
29.89360	21.69000
29.90370	24.38000
29.91370	23.77000
29.92380	24.92000
29.93370	25.00000
29.94360	25.60000
29.95360	25.99000
29.96380	26.75000
29.97380	28.69000
29.98370	27.28000
29.99360	30.11000
30.00370	29.00000
30.01370	29.95000
30.02380	26.79000
30.03380	25.67000
30.04360	26.52000
30.05360	26.20000
30.06380	24.90000
30.07380	23.79000
30.08370	21.62000
30.09360	21.67000
30.10360	20.88000
30.11370	21.80000
30.12380	22.01000
30.13380	20.75000
30.14360	21.21000
30.15360	20.31000
30.16370	20.96000
30.17390	21.77000
30.18380	19.89000
30.19370	20.56000
30.20370	20.79000
30.21380	19.11000
30.22380	20.28000
30.23380	21.44000
30.24360	20.54000
30.25370	21.12000
30.26380	21.33000
30.27390	22.14000
30.28370	21.30000
30.29360	19.56000
30.30370	22.05000
30.31380	23.74000
30.32380	24.48000
30.33370	23.81000
30.34370	26.46000
30.35370	24.97000
30.36380	28.49000
30.37390	28.91000
30.38380	29.55000
30.39370	27.95000
30.40370	29.17000
30.41380	28.95000
30.42380	26.87000
30.43380	26.64000
30.44370	25.50000
30.45360	26.47000
30.46380	23.47000
30.47380	22.81000
30.48380	22.56000
30.49360	22.24000
30.50370	21.83000
30.51370	22.32000
30.52380	21.43000
30.53380	21.98000
30.54360	22.55000
30.55360	20.72000
30.56370	22.41000
30.57380	19.69000
30.58370	21.45000
30.59360	19.68000
30.60360	19.73000
30.61380	20.58000
30.62380	20.13000
30.63380	21.67000
30.64360	20.22000
30.65360	20.72000
30.66380	21.09000
30.67380	18.89000
30.68380	20.06000
30.69360	17.95000
30.70360	20.33000
30.71380	19.05000
30.72380	19.36000
30.73380	19.84000
30.74360	19.82000
30.75370	20.26000
30.76370	17.99000
30.77380	20.43000
30.78370	17.54000
30.79360	19.45000
30.80360	19.95000
30.81380	19.09000
30.82380	18.41000
30.83370	18.67000
30.84370	20.05000
30.85360	19.83000
30.86370	20.34000
30.87380	19.96000
30.88370	20.27000
30.89360	19.60000
30.90370	20.73000
30.91370	20.09000
30.92380	20.97000
30.93380	20.04000
30.94360	20.79000
30.95360	21.27000
30.96370	21.58000
30.97380	23.91000
30.98380	21.07000
30.99360	21.48000
31.00360	22.43000
31.01370	22.03000
31.02380	20.37000
31.03380	21.67000
31.04360	21.38000
31.05370	21.16000
31.06370	20.54000
31.07390	20.60000
31.08380	20.85000
31.09370	19.70000
31.10360	20.62000
31.11380	19.36000
31.12390	19.45000
31.13380	22.27000
31.14360	19.76000
31.15370	20.68000
31.16380	19.51000
31.17380	18.80000
31.18380	20.69000
31.19360	19.76000
31.20370	19.56000
31.21380	19.11000
31.22380	20.24000
31.23370	19.21000
31.24360	20.01000
31.25370	19.52000
31.26370	19.34000
31.27380	18.96000
31.28370	20.27000
31.29360	19.27000
31.30370	20.12000
31.31380	20.58000
31.32390	19.09000
31.33370	19.78000
31.34370	21.70000
31.35360	21.19000
31.36380	22.10000
31.37380	21.09000
31.38380	20.29000
31.39370	23.21000
31.40370	22.32000
31.41370	23.91000
31.42380	22.83000
31.43380	23.66000
31.44360	21.74000
31.45360	23.99000
31.46380	22.65000
31.47380	22.89000
31.48380	22.18000
31.49360	21.58000
31.50370	22.03000
31.51370	20.67000
31.52390	21.51000
31.53380	21.44000
31.54360	22.19000
31.55370	21.41000
31.56380	20.88000
31.57380	20.74000
31.58370	20.95000
31.59360	21.39000
31.60360	20.41000
31.61380	21.17000
31.62380	20.55000
31.63380	21.78000
31.64360	21.96000
31.65370	21.26000
31.66370	20.31000
31.67380	20.62000
31.68380	20.82000
31.69360	20.78000
31.70360	20.61000
31.71380	21.26000
31.72380	19.93000
31.73370	19.40000
31.74360	20.57000
31.75370	20.70000
31.76370	20.01000
31.77380	20.05000
31.78370	19.81000
31.79360	20.58000
31.80360	20.45000
31.81380	21.75000
31.82380	19.96000
31.83370	21.97000
31.84370	19.28000
31.85360	19.95000
31.86380	20.97000
31.87380	20.62000
31.88380	19.02000
31.89360	19.16000
31.90360	20.82000
31.91370	21.29000
31.92380	21.15000
31.93380	20.76000
31.94360	19.38000
31.95360	19.81000
31.96370	21.16000
31.97380	22.06000
31.98370	19.57000
31.99360	21.20000
32.00360	23.56000
32.01370	23.17000
32.02380	24.15000
32.03380	24.20000
32.04360	24.10000
32.05360	23.02000
32.06380	23.44000
32.07380	24.84000
32.08380	23.57000
32.09360	25.98000
32.10360	27.24000
32.11380	26.82000
32.12380	24.76000
32.13380	25.45000
32.14360	24.62000
32.15360	26.60000
32.16380	27.28000
32.17380	27.03000
32.18380	27.83000
32.19370	25.79000
32.20370	27.37000
32.21380	27.39000
32.22390	27.51000
32.23370	26.05000
32.24370	25.96000
32.25360	25.65000
32.26380	26.73000
32.27380	24.80000
32.28380	24.69000
32.29360	24.40000
32.30370	26.26000
32.31380	24.00000
32.32380	23.95000
32.33380	23.81000
32.34360	23.24000
32.35370	24.49000
32.36380	24.89000
32.37390	23.19000
32.38380	24.32000
32.39370	22.73000
32.40360	22.02000
32.41380	23.40000
32.42380	22.48000
32.43380	23.45000
32.44360	23.33000
32.45370	22.46000
32.46380	22.23000
32.47390	23.19000
32.48370	23.12000
32.49360	21.27000
32.50360	23.35000
32.51380	20.66000
32.52380	22.03000
32.53370	21.78000
32.54360	20.91000
32.55370	20.85000
32.56380	21.59000
32.57380	20.66000
32.58370	20.60000
32.59360	21.31000
32.60370	21.92000
32.61370	21.06000
32.62380	22.26000
32.63380	23.86000
32.64360	22.50000
32.65360	22.67000
32.66370	22.70000
32.67380	22.67000
32.68380	21.58000
32.69360	21.69000
32.70370	22.19000
32.71370	22.01000
32.72380	23.33000
32.73370	23.27000
32.74360	22.50000
32.75360	24.69000
32.76370	22.75000
32.77380	24.83000
32.78370	23.52000
32.79360	22.20000
32.80360	23.50000
32.81370	21.79000
32.82380	23.51000
32.83370	23.23000
32.84360	22.26000
32.85360	20.73000
32.86370	23.08000
32.87380	23.18000
32.88370	23.28000
32.89360	22.39000
32.90360	24.00000
32.91380	22.77000
32.92380	23.65000
32.93370	21.68000
32.94360	22.51000
32.95360	24.16000
32.96380	22.02000
32.97380	22.07000
32.98380	22.05000
32.99360	24.00000
33.00360	24.15000
33.01370	21.53000
33.02380	23.93000
33.03370	25.03000
33.04360	22.82000
33.05370	25.10000
33.06370	25.59000
33.07380	24.63000
33.08380	25.02000
33.09360	25.06000
33.10360	27.13000
33.11380	25.26000
33.12390	24.46000
33.13370	25.71000
33.14370	26.21000
33.15370	26.79000
33.16380	26.28000
33.17380	25.78000
33.18380	25.56000
33.19370	26.57000
33.20370	23.85000
33.21380	23.95000
33.22390	22.74000
33.23380	21.48000
33.24360	22.88000
33.25360	23.18000
33.26370	20.11000
33.27390	22.20000
33.28380	21.17000
33.29370	22.09000
33.30360	21.33000
33.31380	21.77000
33.32380	21.35000
33.33380	20.93000
33.34360	19.76000
33.35370	21.17000
33.36380	22.55000
33.37390	22.17000
33.38380	22.92000
33.39370	22.20000
33.40360	22.69000
33.41380	23.12000
33.42380	20.38000
33.43380	24.28000
33.44360	22.97000
33.45370	21.21000
33.46380	23.33000
33.47380	23.58000
33.48380	23.29000
33.49360	23.54000
33.50370	23.40000
33.51370	22.08000
33.52380	24.69000
33.53370	23.98000
33.54360	24.34000
33.55360	24.10000
33.56380	26.51000
33.57380	23.89000
33.58370	22.26000
33.59360	24.54000
33.60360	22.74000
33.61380	22.14000
33.62380	23.48000
33.63380	23.78000
33.64360	21.70000
33.65360	22.18000
33.66370	21.72000
33.67380	20.69000
33.68380	20.70000
33.69360	22.40000
33.70360	19.61000
33.71380	22.33000
33.72380	21.05000
33.73370	20.77000
33.74360	20.17000
33.75360	21.05000
33.76370	19.02000
33.77380	20.89000
33.78370	21.14000
33.79360	20.49000
33.80360	20.04000
33.81380	19.98000
33.82380	19.71000
33.83370	20.55000
33.84360	19.67000
33.85360	19.76000
33.86380	20.05000
33.87380	21.27000
33.88370	20.75000
33.89360	21.26000
33.90370	20.98000
33.91370	20.18000
33.92380	20.61000
33.93370	20.28000
33.94360	20.13000
33.95360	20.22000
33.96370	21.66000
33.97380	22.07000
33.98370	22.19000
33.99360	23.46000
34.00360	23.83000
34.01370	23.05000
34.02380	23.67000
34.03370	23.99000
34.04360	25.01000
34.05360	25.70000
34.06380	27.62000
34.07380	27.74000
34.08380	26.11000
34.09360	28.63000
34.10360	25.94000
34.11380	27.46000
34.12380	26.22000
34.13380	25.63000
34.14360	24.14000
34.15360	24.48000
34.16370	24.46000
34.17390	22.15000
34.18380	23.07000
34.19360	21.72000
34.20360	20.95000
34.21380	19.81000
34.22390	20.81000
34.23380	20.65000
34.24360	20.70000
34.25360	20.99000
34.26380	19.37000
34.27380	20.56000
34.28380	20.00000
34.29360	20.24000
34.30370	19.64000
34.31380	21.01000
34.32380	20.38000
34.33380	19.02000
34.34360	20.61000
34.35370	20.65000
34.36380	19.13000
34.37390	20.50000
34.38380	20.53000
34.39360	20.48000
34.40370	20.68000
34.41370	21.45000
34.42380	21.31000
34.43370	21.09000
34.44360	19.69000
34.45370	19.46000
34.46380	20.76000
34.47380	21.64000
34.48370	21.22000
34.49370	21.66000
34.50360	20.86000
34.51380	21.35000
34.52380	20.80000
34.53380	22.08000
34.54370	19.53000
34.55360	19.89000
34.56380	20.28000
34.57380	18.89000
34.58380	19.78000
34.59360	19.37000
34.60360	20.18000
34.61370	19.16000
34.62380	20.48000
34.63380	17.88000
34.64360	19.56000
34.65360	20.29000
34.66370	17.62000
34.67380	20.32000
34.68370	20.23000
34.69360	19.80000
34.70360	20.56000
34.71380	18.76000
34.72380	21.94000
34.73380	21.21000
34.74360	19.05000
34.75360	19.73000
34.76380	18.70000
34.77380	17.91000
34.78370	19.22000
34.79360	19.75000
34.80360	18.45000
34.81380	20.24000
34.82380	19.48000
34.83370	19.34000
34.84360	20.23000
34.85360	20.25000
34.86380	20.20000
34.87380	20.37000
34.88370	20.77000
34.89360	21.29000
34.90360	20.73000
34.91370	21.84000
34.92380	19.97000
34.93370	20.61000
34.94360	22.16000
34.95360	22.04000
34.96380	20.48000
34.97380	20.08000
34.98380	22.18000
34.99360	22.26000
35.00360	20.49000
35.01370	21.40000
35.02380	19.99000
35.03370	19.82000
35.04360	21.43000
35.05360	19.80000
35.06370	19.95000
35.07380	19.97000
35.08380	21.66000
35.09360	21.95000
35.10360	21.18000
35.11380	21.75000
35.12390	21.08000
35.13370	22.79000
35.14360	20.17000
35.15360	20.83000
35.16380	22.00000
35.17380	23.19000
35.18380	22.93000
35.19360	21.87000
35.20370	21.59000
35.21380	22.57000
35.22390	22.63000
35.23370	22.48000
35.24360	22.74000
35.25370	22.35000
35.26380	22.72000
35.27380	23.05000
35.28370	21.34000
35.29370	21.65000
35.30370	22.35000
35.31380	22.75000
35.32380	21.97000
35.33370	22.89000
35.34370	25.22000
35.35370	23.82000
35.36380	21.19000
35.37390	22.15000
35.38380	23.88000
35.39370	23.26000
35.40360	23.39000
35.41380	21.84000
35.42380	22.75000
35.43380	23.04000
35.44360	22.68000
35.45370	23.90000
35.46370	22.68000
35.47380	24.08000
35.48380	22.32000
35.49360	22.25000
35.50360	23.80000
35.51370	22.15000
35.52380	21.01000
35.53370	23.31000
35.54360	21.61000
35.55360	21.89000
35.56380	21.57000
35.57380	20.89000
35.58370	20.79000
35.59360	21.08000
35.60360	22.34000
35.61380	20.49000
35.62390	21.97000
35.63370	21.82000
35.64360	21.61000
35.65360	22.27000
35.66380	19.96000
35.67380	21.78000
35.68380	22.07000
35.69360	21.87000
35.70370	20.57000
35.71370	21.25000
35.72380	22.87000
35.73370	19.85000
35.74360	21.78000
35.75370	21.12000
35.76370	19.50000
35.77380	22.07000
35.78370	20.31000
35.79360	20.16000
35.80360	19.64000
35.81380	19.28000
35.82380	20.12000
35.83370	21.03000
35.84370	20.03000
35.85360	20.80000
35.86370	18.67000
35.87380	21.33000
35.88380	19.04000
35.89360	20.30000
35.90360	18.81000
35.91370	19.70000
35.92380	20.48000
35.93380	19.78000
35.94360	19.14000
35.95360	20.15000
35.96370	18.83000
35.97380	21.02000
35.98370	21.92000
35.99360	20.78000
36.00360	21.69000
36.01370	19.41000
36.02380	22.22000
36.03370	20.29000
36.04360	22.09000
36.05360	20.85000
36.06380	22.19000
36.07380	21.27000
36.08380	21.33000
36.09360	21.49000
36.10360	22.27000
36.11380	22.93000
36.12390	23.36000
36.13380	23.02000
36.14360	21.85000
36.15360	22.42000
36.16380	21.08000
36.17380	22.04000
36.18380	20.75000
36.19360	20.95000
36.20370	21.71000
36.21370	21.93000
36.22390	23.14000
36.23380	21.18000
36.24360	20.67000
36.25360	21.55000
36.26380	20.27000
36.27390	22.02000
36.28370	21.96000
36.29370	20.36000
36.30370	21.53000
36.31380	21.18000
36.32380	20.53000
36.33380	20.90000
36.34370	23.14000
36.35370	22.88000
36.36380	21.34000
36.37390	21.30000
36.38380	22.06000
36.39360	22.61000
36.40370	22.21000
36.41370	21.81000
36.42390	21.00000
36.43380	22.09000
36.44360	21.32000
36.45370	22.25000
36.46380	22.29000
36.47390	22.04000
36.48370	20.87000
36.49360	20.53000
36.50360	21.29000
36.51380	22.58000
36.52380	23.47000
36.53380	23.28000
36.54360	22.18000
36.55360	22.24000
36.56380	23.32000
36.57380	21.76000
36.58370	21.81000
36.59360	22.25000
36.60370	22.99000
36.61380	22.50000
36.62380	21.40000
36.63370	20.12000
36.64360	19.79000
36.65360	20.89000
36.66370	22.10000
36.67380	22.77000
36.68370	20.81000
36.69360	20.48000
36.70360	19.99000
36.71370	20.35000
36.72380	19.47000
36.73370	20.45000
36.74360	19.88000
36.75360	18.40000
36.76370	21.28000
36.77380	21.02000
36.78380	20.49000
36.79360	20.72000
36.80360	21.65000
36.81380	22.46000
36.82380	22.69000
36.83380	20.73000
36.84360	21.98000
36.85360	21.26000
36.86380	19.82000
36.87390	21.23000
36.88370	20.31000
36.89360	18.52000
36.90360	21.83000
36.91370	19.88000
36.92380	18.74000
36.93370	21.58000
36.94360	19.80000
36.95360	20.07000
36.96380	20.20000
36.97380	20.70000
36.98370	18.86000
36.99360	19.52000
37.00360	19.02000
37.01380	16.49000
37.02380	19.64000
37.03370	20.48000
37.04360	18.96000
37.05360	19.47000
37.06380	18.04000
37.07380	19.21000
37.08370	19.63000
37.09360	18.85000
37.10360	20.04000
37.11380	19.19000
37.12380	18.00000
37.13380	20.14000
37.14370	19.70000
37.15360	19.29000
37.16370	19.82000
37.17380	21.17000
37.18380	19.85000
37.19370	19.96000
37.20360	21.00000
37.21380	19.82000
37.22390	18.84000
37.23380	19.71000
37.24360	18.80000
37.25370	19.82000
37.26380	20.06000
37.27380	19.35000
37.28380	20.40000
37.29370	19.90000
37.30370	19.74000
37.31380	19.75000
37.32380	18.79000
37.33380	19.01000
37.34360	19.73000
37.35370	19.14000
37.36380	18.70000
37.37390	18.67000
37.38380	19.03000
37.39370	18.03000
37.40360	19.00000
37.41380	18.53000
37.42380	17.41000
37.43370	19.02000
37.44360	17.91000
37.45370	18.22000
37.46380	19.35000
37.47390	19.45000
37.48370	19.94000
37.49360	20.14000
37.50370	18.13000
37.51370	19.13000
37.52380	19.71000
37.53370	18.82000
37.54360	19.29000
37.55370	19.45000
37.56380	18.59000
37.57390	16.92000
37.58370	19.77000
37.59370	17.41000
37.60360	17.62000
37.61380	17.04000
37.62390	16.56000
37.63370	17.81000
37.64360	17.98000
37.65360	19.12000
37.66370	17.82000
37.67380	18.65000
37.68380	18.78000
37.69360	17.59000
37.70360	18.45000
37.71370	17.93000
37.72390	18.18000
37.73380	17.54000
37.74360	18.30000
37.75360	17.73000
37.76370	17.02000
37.77380	17.53000
37.78370	18.88000
37.79360	18.09000
37.80360	17.30000
37.81370	16.86000
37.82380	16.45000
37.83370	18.61000
37.84360	18.04000
37.85360	17.68000
37.86380	17.54000
37.87380	18.60000
37.88370	17.12000
37.89360	15.98000
37.90360	16.26000
37.91380	19.10000
37.92380	20.00000
37.93370	16.75000
37.94360	18.19000
37.95370	17.32000
37.96370	18.65000
37.97380	17.76000
37.98370	17.87000
37.99360	18.17000
38.00370	19.46000
38.01370	19.30000
38.02380	17.72000
38.03370	18.68000
38.04360	20.26000
38.05360	19.36000
38.06370	18.42000
38.07380	19.12000
38.08370	16.89000
38.09370	19.55000
38.10360	20.78000
38.11380	17.53000
38.12380	19.67000
38.13380	17.31000
38.14360	18.58000
38.15360	17.10000
38.16370	16.72000
38.17380	18.35000
38.18380	16.96000
38.19360	19.25000
38.20370	19.13000
38.21370	18.44000
38.22390	19.39000
38.23380	19.47000
38.24360	18.80000
38.25360	18.11000
38.26380	19.45000
38.27390	17.48000
38.28370	19.75000
38.29370	19.44000
38.30360	21.41000
38.31380	20.72000
38.32380	18.65000
38.33370	18.61000
38.34370	19.06000
38.35370	19.53000
38.36380	19.47000
38.37390	19.11000
38.38380	20.83000
38.39370	20.66000
38.40370	18.89000
38.41380	18.72000
38.42380	19.10000
38.43380	18.83000
38.44360	18.29000
38.45370	19.91000
38.46370	17.84000
38.47380	17.96000
38.48370	18.11000
38.49360	18.17000
38.50360	18.30000
38.51370	18.71000
38.52380	18.95000
38.53370	18.69000
38.54360	19.22000
38.55360	18.88000
38.56380	18.85000
38.57380	19.88000
38.58380	19.20000
38.59360	19.40000
38.60360	17.62000
38.61380	19.32000
38.62380	19.17000
38.63380	19.18000
38.64360	19.66000
38.65360	18.88000
38.66370	20.47000
38.67380	19.81000
38.68380	20.50000
38.69360	19.60000
38.70360	19.81000
38.71370	20.47000
38.72390	19.49000
38.73370	19.22000
38.74370	20.03000
38.75360	17.95000
38.76380	19.15000
38.77380	20.21000
38.78370	18.95000
38.79360	19.50000
38.80360	18.69000
38.81380	19.22000
38.82380	19.88000
38.83370	18.62000
38.84360	17.62000
38.85360	19.71000
38.86380	20.44000
38.87380	17.84000
38.88370	19.39000
38.89360	19.98000
38.90360	18.59000
38.91370	16.98000
38.92380	18.45000
38.93370	17.54000
38.94360	19.11000
38.95370	18.95000
38.96370	18.47000
38.97380	17.72000
38.98370	17.07000
38.99370	18.46000
39.00360	18.78000
39.01370	16.86000
39.02380	17.86000
39.03380	18.12000
39.04360	17.01000
39.05370	18.66000
39.06370	16.10000
39.07380	17.61000
39.08390	17.59000
39.09360	17.75000
39.10360	17.76000
39.11380	16.48000
39.12390	17.39000
39.13380	17.40000
39.14370	19.19000
39.15360	18.35000
39.16380	17.99000
39.17390	17.54000
39.18380	18.16000
39.19370	17.25000
39.20360	17.11000
39.21380	18.36000
39.22390	18.34000
39.23370	19.37000
39.24360	18.63000
39.25360	18.30000
39.26380	19.56000
39.27380	17.88000
39.28380	18.96000
39.29370	17.77000
39.30370	19.26000
39.31380	19.04000
39.32380	20.69000
39.33380	17.85000
39.34370	18.23000
39.35370	18.29000
39.36380	18.23000
39.37390	18.84000
39.38380	19.51000
39.39370	19.30000
39.40370	18.13000
39.41370	20.04000
39.42380	18.32000
39.43370	17.89000
39.44360	20.70000
39.45360	18.04000
39.46380	19.27000
39.47380	18.52000
39.48380	18.91000
39.49360	17.69000
39.50370	19.33000
39.51370	17.40000
39.52380	18.75000
39.53380	18.08000
39.54360	18.62000
39.55370	18.36000
39.56380	17.49000
39.57390	18.36000
39.58370	18.38000
39.59360	17.45000
39.60360	18.02000
39.61370	16.93000
39.62390	18.95000
39.63370	17.58000
39.64360	15.86000
39.65360	18.68000
39.66370	17.73000
39.67380	16.99000
39.68370	16.91000
39.69360	17.52000
39.70360	18.45000
39.71380	16.56000
39.72380	17.50000
39.73370	18.06000
39.74360	16.73000
39.75370	18.14000
39.76370	17.36000
39.77380	16.33000
39.78370	17.69000
39.79360	17.34000
39.80360	17.45000
39.81380	17.24000
39.82380	15.30000
39.83370	16.26000
39.84370	20.43000
39.85360	17.28000
39.86370	17.90000
39.87380	16.58000
39.88370	16.63000
39.89360	16.13000
39.90360	16.37000
39.91370	17.95000
39.92380	16.74000
39.93370	17.34000
39.94360	17.06000
39.95360	17.14000
39.96370	16.51000
39.97380	15.84000
39.98380	16.87000
39.99360	17.13000
40.00360	17.49000
40.01370	16.39000
40.02390	16.54000
40.03370	19.45000
40.04360	17.73000
40.05360	17.71000
40.06380	16.35000
40.07380	18.13000
40.08370	18.12000
40.09360	18.16000
40.10360	18.14000
40.11380	18.16000
40.12380	16.59000
40.13380	17.41000
40.14360	17.98000
40.15360	17.47000
40.16380	17.77000
40.17380	18.88000
40.18380	16.64000
40.19360	18.13000
40.20370	17.15000
40.21380	15.88000
40.22390	17.92000
40.23380	17.63000
40.24360	16.77000
40.25370	17.43000
40.26370	16.81000
40.27390	16.20000
40.28370	18.58000
40.29370	17.64000
40.30370	18.10000
40.31380	15.43000
40.32390	18.34000
40.33370	18.10000
40.34370	17.89000
40.35360	17.19000
40.36380	18.53000
40.37380	17.78000
40.38380	15.99000
40.39370	18.54000
40.40370	16.70000
40.41370	16.19000
40.42380	17.60000
40.43380	18.42000
40.44360	17.61000
40.45370	17.33000
40.46380	17.42000
40.47390	16.88000
40.48380	17.80000
40.49360	16.36000
40.50360	18.09000
40.51370	17.27000
40.52390	18.14000
40.53370	16.30000
40.54360	18.29000
40.55360	15.42000
40.56380	17.17000
40.57380	17.15000
40.58370	17.71000
40.59360	16.35000
40.60360	16.51000
40.61380	18.18000
40.62380	16.92000
40.63380	17.25000
40.64360	17.32000
40.65370	16.62000
40.66370	17.99000
40.67380	16.63000
40.68380	16.72000
40.69360	16.86000
40.70370	17.50000
40.71370	15.74000
40.72390	17.14000
40.73370	16.85000
40.74370	17.52000
40.75360	17.75000
40.76370	17.21000
40.77380	17.01000
40.78370	17.82000
40.79360	16.96000
40.80360	17.30000
40.81380	17.26000
40.82380	17.59000
40.83370	16.92000
40.84360	19.00000
40.85360	15.27000
40.86370	16.37000
40.87380	19.09000
40.88380	17.99000
40.89360	17.69000
40.90360	17.43000
40.91370	18.62000
40.92380	16.90000
40.93380	17.45000
40.94360	16.96000
40.95360	16.25000
40.96370	17.54000
40.97390	16.98000
40.98370	18.50000
40.99360	17.30000
41.00360	17.12000
41.01380	17.33000
41.02380	16.40000
41.03370	16.72000
41.04360	16.61000
41.05360	15.79000
41.06380	15.94000
41.07380	18.71000
41.08370	16.73000
41.09360	17.00000
41.10370	17.90000
41.11380	18.13000
41.12380	16.00000
41.13380	17.75000
41.14360	17.40000
41.15370	16.51000
41.16370	17.70000
41.17380	15.93000
41.18370	16.21000
41.19370	16.99000
41.20370	16.15000
41.21380	16.98000
41.22390	18.36000
41.23370	17.58000
41.24370	18.97000
41.25360	17.91000
41.26380	18.26000
41.27380	18.08000
41.28380	17.31000
41.29360	18.21000
41.30370	18.88000
41.31380	19.26000
41.32380	17.92000
41.33380	17.92000
41.34360	19.43000
41.35360	18.15000
41.36380	17.47000
41.37390	17.15000
41.38380	18.06000
41.39370	17.02000
41.40370	17.33000
41.41370	18.70000
41.42390	17.25000
41.43370	17.03000
41.44360	17.94000
41.45370	16.83000
41.46380	16.13000
41.47390	16.60000
41.48370	18.69000
41.49360	17.79000
41.50360	17.54000
41.51380	17.92000
41.52380	16.00000
41.53380	16.61000
41.54360	17.99000
41.55370	17.36000
41.56380	17.80000
41.57380	18.16000
41.58370	16.71000
41.59360	17.78000
41.60370	16.89000
41.61380	18.43000
41.62390	15.88000
41.63370	17.40000
41.64360	16.83000
41.65360	18.14000
41.66380	17.27000
41.67380	16.17000
41.68370	16.03000
41.69360	16.76000
41.70360	16.47000
41.71370	15.57000
41.72380	16.61000
41.73380	16.33000
41.74360	17.30000
41.75370	16.37000
41.76370	16.35000
41.77380	15.60000
41.78380	16.31000
41.79360	15.06000
41.80360	16.38000
41.81380	16.35000
41.82380	15.27000
41.83380	18.07000
41.84360	15.90000
41.85360	15.93000
41.86370	15.85000
41.87390	17.23000
41.88370	16.86000
41.89360	16.41000
41.90360	15.74000
41.91380	15.43000
41.92380	14.54000
41.93370	16.73000
41.94360	17.10000
41.95360	15.91000
41.96380	16.15000
41.97380	16.05000
41.98370	17.55000
41.99360	16.16000
42.00370	16.85000
42.01370	15.59000
42.02380	15.81000
42.03370	17.20000
42.04360	16.23000
42.05370	15.54000
42.06370	15.87000
42.07380	16.91000
42.08370	16.26000
42.09370	15.26000
42.10360	15.65000
42.11380	16.65000
42.12390	16.51000
42.13370	15.53000
42.14370	15.54000
42.15360	14.97000
42.16380	16.48000
42.17380	17.02000
42.18380	16.41000
42.19360	15.80000
42.20370	16.27000
42.21380	15.45000
42.22390	16.20000
42.23380	16.15000
42.24360	15.36000
42.25370	15.64000
42.26370	15.04000
42.27390	15.27000
42.28380	15.52000
42.29360	16.12000
42.30370	16.71000
42.31380	15.34000
42.32390	15.11000
42.33380	16.87000
42.34370	14.36000
42.35360	14.14000
42.36380	13.89000
42.37390	16.20000
42.38380	15.94000
42.39360	15.38000
42.40360	16.09000
42.41380	15.35000
42.42380	15.32000
42.43380	15.29000
42.44360	15.16000
42.45370	15.14000
42.46370	15.21000
42.47390	13.35000
42.48370	15.62000
42.49360	17.19000
42.50370	14.93000
42.51370	15.21000
42.52390	15.43000
42.53370	14.30000
42.54360	15.74000
42.55370	14.31000
42.56380	15.21000
42.57380	14.76000
42.58370	14.74000
42.59370	14.43000
42.60360	14.63000
42.61380	14.36000
42.62380	14.67000
42.63380	14.79000
42.64360	15.76000
42.65360	14.72000
42.66370	15.10000
42.67380	14.95000
42.68380	16.45000
42.69360	14.35000
42.70370	14.50000
42.71370	15.15000
42.72380	16.47000
42.73380	14.27000
42.74360	15.75000
42.75360	15.62000
42.76370	14.70000
42.77380	13.98000
42.78370	15.06000
42.79360	15.92000
42.80360	15.78000
42.81380	16.31000
42.82380	16.59000
42.83370	15.89000
42.84360	15.81000
42.85360	16.22000
42.86380	15.03000
42.87380	16.47000
42.88370	17.83000
42.89360	15.10000
42.90370	15.42000
42.91370	13.89000
42.92380	16.05000
42.93370	15.03000
42.94360	15.48000
42.95370	15.37000
42.96370	16.52000
42.97390	14.96000
42.98370	16.52000
42.99360	15.55000
43.00370	16.01000
