15.00000	4029.00000
15.01998	4059.00000
15.03995	4029.00000
15.05993	4047.00000
15.07991	4048.00000
15.09989	4017.00000
15.11986	3980.00000
15.13984	4115.00000
15.15982	3911.00000
15.17979	4024.00000
15.19977	3969.00000
15.21975	4033.00000
15.23972	4061.00000
15.25970	4058.00000
15.27968	3944.00000
15.29966	3872.00000
15.31963	4073.00000
15.33961	3986.00000
15.35959	3967.00000
15.37956	3901.00000
15.39954	4006.00000
15.41952	3867.00000
15.43949	4004.00000
15.45947	3991.00000
15.47945	4029.00000
15.49943	3999.00000
15.51940	4128.00000
15.53938	4244.00000
15.55936	4090.00000
15.57933	4273.00000
15.59931	4325.00000
15.61929	4382.00000
15.63926	4509.00000
15.65924	4414.00000
15.67922	4171.00000
15.69920	4151.00000
15.71917	4161.00000
15.73915	3911.00000
15.75913	3947.00000
15.77910	4025.00000
15.79908	3989.00000
15.81906	3933.00000
15.83903	3903.00000
15.85901	3860.00000
15.87899	4015.00000
15.89897	3969.00000
15.91894	3835.00000
15.93892	3856.00000
15.95890	3760.00000
15.97887	3891.00000
15.99885	3810.00000
16.01883	3868.00000
16.03880	3847.00000
16.05878	3918.00000
16.07876	3883.00000
16.09874	3919.00000
16.11871	3872.00000
16.13869	3964.00000
16.15867	3885.00000
16.17864	3927.00000
16.19862	3823.00000
16.21860	3881.00000
16.23857	3804.00000
16.25855	3861.00000
16.27853	3860.00000
16.29851	3824.00000
16.31848	3780.00000
16.33846	3807.00000
16.35844	3866.00000
16.37841	3925.00000
16.39839	3911.00000
16.41837	3778.00000
16.43834	3797.00000
16.45832	3736.00000
16.47830	3759.00000
16.49828	3821.00000
16.51825	3790.00000
16.53823	3733.00000
16.55821	3855.00000
16.57818	3873.00000
16.59816	3720.00000
16.61814	3821.00000
16.63811	3745.00000
16.65809	3681.00000
16.67807	3737.00000
16.69805	3727.00000
16.71802	3789.00000
16.73800	3845.00000
16.75798	3781.00000
16.77795	3840.00000
16.79793	3767.00000
16.81791	3690.00000
16.83788	3803.00000
16.85786	3846.00000
16.87784	3795.00000
16.89782	3787.00000
16.91779	3784.00000
16.93777	3765.00000
16.95775	3620.00000
16.97772	3702.00000
16.99770	3820.00000
17.01768	3881.00000
17.03765	3694.00000
17.05763	3849.00000
17.07761	3832.00000
17.09759	3748.00000
17.11756	3857.00000
17.13754	3800.00000
17.15752	3961.00000
17.17749	3927.00000
17.19747	3809.00000
17.21745	3874.00000
17.23742	3957.00000
17.25740	3991.00000
17.27738	4050.00000
17.29736	4072.00000
17.31733	4270.00000
17.33731	4557.00000
17.35729	4716.00000
17.37726	5189.00000
17.39724	5362.00000
17.41722	5863.00000
17.43719	6237.00000
17.45717	6306.00000
17.47715	5933.00000
17.49713	5231.00000
17.51710	4724.00000
17.53708	4249.00000
17.55706	3908.00000
17.57703	3758.00000
17.59701	3772.00000
17.61699	3685.00000
17.63696	3761.00000
17.65694	3792.00000
17.67692	3728.00000
17.69690	3704.00000
17.71687	3599.00000
17.73685	3754.00000
17.75683	3611.00000
17.77680	3601.00000
17.79678	3766.00000
17.81676	3660.00000
17.83673	3679.00000
17.85671	3500.00000
17.87669	3574.00000
17.89667	3616.00000
17.91664	3685.00000
17.93662	3657.00000
17.95660	3555.00000
17.97657	3544.00000
17.99655	3689.00000
18.01653	3643.00000
18.03650	3637.00000
18.05648	3561.00000
18.07646	3580.00000
18.09644	3651.00000
18.11641	3632.00000
18.13639	3621.00000
18.15637	3489.00000
18.17634	3564.00000
18.19632	3623.00000
18.21630	3566.00000
18.23627	3563.00000
18.25625	3497.00000
18.27623	3558.00000
18.29621	3605.00000
18.31618	3587.00000
18.33616	3457.00000
18.35614	3613.00000
18.37611	3520.00000
18.39609	3600.00000
18.41607	3485.00000
18.43604	3494.00000
18.45602	3509.00000
18.47600	3452.00000
18.49598	3574.00000
18.51595	3437.00000
18.53593	3392.00000
18.55591	3611.00000
18.57588	3430.00000
18.59586	3461.00000
18.61584	3526.00000
18.63581	3421.00000
18.65579	3415.00000
18.67577	3543.00000
18.69575	3395.00000
18.71572	3494.00000
18.73570	3493.00000
18.75568	3398.00000
18.77565	3555.00000
18.79563	3499.00000
18.81561	3502.00000
18.83558	3391.00000
18.85556	3417.00000
18.87554	3468.00000
18.89552	3451.00000
18.91549	3391.00000
18.93547	3442.00000
18.95545	3367.00000
18.97542	3478.00000
18.99540	3496.00000
19.01538	3409.00000
19.03535	3459.00000
19.05533	3377.00000
19.07531	3487.00000
19.09529	3427.00000
19.11526	3390.00000
19.13524	3424.00000
19.15522	3402.00000
19.17519	3417.00000
19.19517	3375.00000
19.21515	3450.00000
19.23512	3305.00000
19.25510	3466.00000
19.27508	3383.00000
19.29506	3327.00000
19.31503	3449.00000
19.33501	3318.00000
19.35499	3293.00000
19.37496	3241.00000
19.39494	3311.00000
19.41492	3382.00000
19.43489	3449.00000
19.45487	3329.00000
19.47485	3325.00000
19.49483	3316.00000
19.51480	3319.00000
19.53478	3405.00000
19.55476	3289.00000
19.57473	3310.00000
19.59471	3281.00000
19.61469	3422.00000
19.63466	3299.00000
19.65464	3240.00000
19.67462	3363.00000
19.69460	3288.00000
19.71457	3357.00000
19.73455	3301.00000
19.75453	3325.00000
19.77450	3311.00000
19.79448	3330.00000
19.81446	3357.00000
19.83443	3303.00000
19.85441	3377.00000
19.87439	3465.00000
19.89437	3349.00000
19.91434	3299.00000
19.93432	3373.00000
19.95430	3355.00000
19.97427	3294.00000
19.99425	3358.00000
20.01423	3418.00000
20.03420	3457.00000
20.05418	3365.00000
20.07416	3368.00000
20.09414	3429.00000
20.11411	3363.00000
20.13409	3453.00000
20.15407	3388.00000
20.17404	3419.00000
20.19402	3415.00000
20.21400	3354.00000
20.23397	3454.00000
20.25395	3507.00000
20.27393	3413.00000
20.29391	3329.00000
20.31388	3521.00000
20.33386	3390.00000
20.35384	3431.00000
20.37381	3444.00000
20.39379	3387.00000
20.41377	3442.00000
20.43374	3549.00000
20.45372	3381.00000
20.47370	3497.00000
20.49368	3396.00000
20.51365	3478.00000
20.53363	3408.00000
20.55361	3479.00000
20.57358	3398.00000
20.59356	3444.00000
20.61354	3467.00000
20.63351	3513.00000
20.65349	3589.00000
20.67347	3497.00000
20.69345	3487.00000
20.71342	3568.00000
20.73340	3611.00000
20.75338	3548.00000
20.77335	3599.00000
20.79333	3687.00000
20.81331	3700.00000
20.83328	3756.00000
20.85326	3646.00000
20.87324	3773.00000
20.89322	3660.00000
20.91319	3791.00000
20.93317	3679.00000
20.95315	3726.00000
20.97312	3751.00000
20.99310	3592.00000
21.01308	3594.00000
21.03305	3420.00000
21.05303	3484.00000
21.07301	3523.00000
21.09299	3315.00000
21.11296	3345.00000
21.13294	3285.00000
21.15292	3379.00000
21.17289	3373.00000
21.19287	3342.00000
21.21285	3378.00000
21.23282	3352.00000
21.25280	3302.00000
21.27278	3360.00000
21.29276	3376.00000
21.31273	3274.00000
21.33271	3358.00000
21.35269	3175.00000
21.37266	3169.00000
21.39264	3282.00000
21.41262	3349.00000
21.43259	3232.00000
21.45257	3192.00000
21.47255	3240.00000
21.49253	3135.00000
21.51250	3295.00000
21.53248	3289.00000
21.55246	3220.00000
21.57243	3183.00000
21.59241	3183.00000
21.61239	3258.00000
21.63236	3347.00000
21.65234	3240.00000
21.67232	3113.00000
21.69230	3288.00000
21.71227	3275.00000
21.73225	3245.00000
21.75223	3174.00000
21.77220	3312.00000
21.79218	3330.00000
21.81216	3333.00000
21.83213	3212.00000
21.85211	3329.00000
21.87209	3257.00000
21.89207	3297.00000
21.91204	3182.00000
21.93202	3267.00000
21.95200	3452.00000
21.97197	3462.00000
21.99195	3663.00000
22.01193	3796.00000
22.03190	4006.00000
22.05188	4232.00000
22.07186	4157.00000
22.09184	4491.00000
22.11181	4424.00000
22.13179	4023.00000
22.15177	3748.00000
22.17174	3578.00000
22.19172	3431.00000
22.21170	3247.00000
22.23167	3199.00000
22.25165	3220.00000
22.27163	3204.00000
22.29161	3309.00000
22.31158	3151.00000
22.33156	3130.00000
22.35154	3178.00000
22.37151	3075.00000
22.39149	3149.00000
22.41147	3175.00000
22.43144	3047.00000
22.45142	3133.00000
22.47140	3094.00000
22.49138	3058.00000
22.51135	3218.00000
22.53133	3185.00000
22.55131	3125.00000
22.57128	3047.00000
22.59126	3265.00000
22.61124	3137.00000
22.63121	3117.00000
22.65119	3205.00000
22.67117	3124.00000
22.69115	3110.00000
22.71112	3035.00000
22.73110	3081.00000
22.75108	3098.00000
22.77105	3179.00000
22.79103	3036.00000
22.81101	3131.00000
22.83098	3041.00000
22.85096	3026.00000
22.87094	3085.00000
22.89092	2997.00000
22.91089	2977.00000
22.93087	3090.00000
22.95085	3086.00000
22.97082	3089.00000
22.99080	3083.00000
23.01078	3127.00000
23.03075	3096.00000
23.05073	3119.00000
23.07071	3084.00000
23.09069	3033.00000
23.11066	3074.00000
23.13064	2941.00000
23.15062	3104.00000
23.17059	3018.00000
23.19057	3078.00000
23.21055	3066.00000
23.23052	3117.00000
23.25050	3020.00000
23.27048	3012.00000
23.29046	3037.00000
23.31043	3053.00000
23.33041	3027.00000
23.35039	3072.00000
23.37036	3003.00000
23.39034	2990.00000
23.41032	3077.00000
23.43029	2971.00000
23.45027	3103.00000
23.47025	3143.00000
23.49023	3120.00000
23.51020	2941.00000
23.53018	3025.00000
23.55016	2950.00000
23.57013	3044.00000
23.59011	3132.00000
23.61009	3143.00000
23.63006	2910.00000
23.65004	2950.00000
23.67002	3020.00000
23.69000	3124.00000
23.70997	3063.00000
23.72995	2982.00000
23.74993	3149.00000
23.76990	3165.00000
23.78988	3032.00000
23.80986	3085.00000
23.82983	3063.00000
23.84981	2951.00000
23.86979	3052.00000
23.88977	3060.00000
23.90974	2976.00000
23.92972	3042.00000
23.94970	3003.00000
23.96967	3011.00000
23.98965	2987.00000
24.00963	3064.00000
24.02960	3103.00000
24.04958	3013.00000
24.06956	3023.00000
24.08954	3116.00000
24.10951	3132.00000
24.12949	3086.00000
24.14947	3001.00000
24.16944	2906.00000
24.18942	3100.00000
24.20940	3147.00000
24.22937	3064.00000
24.24935	2957.00000
24.26933	3144.00000
24.28931	3016.00000
24.30928	3031.00000
24.32926	3021.00000
24.34924	3203.00000
24.36921	3016.00000
24.38919	3225.00000
24.40917	3141.00000
24.42914	3270.00000
24.44912	3226.00000
24.46910	3286.00000
24.48908	3267.00000
24.50905	3375.00000
24.52903	3293.00000
24.54901	2989.00000
24.56898	3147.00000
24.58896	3055.00000
24.60894	3061.00000
24.62891	3069.00000
24.64889	2968.00000
24.66887	3061.00000
24.68885	2983.00000
24.70882	3007.00000
24.72880	3011.00000
24.74878	3023.00000
24.76875	3046.00000
24.78873	2952.00000
24.80871	3010.00000
24.82868	3063.00000
24.84866	2976.00000
24.86864	3012.00000
24.88862	3025.00000
24.90859	3127.00000
24.92857	3038.00000
24.94855	3003.00000
24.96852	3012.00000
24.98850	3021.00000
25.00848	3060.00000
25.02845	2994.00000
25.04843	3069.00000
25.06841	3066.00000
25.08839	3010.00000
25.10836	3059.00000
25.12834	3069.00000
25.14832	3031.00000
25.16829	3101.00000
25.18827	2996.00000
25.20825	3034.00000
25.22822	3023.00000
25.24820	2970.00000
25.26818	3084.00000
25.28816	2951.00000
25.30813	2967.00000
25.32811	3016.00000
25.34809	3006.00000
25.36806	2938.00000
25.38804	3068.00000
25.40802	3101.00000
25.42799	3006.00000
25.44797	3001.00000
25.46795	3133.00000
25.48793	3085.00000
25.50790	3024.00000
25.52788	3056.00000
25.54786	3096.00000
25.56783	3139.00000
25.58781	3038.00000
25.60779	3013.00000
25.62776	3070.00000
25.64774	3172.00000
25.66772	3067.00000
25.68770	3020.00000
25.70767	3034.00000
25.72765	3212.00000
25.74763	3123.00000
25.76760	3036.00000
25.78758	3034.00000
25.80756	3081.00000
25.82753	3002.00000
25.84751	3007.00000
25.86749	3092.00000
25.88747	3036.00000
25.90744	3068.00000
25.92742	3114.00000
25.94740	3090.00000
25.96737	3225.00000
25.98735	3158.00000
26.00733	3133.00000
26.02730	3261.00000
26.04728	3259.00000
26.06726	3249.00000
26.08724	3263.00000
26.10721	3230.00000
26.12719	3343.00000
26.14717	3457.00000
26.16714	3618.00000
26.18712	3703.00000
26.20710	3750.00000
26.22707	3901.00000
26.24705	4096.00000
26.26703	4083.00000
26.28701	3992.00000
26.30698	4002.00000
26.32696	4105.00000
26.34694	4222.00000
26.36691	4184.00000
26.38689	4335.00000
26.40687	4432.00000
26.42684	4541.00000
26.44682	4629.00000
26.46680	4810.00000
26.48678	5195.00000
26.50675	5468.00000
26.52673	5640.00000
26.54671	6047.00000
26.56668	6199.00000
26.58666	6437.00000
26.60664	6555.00000
26.62661	6636.00000
26.64659	6337.00000
26.66657	6070.00000
26.68655	5975.00000
26.70652	5832.00000
26.72650	5552.00000
26.74648	5699.00000
26.76645	5793.00000
26.78643	5786.00000
26.80641	6056.00000
26.82638	6408.00000
26.84636	6883.00000
26.86634	7268.00000
26.88632	7693.00000
26.90629	8181.00000
26.92627	8773.00000
26.94625	9684.00000
26.96622	10788.00000
26.98620	12552.00000
27.00618	15707.00000
27.02615	20807.00000
27.04613	28147.00000
27.06611	40652.00000
27.08609	56213.00000
27.10606	74607.00000
27.12604	94179.00000
27.14602	117324.00000
27.16599	130145.00000
27.18597	116142.00000
27.20595	86361.00000
27.22592	71218.00000
27.24590	60912.00000
27.26588	40206.00000
27.28586	23194.00000
27.30583	16482.00000
27.32581	13075.00000
27.34579	11441.00000
27.36576	9914.00000
27.38574	9008.00000
27.40572	8297.00000
27.42569	7872.00000
27.44567	7120.00000
27.46565	6460.00000
27.48563	6004.00000
27.50560	5626.00000
27.52558	5219.00000
27.54556	4978.00000
27.56553	4763.00000
27.58551	4464.00000
27.60549	4500.00000
27.62546	4298.00000
27.64544	4119.00000
27.66542	4183.00000
27.68540	4044.00000
27.70537	3961.00000
27.72535	4001.00000
27.74533	3862.00000
27.76530	3825.00000
27.78528	3881.00000
27.80526	3715.00000
27.82523	3719.00000
27.84521	3691.00000
27.86519	3799.00000
27.88517	3690.00000
27.90514	3642.00000
27.92512	3749.00000
27.94510	3686.00000
27.96507	3549.00000
27.98505	3515.00000
28.00503	3663.00000
28.02500	3728.00000
28.04498	3480.00000
28.06496	3549.00000
28.08494	3555.00000
28.10491	3625.00000
28.12489	3556.00000
28.14487	3549.00000
28.16484	3736.00000
28.18482	3730.00000
28.20480	3712.00000
28.22477	4022.00000
28.24475	4317.00000
28.26473	4526.00000
28.28471	5147.00000
28.30468	5545.00000
28.32466	5885.00000
28.34464	5649.00000
28.36461	5187.00000
28.38459	4858.00000
28.40457	4473.00000
28.42454	4234.00000
28.44452	3819.00000
28.46450	3658.00000
28.48448	3599.00000
28.50445	3416.00000
28.52443	3371.00000
28.54441	3359.00000
28.56438	3371.00000
28.58436	3362.00000
28.60434	3326.00000
28.62431	3268.00000
28.64429	3313.00000
28.66427	3270.00000
28.68425	3328.00000
28.70422	3268.00000
28.72420	3356.00000
28.74418	3291.00000
28.76415	3268.00000
28.78413	3270.00000
28.80411	3154.00000
28.82408	3164.00000
28.84406	3126.00000
28.86404	3224.00000
28.88402	3242.00000
28.90399	3279.00000
28.92397	3255.00000
28.94395	3233.00000
28.96392	3159.00000
28.98390	3138.00000
29.00388	3238.00000
29.02385	3224.00000
29.04383	3147.00000
29.06381	3119.00000
29.08379	3128.00000
29.10376	3173.00000
29.12374	3111.00000
29.14372	3171.00000
29.16369	3093.00000
29.18367	3105.00000
29.20365	3127.00000
29.22362	3107.00000
29.24360	3130.00000
29.26358	3092.00000
29.28356	3162.00000
29.30353	3261.00000
29.32351	3187.00000
29.34349	3245.00000
29.36346	3042.00000
29.38344	3213.00000
29.40342	3135.00000
29.42339	3103.00000
29.44337	3061.00000
29.46335	3178.00000
29.48333	3122.00000
29.50330	3163.00000
29.52328	2980.00000
29.54326	3292.00000
29.56323	3208.00000
29.58321	3206.00000
29.60319	3126.00000
29.62316	3244.00000
29.64314	3171.00000
29.66312	3221.00000
29.68310	3189.00000
29.70307	3074.00000
29.72305	3165.00000
29.74303	3210.00000
29.76300	3106.00000
29.78298	3136.00000
29.80296	3092.00000
29.82293	3139.00000
29.84291	3122.00000
29.86289	3082.00000
29.88287	3115.00000
29.90284	3095.00000
29.92282	3118.00000
29.94280	3030.00000
29.96277	2999.00000
29.98275	2895.00000
30.00273	3083.00000
30.02270	3092.00000
30.04268	3045.00000
30.06266	3011.00000
30.08264	2964.00000
30.10261	3014.00000
30.12259	2962.00000
30.14257	3084.00000
30.16254	2978.00000
30.18252	3084.00000
30.20250	3036.00000
30.22247	3029.00000
30.24245	3089.00000
30.26243	3031.00000
30.28241	2953.00000
30.30238	3046.00000
30.32236	2986.00000
30.34234	3028.00000
30.36231	3059.00000
30.38229	2965.00000
30.40227	3048.00000
30.42224	3050.00000
30.44222	3007.00000
30.46220	2971.00000
30.48218	3000.00000
30.50215	2991.00000
30.52213	3038.00000
30.54211	2983.00000
30.56208	3036.00000
30.58206	3097.00000
30.60204	2960.00000
30.62201	3035.00000
30.64199	3004.00000
30.66197	2958.00000
30.68195	3050.00000
30.70192	3072.00000
30.72190	2937.00000
30.74188	2988.00000
30.76185	2881.00000
30.78183	2919.00000
30.80181	3006.00000
30.82178	2956.00000
30.84176	2968.00000
30.86174	2979.00000
30.88172	2927.00000
30.90169	2992.00000
30.92167	3020.00000
30.94165	3018.00000
30.96162	3009.00000
30.98160	2970.00000
31.00158	3002.00000
31.02155	2974.00000
31.04153	3112.00000
31.06151	2965.00000
31.08149	3197.00000
31.10146	3049.00000
31.12144	3045.00000
31.14142	3004.00000
31.16139	2942.00000
31.18137	3044.00000
31.20135	2985.00000
31.22132	3023.00000
31.24130	3073.00000
31.26128	2995.00000
31.28126	3017.00000
31.30123	3000.00000
31.32121	2959.00000
31.34119	2961.00000
31.36116	3012.00000
31.38114	2935.00000
31.40112	2947.00000
31.42109	2962.00000
31.44107	3006.00000
31.46105	3017.00000
31.48103	2916.00000
31.50100	3038.00000
31.52098	3028.00000
31.54096	2988.00000
31.56093	2917.00000
31.58091	2934.00000
31.60089	2929.00000
31.62086	2937.00000
31.64084	2984.00000
31.66082	2910.00000
31.68080	2965.00000
31.70077	2933.00000
31.72075	2930.00000
31.74073	2935.00000
31.76070	2928.00000
31.78068	2957.00000
31.80066	2969.00000
31.82063	2915.00000
31.84061	2964.00000
31.86059	2906.00000
31.88057	2930.00000
31.90054	2804.00000
31.92052	2921.00000
31.94050	2906.00000
31.96047	2948.00000
31.98045	2905.00000
32.00043	3004.00000
32.02041	2865.00000
32.04038	2910.00000
32.06036	2893.00000
32.08034	2973.00000
32.10031	2909.00000
32.12029	2861.00000
32.14027	2830.00000
32.16024	2810.00000
32.18022	2857.00000
32.20020	2921.00000
32.22018	2854.00000
32.24015	2771.00000
32.26013	2974.00000
32.28011	2854.00000
32.30008	2878.00000
32.32006	2848.00000
32.34004	2871.00000
32.36001	2996.00000
32.37999	2916.00000
32.39997	2799.00000
32.41995	2818.00000
32.43992	2858.00000
32.45990	2790.00000
32.47988	2919.00000
32.49985	2865.00000
32.51983	2922.00000
32.53981	2827.00000
32.55978	3057.00000
32.57976	2898.00000
32.59974	2922.00000
32.61972	2800.00000
32.63969	2833.00000
32.65967	2915.00000
32.67965	2904.00000
32.69962	3044.00000
32.71960	2960.00000
32.73958	2895.00000
32.75955	2944.00000
32.77953	2780.00000
32.79951	2804.00000
32.81949	2867.00000
32.83946	2890.00000
32.85944	2966.00000
32.87942	2877.00000
32.89939	2877.00000
32.91937	2935.00000
32.93935	2892.00000
32.95932	2857.00000
32.97930	2802.00000
32.99928	2861.00000
33.01926	2787.00000
33.03923	2820.00000
33.05921	2872.00000
33.07919	2839.00000
33.09916	2848.00000
33.11914	2852.00000
33.13912	2921.00000
33.15909	2782.00000
33.17907	2900.00000
33.19905	2967.00000
33.21903	2945.00000
33.23900	2796.00000
33.25898	2831.00000
33.27896	2847.00000
33.29893	2827.00000
33.31891	2945.00000
33.33889	2869.00000
33.35886	2858.00000
33.37884	2802.00000
33.39882	2837.00000
33.41880	2860.00000
33.43877	2945.00000
33.45875	2824.00000
33.47873	2807.00000
33.49870	2859.00000
33.51868	2750.00000
33.53866	2942.00000
33.55863	2938.00000
33.57861	2828.00000
33.59859	2850.00000
33.61857	2884.00000
33.63854	2887.00000
33.65852	2900.00000
33.67850	2980.00000
33.69847	2894.00000
33.71845	2916.00000
33.73843	2971.00000
33.75840	2865.00000
33.77838	2825.00000
33.79836	2950.00000
33.81834	3014.00000
33.83831	3016.00000
33.85829	2987.00000
33.87827	3103.00000
33.89824	3133.00000
33.91822	3217.00000
33.93820	3264.00000
33.95817	3326.00000
33.97815	3185.00000
33.99813	3031.00000
34.01811	3031.00000
34.03808	3055.00000
34.05806	3054.00000
34.07804	2997.00000
34.09801	3007.00000
34.11799	2855.00000
34.13797	2927.00000
34.15794	2857.00000
34.17792	2948.00000
34.19790	2960.00000
34.21788	2884.00000
34.23785	2879.00000
34.25783	2968.00000
34.27781	2880.00000
34.29778	2836.00000
34.31776	2758.00000
34.33774	2809.00000
34.35771	2897.00000
34.37769	2847.00000
34.39767	2887.00000
34.41765	2807.00000
34.43762	2784.00000
34.45760	2864.00000
34.47758	2773.00000
34.49755	2848.00000
34.51753	2942.00000
34.53751	2856.00000
34.55748	2802.00000
34.57746	2800.00000
34.59744	2819.00000
34.61742	2840.00000
34.63739	2856.00000
34.65737	2825.00000
34.67735	2887.00000
34.69732	2864.00000
34.71730	2828.00000
34.73728	2839.00000
34.75725	2814.00000
34.77723	2929.00000
34.79721	2871.00000
34.81719	2887.00000
34.83716	2823.00000
34.85714	2914.00000
34.87712	2919.00000
34.89709	2888.00000
34.91707	2870.00000
34.93705	2818.00000
34.95702	2983.00000
34.97700	2970.00000
34.99698	2952.00000
35.01696	2869.00000
35.03693	2913.00000
35.05691	2929.00000
35.07689	2887.00000
35.09686	2981.00000
35.11684	3040.00000
35.13682	3077.00000
35.15679	3270.00000
35.17677	3354.00000
35.19675	3557.00000
35.21673	3782.00000
35.23670	4108.00000
35.25668	4275.00000
35.27666	4133.00000
35.29663	3950.00000
35.31661	3734.00000
35.33659	3765.00000
35.35656	3669.00000
35.37654	3408.00000
35.39652	3171.00000
35.41650	3126.00000
35.43647	3111.00000
35.45645	2932.00000
35.47643	2941.00000
35.49640	2944.00000
35.51638	2921.00000
35.53636	2864.00000
35.55633	2935.00000
35.57631	2847.00000
35.59629	2886.00000
35.61627	2895.00000
35.63624	2956.00000
35.65622	2869.00000
35.67620	2839.00000
35.69617	2875.00000
35.71615	2908.00000
35.73613	2932.00000
35.75610	3010.00000
35.77608	2960.00000
35.79606	2966.00000
35.81604	2987.00000
35.83601	3019.00000
35.85599	2984.00000
35.87597	3023.00000
35.89594	2954.00000
35.91592	3075.00000
35.93590	2992.00000
35.95587	3079.00000
35.97585	3177.00000
35.99583	3180.00000
36.01581	3246.00000
36.03578	3597.00000
36.05576	3797.00000
36.07574	4402.00000
36.09571	5065.00000
36.11569	5791.00000
36.13567	6207.00000
36.15564	5917.00000
36.17562	5209.00000
36.19560	4812.00000
36.21558	4540.00000
36.23555	4519.00000
36.25553	4312.00000
36.27551	3559.00000
36.29548	3313.00000
36.31546	3179.00000
36.33544	3146.00000
36.35541	3031.00000
36.37539	3073.00000
36.39537	3007.00000
36.41535	3004.00000
36.43532	3021.00000
36.45530	2947.00000
36.47528	2907.00000
36.49525	2951.00000
36.51523	2890.00000
36.53521	2813.00000
36.55518	2866.00000
36.57516	2816.00000
36.59514	2911.00000
36.61512	2894.00000
36.63509	2829.00000
36.65507	2820.00000
36.67505	2799.00000
36.69502	2842.00000
36.71500	2816.00000
36.73498	2863.00000
36.75495	2779.00000
36.77493	2798.00000
36.79491	2737.00000
36.81489	2866.00000
36.83486	2826.00000
36.85484	2914.00000
36.87482	2793.00000
36.89479	2809.00000
36.91477	2865.00000
36.93475	2800.00000
36.95472	2915.00000
36.97470	2749.00000
36.99468	2820.00000
37.01466	2842.00000
37.03463	2708.00000
37.05461	2795.00000
37.07459	2863.00000
37.09456	2822.00000
37.11454	2861.00000
37.13452	2932.00000
37.15449	2757.00000
37.17447	2873.00000
37.19445	2909.00000
37.21443	2857.00000
37.23440	2830.00000
37.25438	2785.00000
37.27436	2872.00000
37.29433	2839.00000
37.31431	2730.00000
37.33429	2826.00000
37.35426	2895.00000
37.37424	2796.00000
37.39422	2882.00000
37.41420	2768.00000
37.43417	2824.00000
37.45415	2877.00000
37.47413	2709.00000
37.49410	2849.00000
37.51408	2850.00000
37.53406	2847.00000
37.55403	2815.00000
37.57401	2739.00000
37.59399	2809.00000
37.61397	2759.00000
37.63394	2757.00000
37.65392	2811.00000
37.67390	2867.00000
37.69387	2833.00000
37.71385	2848.00000
37.73383	2891.00000
37.75380	2883.00000
37.77378	2735.00000
37.79376	2871.00000
37.81374	2821.00000
37.83371	2713.00000
37.85369	2745.00000
37.87367	2845.00000
37.89364	2931.00000
37.91362	2877.00000
37.93360	2824.00000
37.95357	2815.00000
37.97355	2943.00000
37.99353	2834.00000
38.01351	2876.00000
38.03348	2938.00000
38.05346	2967.00000
38.07344	2856.00000
38.09341	2854.00000
38.11339	2935.00000
38.13337	2880.00000
38.15334	2823.00000
38.17332	2890.00000
38.19330	2808.00000
38.21328	2841.00000
38.23325	2869.00000
38.25323	2836.00000
38.27321	2831.00000
38.29318	2831.00000
38.31316	2757.00000
38.33314	2900.00000
38.35311	2909.00000
38.37309	2859.00000
38.39307	2745.00000
38.41305	2852.00000
38.43302	2784.00000
38.45300	2815.00000
38.47298	2835.00000
38.49295	2751.00000
38.51293	2866.00000
38.53291	2897.00000
38.55288	2737.00000
38.57286	2808.00000
38.59284	2913.00000
38.61282	2945.00000
38.63279	2890.00000
38.65277	2858.00000
38.67275	2830.00000
38.69272	2789.00000
38.71270	3048.00000
38.73268	3118.00000
38.75265	3209.00000
38.77263	3266.00000
38.79261	3449.00000
38.81259	3694.00000
38.83256	3560.00000
38.85254	3381.00000
38.87252	3194.00000
38.89249	3323.00000
38.91247	3353.00000
38.93245	3202.00000
38.95242	3073.00000
38.97240	2941.00000
38.99238	2861.00000
39.01236	2946.00000
39.03233	2854.00000
39.05231	2786.00000
39.07229	2878.00000
39.09226	2907.00000
39.11224	2832.00000
39.13222	2826.00000
39.15219	2816.00000
39.17217	2841.00000
39.19215	2709.00000
39.21213	2711.00000
39.23210	2653.00000
39.25208	2851.00000
39.27206	2854.00000
39.29203	2808.00000
39.31201	2797.00000
39.33199	2880.00000
39.35196	2743.00000
39.37194	2805.00000
39.39192	2853.00000
39.41190	2791.00000
39.43187	2741.00000
39.45185	2851.00000
39.47183	2767.00000
39.49180	2887.00000
39.51178	2754.00000
39.53176	2840.00000
39.55173	2777.00000
39.57171	2811.00000
39.59169	2803.00000
39.61167	2808.00000
39.63164	2806.00000
39.65162	2827.00000
39.67160	2708.00000
39.69157	2820.00000
39.71155	2776.00000
39.73153	2795.00000
39.75150	2740.00000
39.77148	2796.00000
39.79146	2907.00000
39.81144	2684.00000
39.83141	2872.00000
39.85139	2760.00000
39.87137	2774.00000
39.89134	2824.00000
39.91132	2928.00000
39.93130	2909.00000
39.95127	2840.00000
39.97125	2704.00000
39.99123	2797.00000
40.01121	2750.00000
40.03118	2749.00000
40.05116	2756.00000
40.07114	2795.00000
40.09111	2782.00000
40.11109	2775.00000
40.13107	2680.00000
40.15104	2827.00000
40.17102	2819.00000
40.19100	2750.00000
40.21098	2800.00000
40.23095	2848.00000
40.25093	2862.00000
40.27091	2738.00000
40.29088	2836.00000
40.31086	2774.00000
40.33084	2832.00000
40.35081	2737.00000
40.37079	2858.00000
40.39077	2922.00000
40.41075	2922.00000
40.43072	2841.00000
40.45070	2979.00000
40.47068	2951.00000
40.49065	2968.00000
40.51063	3011.00000
40.53061	3037.00000
40.55058	2920.00000
40.57056	2929.00000
40.59054	2915.00000
40.61052	2866.00000
40.63049	2818.00000
40.65047	2744.00000
40.67045	2930.00000
40.69042	2829.00000
40.71040	2789.00000
40.73038	2801.00000
40.75035	2801.00000
40.77033	2821.00000
40.79031	2823.00000
40.81029	2803.00000
40.83026	2922.00000
40.85024	2873.00000
40.87022	2869.00000
40.89019	2790.00000
40.91017	2768.00000
40.93015	2777.00000
40.95012	2804.00000
40.97010	2823.00000
40.99008	2740.00000
41.01006	2703.00000
41.03003	2897.00000
41.05001	2873.00000
41.06999	2781.00000
41.08996	2860.00000
41.10994	2715.00000
41.12992	2893.00000
41.14989	2805.00000
41.16987	2809.00000
41.18985	2824.00000
41.20983	2774.00000
41.22980	2905.00000
41.24978	2824.00000
41.26976	2855.00000
41.28973	2863.00000
41.30971	2830.00000
41.32969	2748.00000
41.34966	2818.00000
41.36964	2831.00000
41.38962	2812.00000
41.40960	2781.00000
41.42957	2860.00000
41.44955	2898.00000
41.46953	2799.00000
41.48950	2823.00000
41.50948	2802.00000
41.52946	2793.00000
41.54943	2889.00000
41.56941	2758.00000
41.58939	2717.00000
41.60937	2783.00000
41.62934	2740.00000
41.64932	2804.00000
41.66930	2849.00000
41.68927	2823.00000
41.70925	2801.00000
41.72923	2798.00000
41.74920	2894.00000
41.76918	2725.00000
41.78916	2797.00000
41.80914	2864.00000
41.82911	2792.00000
41.84909	2917.00000
41.86907	2894.00000
41.88904	2814.00000
41.90902	2798.00000
41.92900	2799.00000
41.94897	2869.00000
41.96895	2884.00000
41.98893	2874.00000
42.00891	2887.00000
42.02888	2802.00000
42.04886	2766.00000
42.06884	2797.00000
42.08881	2788.00000
42.10879	2820.00000
42.12877	2852.00000
42.14874	2784.00000
42.16872	2879.00000
42.18870	2809.00000
42.20868	2839.00000
42.22865	2820.00000
42.24863	2933.00000
42.26861	2815.00000
42.28858	2877.00000
42.30856	2921.00000
42.32854	2860.00000
42.34851	2755.00000
42.36849	2825.00000
42.38847	2913.00000
42.40845	2893.00000
42.42842	2880.00000
42.44840	2821.00000
42.46838	2861.00000
42.48835	2887.00000
42.50833	2913.00000
42.52831	2977.00000
42.54828	2931.00000
42.56826	2880.00000
42.58824	2970.00000
42.60822	2997.00000
42.62819	3104.00000
42.64817	3045.00000
42.66815	3075.00000
42.68812	3187.00000
42.70810	3225.00000
42.72808	3445.00000
42.74805	3717.00000
42.76803	4067.00000
42.78801	4247.00000
42.80799	4064.00000
42.82796	3922.00000
42.84794	4049.00000
42.86792	4143.00000
42.88789	3964.00000
42.90787	3732.00000
42.92785	3629.00000
42.94782	3474.00000
42.96780	3480.00000
42.98778	3440.00000
43.00776	3196.00000
43.02773	3177.00000
43.04771	3113.00000
43.06769	2994.00000
43.08766	3112.00000
43.10764	3132.00000
43.12762	3006.00000
43.14759	2951.00000
43.16757	2906.00000
43.18755	2903.00000
43.20753	2965.00000
43.22750	2964.00000
43.24748	3041.00000
43.26746	3038.00000
43.28743	3000.00000
43.30741	3047.00000
43.32739	2941.00000
43.34736	3090.00000
43.36734	3070.00000
43.38732	3140.00000
43.40730	3105.00000
43.42727	3164.00000
43.44725	3257.00000
43.46723	3255.00000
43.48720	3268.00000
43.50718	3301.00000
43.52716	3216.00000
43.54713	3117.00000
43.56711	3247.00000
43.58709	3350.00000
43.60707	3175.00000
43.62704	3291.00000
43.64702	3185.00000
43.66700	3185.00000
43.68697	3249.00000
43.70695	3153.00000
43.72693	3214.00000
43.74690	3235.00000
43.76688	3159.00000
43.78686	3190.00000
43.80684	3203.00000
43.82681	3208.00000
43.84679	3266.00000
43.86677	3289.00000
43.88674	3216.00000
43.90672	3316.00000
43.92670	3178.00000
43.94667	3247.00000
43.96665	3208.00000
43.98663	3321.00000
44.00661	3319.00000
44.02658	3261.00000
44.04656	3283.00000
44.06654	3263.00000
44.08651	3394.00000
44.10649	3348.00000
44.12647	3278.00000
44.14644	3415.00000
44.16642	3432.00000
44.18640	3363.00000
44.20638	3467.00000
44.22635	3300.00000
44.24633	3405.00000
44.26631	3350.00000
44.28628	3513.00000
44.30626	3530.00000
44.32624	3612.00000
44.34621	3596.00000
44.36619	3521.00000
44.38617	3648.00000
44.40615	3719.00000
44.42612	3669.00000
44.44610	3868.00000
44.46608	3756.00000
44.48605	3778.00000
44.50603	3862.00000
44.52601	3990.00000
44.54598	4046.00000
44.56596	4224.00000
44.58594	4270.00000
44.60592	4480.00000
44.62589	4581.00000
44.64587	4846.00000
44.66585	4841.00000
44.68582	5130.00000
44.70580	5669.00000
44.72578	5763.00000
44.74575	6283.00000
44.76573	6681.00000
44.78571	7096.00000
44.80569	7508.00000
44.82566	8168.00000
44.84564	9065.00000
44.86562	9760.00000
44.88559	11132.00000
44.90557	13178.00000
44.92555	16867.00000
44.94552	22283.00000
44.96550	30241.00000
44.98548	39400.00000
45.00546	46482.00000
45.02543	49111.00000
45.04541	53117.00000
45.06539	61716.00000
45.08536	66577.00000
45.10534	60212.00000
45.12532	47253.00000
45.14529	38018.00000
45.16527	35063.00000
45.18525	35184.00000
45.20523	34178.00000
45.22520	27616.00000
45.24518	19177.00000
45.26516	13832.00000
45.28513	11316.00000
45.30511	9610.00000
45.32509	8694.00000
45.34506	7756.00000
45.36504	7239.00000
45.38502	6761.00000
45.40500	6227.00000
45.42497	5860.00000
45.44495	5374.00000
45.46493	5380.00000
45.48490	4987.00000
45.50488	4748.00000
45.52486	4735.00000
45.54483	4502.00000
45.56481	4322.00000
45.58479	4201.00000
45.60477	4072.00000
45.62474	4122.00000
45.64472	4119.00000
45.66470	3770.00000
45.68467	3820.00000
45.70465	3862.00000
45.72463	3732.00000
45.74460	3706.00000
45.76458	3731.00000
45.78456	3546.00000
45.80454	3600.00000
45.82451	3568.00000
45.84449	3529.00000
45.86447	3581.00000
45.88444	3472.00000
45.90442	3576.00000
45.92440	3598.00000
45.94437	3477.00000
45.96435	3284.00000
45.98433	3397.00000
46.00431	3388.00000
46.02428	3354.00000
46.04426	3320.00000
46.06424	3271.00000
46.08421	3249.00000
46.10419	3307.00000
46.12417	3333.00000
46.14414	3222.00000
46.16412	3262.00000
46.18410	3294.00000
46.20408	3289.00000
46.22405	3262.00000
46.24403	3225.00000
46.26401	3238.00000
46.28398	3267.00000
46.30396	3289.00000
46.32394	3158.00000
46.34391	3237.00000
46.36389	3142.00000
46.38387	3233.00000
46.40385	3139.00000
46.42382	3167.00000
46.44380	3183.00000
46.46378	3170.00000
46.48375	3149.00000
46.50373	3124.00000
46.52371	3137.00000
46.54368	3157.00000
46.56366	3015.00000
46.58364	3136.00000
46.60362	3104.00000
46.62359	3155.00000
46.64357	3188.00000
46.66355	3128.00000
46.68352	3170.00000
46.70350	3117.00000
46.72348	3083.00000
46.74345	3114.00000
46.76343	3001.00000
46.78341	3114.00000
46.80339	3048.00000
46.82336	3126.00000
46.84334	3164.00000
46.86332	3153.00000
46.88329	3094.00000
46.90327	3064.00000
46.92325	3009.00000
46.94322	3111.00000
46.96320	3124.00000
46.98318	3084.00000
47.00316	3060.00000
47.02313	3163.00000
47.04311	2999.00000
47.06309	2989.00000
47.08306	2991.00000
47.10304	3033.00000
47.12302	3115.00000
47.14299	3050.00000
47.16297	3103.00000
47.18295	3107.00000
47.20293	3174.00000
47.22290	3036.00000
47.24288	3141.00000
47.26286	3042.00000
47.28283	3074.00000
47.30281	3097.00000
47.32279	2991.00000
47.34276	2978.00000
47.36274	3011.00000
47.38272	2974.00000
47.40270	3084.00000
47.42267	3021.00000
47.44265	2959.00000
47.46263	3055.00000
47.48260	2958.00000
47.50258	2914.00000
47.52256	2987.00000
47.54253	2915.00000
47.56251	3013.00000
47.58249	3031.00000
47.60247	3026.00000
47.62244	3032.00000
47.64242	3052.00000
47.66240	3000.00000
47.68237	3035.00000
47.70235	3089.00000
47.72233	2867.00000
47.74230	2990.00000
47.76228	2992.00000
47.78226	3174.00000
47.80224	3088.00000
47.82221	3108.00000
47.84219	3236.00000
47.86217	3204.00000
47.88214	3274.00000
47.90212	3260.00000
47.92210	3210.00000
47.94207	3301.00000
47.96205	3190.00000
47.98203	3293.00000
48.00201	3229.00000
48.02198	3234.00000
48.04196	3188.00000
48.06194	3373.00000
48.08191	3234.00000
48.10189	3184.00000
48.12187	3157.00000
48.14184	3111.00000
48.16182	3025.00000
48.18180	3168.00000
48.20178	3091.00000
48.22175	3085.00000
48.24173	2994.00000
48.26171	2947.00000
48.28168	3131.00000
48.30166	3031.00000
48.32164	3046.00000
48.34161	3055.00000
48.36159	2994.00000
48.38157	3047.00000
48.40155	3114.00000
48.42152	3073.00000
48.44150	3047.00000
48.46148	3133.00000
48.48145	3097.00000
48.50143	3183.00000
48.52141	3205.00000
48.54138	3409.00000
48.56136	3683.00000
48.58134	3800.00000
48.60132	3962.00000
48.62129	3641.00000
48.64127	3462.00000
48.66125	3414.00000
48.68122	3372.00000
48.70120	3447.00000
48.72118	3558.00000
48.74115	3475.00000
48.76113	3256.00000
48.78111	3164.00000
48.80109	3059.00000
48.82106	3156.00000
48.84104	3145.00000
48.86102	3066.00000
48.88099	3023.00000
48.90097	3030.00000
48.92095	2974.00000
48.94092	2902.00000
48.96090	2936.00000
48.98088	3075.00000
49.00086	2985.00000
49.02083	2873.00000
49.04081	2967.00000
49.06079	2934.00000
49.08076	3038.00000
49.10074	2876.00000
49.12072	2863.00000
49.14070	2891.00000
49.16067	2895.00000
49.18065	2864.00000
49.20063	2931.00000
49.22060	2964.00000
49.24058	2955.00000
49.26056	3096.00000
49.28053	3017.00000
49.30051	3010.00000
49.32049	2956.00000
49.34047	3066.00000
49.36044	2961.00000
49.38042	3004.00000
49.40040	2935.00000
49.42037	2925.00000
49.44035	2915.00000
49.46033	2946.00000
49.48030	2961.00000
49.50028	2984.00000
49.52026	2859.00000
49.54024	3027.00000
49.56021	2948.00000
49.58019	2929.00000
49.60017	2894.00000
49.62014	2993.00000
49.64012	2866.00000
49.66010	2959.00000
49.68007	2904.00000
49.70005	2916.00000
49.72003	2904.00000
49.74001	2997.00000
49.75998	2922.00000
49.77996	2888.00000
49.79994	2946.00000
49.81991	2892.00000
49.83989	2895.00000
49.85987	2969.00000
49.87984	2896.00000
49.89982	3069.00000
49.91980	3097.00000
49.93978	2895.00000
49.95975	2888.00000
49.97973	2920.00000
49.99971	2884.00000
50.01968	2841.00000
50.03966	2873.00000
50.05964	2812.00000
50.07961	3019.00000
50.09959	2770.00000
50.11957	2823.00000
50.13955	2795.00000
50.15952	2942.00000
50.17950	2843.00000
50.19948	2886.00000
50.21945	2938.00000
50.23943	2937.00000
50.25941	2984.00000
50.27938	2928.00000
50.29936	2877.00000
50.31934	2977.00000
50.33932	2878.00000
50.35929	2877.00000
50.37927	2888.00000
50.39925	2840.00000
50.41922	2967.00000
50.43920	2898.00000
50.45918	2911.00000
50.47915	2872.00000
50.49913	2983.00000
50.51911	3046.00000
50.53909	2956.00000
50.55906	2973.00000
50.57904	2989.00000
50.59902	3027.00000
50.61899	3086.00000
50.63897	3117.00000
50.65895	3187.00000
50.67892	3018.00000
50.69890	3073.00000
50.71888	2998.00000
50.73886	3028.00000
50.75883	3043.00000
50.77881	2960.00000
50.79879	3012.00000
50.81876	3012.00000
50.83874	3068.00000
50.85872	2987.00000
50.87869	2988.00000
50.89867	2991.00000
50.91865	2967.00000
50.93863	2935.00000
50.95860	2965.00000
50.97858	2928.00000
50.99856	2960.00000
51.01853	2879.00000
51.03851	2853.00000
51.05849	2885.00000
51.07846	2947.00000
51.09844	2930.00000
51.11842	2912.00000
51.13840	2859.00000
51.15837	2919.00000
51.17835	2888.00000
51.19833	2956.00000
51.21830	2939.00000
51.23828	2963.00000
51.25826	2965.00000
51.27823	2882.00000
51.29821	2902.00000
51.31819	2960.00000
51.33817	2980.00000
51.35814	2951.00000
51.37812	2961.00000
51.39810	3121.00000
51.41807	3173.00000
51.43805	3136.00000
51.45803	3148.00000
51.47800	3051.00000
51.49798	3096.00000
51.51796	3171.00000
51.53794	3108.00000
51.55791	3020.00000
51.57789	3009.00000
51.59787	3060.00000
51.61784	3097.00000
51.63782	3078.00000
51.65780	3083.00000
51.67777	3159.00000
51.69775	3146.00000
51.71773	3117.00000
51.73771	3124.00000
51.75768	3135.00000
51.77766	3219.00000
51.79764	3282.00000
51.81761	3371.00000
51.83759	3204.00000
51.85757	3380.00000
51.87754	3144.00000
51.89752	3283.00000
51.91750	3177.00000
51.93748	3259.00000
51.95745	3280.00000
51.97743	3233.00000
51.99741	3154.00000
52.01738	3144.00000
52.03736	3149.00000
52.05734	3151.00000
52.07731	3192.00000
52.09729	3132.00000
52.11727	3124.00000
52.13725	3071.00000
52.15722	2999.00000
52.17720	3117.00000
52.19718	3218.00000
52.21715	2991.00000
52.23713	3160.00000
52.25711	3080.00000
52.27708	3045.00000
52.29706	3186.00000
52.31704	3179.00000
52.33702	3256.00000
52.35699	3129.00000
52.37697	3131.00000
52.39695	3160.00000
52.41692	3253.00000
52.43690	3183.00000
52.45688	3190.00000
52.47685	3271.00000
52.49683	3183.00000
52.51681	3086.00000
52.53679	3190.00000
52.55676	3317.00000
52.57674	3357.00000
52.59672	3358.00000
52.61669	3239.00000
52.63667	3292.00000
52.65665	3353.00000
52.67662	3271.00000
52.69660	3340.00000
52.71658	3426.00000
52.73656	3481.00000
52.75653	3557.00000
52.77651	3406.00000
52.79649	3470.00000
52.81646	3573.00000
52.83644	3632.00000
52.85642	3766.00000
52.87639	3736.00000
52.89637	3721.00000
52.91635	3881.00000
52.93633	3912.00000
52.95630	4271.00000
52.97628	4304.00000
52.99626	4469.00000
53.01623	4578.00000
53.03621	4838.00000
53.05619	5098.00000
53.07616	5373.00000
53.09614	5481.00000
53.11612	5813.00000
53.13610	6092.00000
53.15607	6415.00000
53.17605	6988.00000
53.19603	7634.00000
53.21600	8923.00000
53.23598	11003.00000
53.25596	14027.00000
53.27593	18978.00000
53.29591	25722.00000
53.31589	32498.00000
53.33587	33943.00000
53.35584	28341.00000
53.37582	21782.00000
53.39580	19382.00000
53.41577	21015.00000
53.43575	25405.00000
53.45573	30944.00000
53.47570	33125.00000
53.49568	28396.00000
53.51566	20500.00000
53.53564	15312.00000
53.55561	12826.00000
53.57559	12321.00000
53.59557	12912.00000
53.61554	13083.00000
53.63552	11928.00000
53.65550	9641.00000
53.67547	7551.00000
53.69545	6688.00000
53.71543	5908.00000
53.73541	5388.00000
53.75538	5007.00000
53.77536	4919.00000
53.79534	4586.00000
53.81531	4379.00000
53.83529	4255.00000
53.85527	4151.00000
53.87524	3969.00000
53.89522	3867.00000
53.91520	3734.00000
53.93518	3804.00000
53.95515	3858.00000
53.97513	3811.00000
53.99511	3675.00000
54.01508	3766.00000
54.03506	3883.00000
54.05504	3924.00000
54.07501	3894.00000
54.09499	3716.00000
54.11497	3748.00000
54.13495	3625.00000
54.15492	3497.00000
54.17490	3652.00000
54.19488	3552.00000
54.21485	3447.00000
54.23483	3343.00000
54.25481	3421.00000
54.27478	3186.00000
54.29476	3148.00000
54.31474	3321.00000
54.33472	3284.00000
54.35469	3129.00000
54.37467	3054.00000
54.39465	3082.00000
54.41462	3038.00000
54.43460	3175.00000
54.45458	3179.00000
54.47455	3038.00000
54.49453	3032.00000
54.51451	3149.00000
54.53449	3149.00000
54.55446	2988.00000
54.57444	3016.00000
54.59442	3039.00000
54.61439	3106.00000
54.63437	3141.00000
54.65435	3062.00000
54.67432	3045.00000
54.69430	3170.00000
54.71428	3094.00000
54.73426	3123.00000
54.75423	3017.00000
54.77421	3125.00000
54.79419	3012.00000
54.81416	3004.00000
54.83414	3096.00000
54.85412	3044.00000
54.87409	3042.00000
54.89407	2953.00000
54.91405	2909.00000
54.93403	2932.00000
54.95400	2975.00000
54.97398	2984.00000
54.99396	3124.00000
55.01393	2908.00000
55.03391	3016.00000
55.05389	2936.00000
55.07386	2873.00000
55.09384	2838.00000
55.11382	2829.00000
55.13380	2966.00000
55.15377	2973.00000
55.17375	2937.00000
55.19373	2870.00000
55.21370	2844.00000
55.23368	2915.00000
55.25366	2878.00000
55.27363	2821.00000
55.29361	2887.00000
55.31359	2981.00000
55.33357	2849.00000
55.35354	2917.00000
55.37352	2895.00000
55.39350	2832.00000
55.41347	2792.00000
55.43345	2912.00000
55.45343	2771.00000
55.47340	2890.00000
55.49338	2857.00000
55.51336	2913.00000
55.53334	2890.00000
55.55331	2935.00000
55.57329	2857.00000
55.59327	2819.00000
55.61324	2937.00000
55.63322	2782.00000
55.65320	2863.00000
55.67317	2851.00000
55.69315	2865.00000
55.71313	2740.00000
55.73311	2851.00000
55.75308	2991.00000
55.77306	2852.00000
55.79304	2804.00000
55.81301	2765.00000
55.83299	2929.00000
55.85297	2827.00000
55.87294	2854.00000
55.89292	2944.00000
55.91290	2853.00000
55.93288	2840.00000
55.95285	2796.00000
55.97283	2867.00000
55.99281	2897.00000
56.01278	2911.00000
56.03276	2800.00000
56.05274	2861.00000
56.07271	2872.00000
56.09269	2907.00000
56.11267	2791.00000
56.13265	2801.00000
56.15262	2828.00000
56.17260	2895.00000
56.19258	2778.00000
56.21255	2889.00000
56.23253	2857.00000
56.25251	2817.00000
56.27248	2860.00000
56.29246	2886.00000
56.31244	2794.00000
56.33242	2852.00000
56.35239	2853.00000
56.37237	2855.00000
56.39235	2766.00000
56.41232	2852.00000
56.43230	2896.00000
56.45228	2824.00000
56.47225	2834.00000
56.49223	2867.00000
56.51221	2789.00000
56.53219	2807.00000
56.55216	2828.00000
56.57214	2885.00000
56.59212	2765.00000
56.61209	2821.00000
56.63207	2858.00000
56.65205	2800.00000
56.67202	2805.00000
56.69200	2890.00000
56.71198	2781.00000
56.73196	2805.00000
56.75193	2761.00000
56.77191	2757.00000
56.79189	2806.00000
56.81186	2785.00000
56.83184	2734.00000
56.85182	2859.00000
56.87179	2774.00000
56.89177	2812.00000
56.91175	2719.00000
56.93173	2740.00000
56.95170	2811.00000
56.97168	2846.00000
56.99166	2711.00000
57.01163	2784.00000
57.03161	2767.00000
57.05159	2681.00000
57.07156	2845.00000
57.09154	2847.00000
57.11152	2812.00000
57.13150	2848.00000
57.15147	2841.00000
57.17145	2800.00000
57.19143	2897.00000
57.21140	2730.00000
57.23138	2782.00000
57.25136	2760.00000
57.27133	2745.00000
57.29131	2830.00000
57.31129	2846.00000
57.33127	2800.00000
57.35124	2741.00000
57.37122	2789.00000
57.39120	2863.00000
57.41117	2768.00000
57.43115	2742.00000
57.45113	2716.00000
57.47110	2688.00000
57.49108	2844.00000
57.51106	2724.00000
57.53104	2693.00000
57.55101	2769.00000
57.57099	2711.00000
57.59097	2891.00000
57.61094	2799.00000
57.63092	2819.00000
57.65090	2797.00000
57.67087	2918.00000
57.69085	2816.00000
57.71083	2805.00000
57.73081	2807.00000
57.75078	2675.00000
57.77076	2840.00000
57.79074	2823.00000
57.81071	2742.00000
57.83069	2819.00000
57.85067	2817.00000
57.87064	2781.00000
57.89062	2833.00000
57.91060	2771.00000
57.93058	2764.00000
57.95055	2786.00000
57.97053	2790.00000
57.99051	2861.00000
58.01048	2806.00000
58.03046	2809.00000
58.05044	2769.00000
58.07041	2839.00000
58.09039	2809.00000
58.11037	2797.00000
58.13035	2901.00000
58.15032	2769.00000
58.17030	2819.00000
58.19028	2777.00000
58.21025	2718.00000
58.23023	2778.00000
58.25021	2747.00000
58.27018	2862.00000
58.29016	2697.00000
58.31014	2697.00000
58.33012	2702.00000
58.35009	2811.00000
58.37007	2754.00000
58.39005	2833.00000
58.41002	2808.00000
58.43000	2920.00000
58.44998	2751.00000
58.46995	2817.00000
58.48993	2835.00000
58.50991	2928.00000
58.52989	2857.00000
58.54986	2710.00000
58.56984	2804.00000
58.58982	2860.00000
58.60979	2803.00000
58.62977	2758.00000
58.64975	2771.00000
58.66972	2833.00000
58.68970	2883.00000
58.70968	2865.00000
58.72966	2767.00000
58.74963	2827.00000
58.76961	2786.00000
58.78959	2796.00000
58.80956	2713.00000
58.82954	2789.00000
58.84952	2805.00000
58.86949	2757.00000
58.88947	2803.00000
58.90945	2745.00000
58.92943	2868.00000
58.94940	2805.00000
58.96938	2876.00000
58.98936	2895.00000
59.00933	2906.00000
59.02931	2957.00000
59.04929	2844.00000
59.06926	2878.00000
59.08924	2931.00000
59.10922	2914.00000
59.12920	2869.00000
59.14917	2941.00000
59.16915	2893.00000
59.18913	2911.00000
59.20910	2983.00000
59.22908	2912.00000
59.24906	2867.00000
59.26903	2851.00000
59.28901	2796.00000
59.30899	2907.00000
59.32897	2803.00000
59.34894	2790.00000
59.36892	2868.00000
59.38890	2770.00000
59.40887	2775.00000
59.42885	2858.00000
59.44883	2741.00000
59.46880	2777.00000
59.48878	2816.00000
59.50876	2757.00000
59.52874	2784.00000
59.54871	2747.00000
59.56869	2776.00000
59.58867	2862.00000
59.60864	2777.00000
59.62862	2693.00000
59.64860	2705.00000
59.66857	2784.00000
59.68855	2655.00000
59.70853	2746.00000
59.72851	2776.00000
59.74848	2884.00000
59.76846	2832.00000
59.78844	2692.00000
59.80841	2745.00000
59.82839	2730.00000
59.84837	2792.00000
59.86834	2749.00000
59.88832	2807.00000
59.90830	2788.00000
59.92828	2824.00000
59.94825	2713.00000
59.96823	2850.00000
59.98821	2799.00000
60.00818	2722.00000
60.02816	2822.00000
60.04814	2636.00000
60.06811	2738.00000
60.08809	2656.00000
60.10807	2836.00000
60.12805	2822.00000
60.14802	2698.00000
60.16800	2839.00000
60.18798	2727.00000
60.20795	2611.00000
60.22793	2707.00000
60.24791	2834.00000
60.26788	2707.00000
60.28786	2672.00000
60.30784	2834.00000
60.32782	2671.00000
60.34779	2778.00000
60.36777	2613.00000
60.38775	2789.00000
60.40772	2775.00000
60.42770	2702.00000
60.44768	2807.00000
60.46765	2791.00000
60.48763	2781.00000
60.50761	2788.00000
60.52759	2841.00000
60.54756	2815.00000
60.56754	2729.00000
60.58752	2749.00000
60.60749	2854.00000
60.62747	2700.00000
60.64745	2792.00000
60.66742	2747.00000
60.68740	2741.00000
60.70738	2803.00000
60.72736	2771.00000
60.74733	2763.00000
60.76731	2755.00000
60.78729	2824.00000
60.80726	2865.00000
60.82724	2985.00000
60.84722	3143.00000
60.86719	3176.00000
60.88717	3151.00000
60.90715	2977.00000
60.92713	2911.00000
60.94710	2885.00000
60.96708	2912.00000
60.98706	2887.00000
61.00703	2975.00000
61.02701	2914.00000
61.04699	2976.00000
61.06696	2893.00000
61.08694	2879.00000
61.10692	2760.00000
61.12690	2772.00000
61.14687	2760.00000
61.16685	2821.00000
61.18683	2793.00000
61.20680	2657.00000
61.22678	2762.00000
61.24676	2869.00000
61.26673	2722.00000
61.28671	2689.00000
61.30669	2734.00000
61.32667	2671.00000
61.34664	2804.00000
61.36662	2691.00000
61.38660	2650.00000
61.40657	2691.00000
61.42655	2675.00000
61.44653	2697.00000
61.46650	2789.00000
61.48648	2793.00000
61.50646	2782.00000
61.52644	2643.00000
61.54641	2725.00000
61.56639	2736.00000
61.58637	2765.00000
61.60634	2794.00000
61.62632	2750.00000
61.64630	2701.00000
61.66627	2811.00000
61.68625	2686.00000
61.70623	2859.00000
61.72621	2773.00000
61.74618	2673.00000
61.76616	2773.00000
61.78614	2772.00000
61.80611	2779.00000
61.82609	2705.00000
61.84607	2731.00000
61.86604	2810.00000
61.88602	2721.00000
61.90600	2775.00000
61.92598	2768.00000
61.94595	2751.00000
61.96593	2773.00000
61.98591	2711.00000
62.00588	2740.00000
62.02586	2780.00000
62.04584	2847.00000
62.06581	2751.00000
62.08579	2782.00000
62.10577	2698.00000
62.12575	2817.00000
62.14572	2772.00000
62.16570	2779.00000
62.18568	2830.00000
62.20565	2855.00000
62.22563	2757.00000
62.24561	2752.00000
62.26558	2768.00000
62.28556	2711.00000
62.30554	2756.00000
62.32552	2822.00000
62.34549	2833.00000
62.36547	2688.00000
62.38545	2764.00000
62.40542	2852.00000
62.42540	2810.00000
62.44538	2733.00000
62.46535	2740.00000
62.48533	2850.00000
62.50531	2697.00000
62.52529	2786.00000
62.54526	2730.00000
62.56524	2759.00000
62.58522	2802.00000
62.60519	2823.00000
62.62517	2616.00000
62.64515	2801.00000
62.66512	2685.00000
62.68510	2785.00000
62.70508	2755.00000
62.72506	2704.00000
62.74503	2750.00000
62.76501	2680.00000
62.78499	2851.00000
62.80496	2734.00000
62.82494	2662.00000
62.84492	2718.00000
62.86489	2779.00000
62.88487	2740.00000
62.90485	2772.00000
62.92483	2687.00000
62.94480	2966.00000
62.96478	2751.00000
62.98476	2834.00000
63.00473	2819.00000
63.02471	2760.00000
63.04469	2859.00000
63.06466	2784.00000
63.08464	2731.00000
63.10462	2884.00000
63.12460	2827.00000
63.14457	2796.00000
63.16455	2708.00000
63.18453	2815.00000
63.20450	2719.00000
63.22448	2787.00000
63.24446	2828.00000
63.26443	2730.00000
63.28441	2812.00000
63.30439	2789.00000
63.32437	2749.00000
63.34434	2700.00000
63.36432	2783.00000
63.38430	2801.00000
63.40427	2730.00000
63.42425	2765.00000
63.44423	2784.00000
63.46420	2836.00000
63.48418	2826.00000
63.50416	2841.00000
63.52414	2799.00000
63.54411	2838.00000
63.56409	2864.00000
63.58407	2902.00000
63.60404	2777.00000
63.62402	2837.00000
63.64400	2963.00000
63.66397	2972.00000
63.68395	2929.00000
63.70393	2927.00000
63.72391	3072.00000
63.74388	3160.00000
63.76386	3466.00000
63.78384	3662.00000
63.80381	3543.00000
63.82379	3566.00000
63.84377	3280.00000
63.86374	3147.00000
63.88372	3057.00000
63.90370	3098.00000
63.92368	3183.00000
63.94365	3244.00000
63.96363	3347.00000
63.98361	3361.00000
64.00358	3130.00000
64.02356	3020.00000
64.04354	2979.00000
64.06351	2938.00000
64.08349	2868.00000
64.10347	2802.00000
64.12345	2769.00000
64.14342	2888.00000
64.16340	2903.00000
64.18338	2828.00000
64.20335	2804.00000
64.22333	2832.00000
64.24331	2863.00000
64.26328	2743.00000
64.28326	2807.00000
64.30324	2848.00000
64.32322	2789.00000
64.34319	2771.00000
64.36317	2859.00000
64.38315	2839.00000
64.40312	2841.00000
64.42310	2943.00000
64.44308	2711.00000
64.46305	2749.00000
64.48303	2871.00000
64.50301	2779.00000
64.52299	2938.00000
64.54296	2888.00000
64.56294	2927.00000
64.58292	2799.00000
64.60289	2893.00000
64.62287	2814.00000
64.64285	2877.00000
64.66282	2946.00000
64.68280	2887.00000
64.70278	2878.00000
64.72276	2916.00000
64.74273	2901.00000
64.76271	2864.00000
64.78269	2973.00000
64.80266	2987.00000
64.82264	2860.00000
64.84262	2899.00000
64.86259	2998.00000
64.88257	2975.00000
64.90255	2908.00000
64.92253	2868.00000
64.94250	2967.00000
64.96248	3013.00000
64.98246	3018.00000
65.00243	2996.00000
65.02241	3011.00000
65.04239	2936.00000
65.06236	3053.00000
65.08234	3120.00000
65.10232	3018.00000
65.12230	3122.00000
65.14227	3148.00000
65.16225	3248.00000
65.18223	3257.00000
65.20220	3275.00000
65.22218	3291.00000
65.24216	3401.00000
65.26213	3392.00000
65.28211	3413.00000
65.30209	3673.00000
65.32207	3657.00000
65.34204	3822.00000
65.36202	3909.00000
65.38200	4210.00000
65.40197	4637.00000
65.42195	5312.00000
65.44193	6303.00000
65.46190	7394.00000
65.48188	8430.00000
65.50186	8511.00000
65.52184	7701.00000
65.54181	6620.00000
65.56179	5830.00000
65.58177	5429.00000
65.60174	5264.00000
65.62172	5543.00000
65.64170	6159.00000
65.66167	6728.00000
65.68165	7068.00000
65.70163	6965.00000
65.72161	6911.00000
65.74158	6660.00000
65.76156	6357.00000
65.78154	5626.00000
65.80151	5020.00000
65.82149	4495.00000
65.84147	4264.00000
65.86144	4177.00000
65.88142	4216.00000
65.90140	4314.00000
65.92138	4419.00000
65.94135	4449.00000
65.96133	4273.00000
65.98131	4097.00000
66.00128	3691.00000
66.02126	3530.00000
66.04124	3309.00000
66.06122	3244.00000
66.08119	3188.00000
66.10117	3189.00000
66.12115	3098.00000
66.14112	3187.00000
66.16110	3085.00000
66.18108	3053.00000
66.20105	3061.00000
66.22103	3039.00000
66.24101	2985.00000
66.26099	2951.00000
66.28096	2898.00000
66.30094	2964.00000
66.32092	2916.00000
66.34089	2903.00000
66.36087	2951.00000
66.38085	2932.00000
66.40082	2786.00000
66.42080	2934.00000
66.44078	2849.00000
66.46076	2872.00000
66.48073	2788.00000
66.50071	2843.00000
66.52069	2899.00000
66.54066	2870.00000
66.56064	2767.00000
66.58062	2869.00000
66.60059	2764.00000
66.62057	2772.00000
66.64055	2695.00000
66.66053	2790.00000
66.68050	2760.00000
66.70048	2806.00000
66.72046	2803.00000
66.74043	2859.00000
66.76041	2774.00000
66.78039	2902.00000
66.80036	2738.00000
66.82034	2776.00000
66.84032	2712.00000
66.86030	2807.00000
66.88027	2746.00000
66.90025	2849.00000
66.92023	2832.00000
66.94020	2805.00000
66.96018	2774.00000
66.98016	2769.00000
67.00013	2788.00000
67.02011	2861.00000
67.04009	2765.00000
67.06007	2790.00000
67.08004	2820.00000
67.10002	2723.00000
67.12000	2773.00000
67.13997	2710.00000
67.15995	2751.00000
67.17993	2760.00000
67.19990	2780.00000
67.21988	2853.00000
67.23986	2863.00000
67.25984	2799.00000
67.27981	2709.00000
67.29979	2760.00000
67.31977	2777.00000
67.33974	2755.00000
67.35972	2828.00000
67.37970	2813.00000
67.39967	2781.00000
67.41965	2807.00000
67.43963	2717.00000
67.45961	2777.00000
67.47958	2883.00000
67.49956	2801.00000
67.51954	2822.00000
67.53951	2763.00000
67.55949	2779.00000
67.57947	2774.00000
67.59944	2725.00000
67.61942	2814.00000
67.63940	2867.00000
67.65938	2891.00000
67.67935	2802.00000
67.69933	2809.00000
67.71931	2800.00000
67.73928	2821.00000
67.75926	2835.00000
67.77924	2799.00000
67.79921	2887.00000
67.81919	2905.00000
67.83917	2919.00000
67.85915	2888.00000
67.87912	2980.00000
67.89910	3089.00000
67.91908	3126.00000
67.93905	3167.00000
67.95903	3017.00000
67.97901	2990.00000
67.99898	2896.00000
68.01896	2931.00000
68.03894	2886.00000
68.05892	2911.00000
68.07889	3029.00000
68.09887	3052.00000
68.11885	3034.00000
68.13882	3019.00000
68.15880	2843.00000
68.17878	2874.00000
68.19875	2953.00000
68.21873	2919.00000
68.23871	2884.00000
68.25869	2994.00000
68.27866	3047.00000
68.29864	3026.00000
68.31862	3111.00000
68.33859	3023.00000
68.35857	3107.00000
68.37855	3052.00000
68.39852	2987.00000
68.41850	2896.00000
68.43848	2935.00000
68.45846	3018.00000
68.47843	3071.00000
68.49841	3157.00000
68.51839	3408.00000
68.53836	3396.00000
68.55834	3238.00000
68.57832	3158.00000
68.59829	3035.00000
68.61827	2927.00000
68.63825	2838.00000
68.65823	2945.00000
68.67820	2903.00000
68.69818	2952.00000
68.71816	2913.00000
68.73813	2979.00000
68.75811	2921.00000
68.77809	2854.00000
68.79806	2857.00000
68.81804	2895.00000
68.83802	2867.00000
68.85800	2810.00000
68.87797	2858.00000
68.89795	2780.00000
68.91793	2845.00000
68.93790	2719.00000
68.95788	2802.00000
68.97786	2787.00000
68.99783	2705.00000
69.01781	2746.00000
69.03779	2796.00000
69.05777	2740.00000
69.07774	2817.00000
69.09772	2767.00000
69.11770	2754.00000
69.13767	2783.00000
69.15765	2780.00000
69.17763	2840.00000
69.19760	2910.00000
69.21758	2805.00000
69.23756	2825.00000
69.25754	2798.00000
69.27751	2799.00000
69.29749	2785.00000
69.31747	2849.00000
69.33744	2750.00000
69.35742	2858.00000
69.37740	2725.00000
69.39737	2705.00000
69.41735	2944.00000
69.43733	2880.00000
69.45731	2838.00000
69.47728	2742.00000
69.49726	2814.00000
69.51724	2947.00000
69.53721	2766.00000
69.55719	2830.00000
69.57717	2755.00000
69.59714	2819.00000
69.61712	2832.00000
69.63710	2849.00000
69.65708	2811.00000
69.67705	2843.00000
69.69703	2882.00000
69.71701	2795.00000
69.73698	2828.00000
69.75696	2796.00000
69.77694	2798.00000
69.79691	2829.00000
69.81689	2852.00000
69.83687	2794.00000
69.85685	2703.00000
69.87682	2735.00000
69.89680	2855.00000
69.91678	2833.00000
69.93675	2913.00000
69.95673	2804.00000
69.97671	2767.00000
69.99668	2837.00000
70.01666	2812.00000
70.03664	2922.00000
70.05662	2964.00000
70.07659	2943.00000
70.09657	2895.00000
70.11655	2835.00000
70.13652	2820.00000
70.15650	2873.00000
70.17648	2901.00000
70.19645	2946.00000
70.21643	2868.00000
70.23641	3051.00000
70.25639	3024.00000
70.27636	3010.00000
70.29634	3057.00000
70.31632	2944.00000
70.33629	2886.00000
70.35627	2916.00000
70.37625	2816.00000
70.39622	2945.00000
70.41620	2975.00000
70.43618	2970.00000
70.45616	2962.00000
70.47613	3011.00000
70.49611	2912.00000
70.51609	2892.00000
70.53606	2887.00000
70.55604	2869.00000
70.57602	2757.00000
70.59599	2803.00000
70.61597	2834.00000
70.63595	2900.00000
70.65593	2844.00000
70.67590	2854.00000
70.69588	2739.00000
70.71586	2687.00000
70.73583	2818.00000
70.75581	2792.00000
70.77579	2848.00000
70.79576	2870.00000
70.81574	2789.00000
70.83572	2864.00000
70.85570	2844.00000
70.87567	2786.00000
70.89565	2725.00000
70.91563	2869.00000
70.93560	2792.00000
70.95558	2839.00000
70.97556	2799.00000
70.99553	2952.00000
71.01551	2775.00000
71.03549	2832.00000
71.05547	2966.00000
71.07544	2802.00000
71.09542	2862.00000
71.11540	2892.00000
71.13537	2774.00000
71.15535	2940.00000
71.17533	2830.00000
71.19530	2783.00000
71.21528	2909.00000
71.23526	2835.00000
71.25524	2946.00000
71.27521	2852.00000
71.29519	2863.00000
71.31517	2920.00000
71.33514	2975.00000
71.35512	2882.00000
71.37510	2950.00000
71.39507	2898.00000
71.41505	2888.00000
71.43503	2888.00000
71.45501	2964.00000
71.47498	2969.00000
71.49496	2863.00000
71.51494	2954.00000
71.53491	3046.00000
71.55489	3023.00000
71.57487	2932.00000
71.59484	2909.00000
71.61482	3054.00000
71.63480	3030.00000
71.65478	2919.00000
71.67475	2967.00000
71.69473	3011.00000
71.71471	3055.00000
71.73468	3010.00000
71.75466	3055.00000
71.77464	3089.00000
71.79461	3084.00000
71.81459	3061.00000
71.83457	3202.00000
71.85455	3203.00000
71.87452	3187.00000
71.89450	3265.00000
71.91448	3345.00000
71.93445	3331.00000
71.95443	3433.00000
71.97441	3420.00000
71.99438	3472.00000
72.01436	3616.00000
72.03434	3537.00000
72.05432	3757.00000
72.07429	3815.00000
72.09427	3933.00000
72.11425	4043.00000
72.13422	4262.00000
72.15420	4742.00000
72.17418	5286.00000
72.19415	6123.00000
72.21413	7509.00000
72.23411	8914.00000
72.25409	9202.00000
72.27406	8789.00000
72.29404	8275.00000
72.31402	8926.00000
72.33399	10401.00000
72.35397	12197.00000
72.37395	12774.00000
72.39392	11497.00000
72.41390	9840.00000
72.43388	8702.00000
72.45386	8153.00000
72.47383	7376.00000
72.49381	6737.00000
72.51379	6547.00000
72.53376	6937.00000
72.55374	7601.00000
72.57372	7966.00000
72.59369	7520.00000
72.61367	6548.00000
72.63365	5579.00000
72.65363	4910.00000
72.67360	4436.00000
72.69358	4236.00000
72.71356	4046.00000
72.73353	4004.00000
72.75351	3943.00000
72.77349	3850.00000
72.79346	3958.00000
72.81344	4100.00000
72.83342	4080.00000
72.85340	3922.00000
72.87337	3884.00000
72.89335	3800.00000
72.91333	3721.00000
72.93330	3518.00000
72.95328	3486.00000
72.97326	3376.00000
72.99323	3377.00000
73.01321	3522.00000
73.03319	3499.00000
73.05317	3408.00000
73.07314	3473.00000
73.09312	3423.00000
73.11310	3336.00000
73.13307	3267.00000
73.15305	3086.00000
73.17303	3138.00000
73.19300	3073.00000
73.21298	3123.00000
73.23296	3151.00000
73.25294	2895.00000
73.27291	3083.00000
73.29289	2904.00000
73.31287	2949.00000
73.33284	2989.00000
73.35282	3044.00000
73.37280	2999.00000
73.39277	2961.00000
73.41275	2963.00000
73.43273	2980.00000
73.45271	2963.00000
73.47268	2996.00000
73.49266	2909.00000
73.51264	2995.00000
73.53261	2900.00000
73.55259	3020.00000
73.57257	2835.00000
73.59254	2968.00000
73.61252	2965.00000
73.63250	2800.00000
73.65248	2963.00000
73.67245	2851.00000
73.69243	2902.00000
73.71241	2848.00000
73.73238	2931.00000
73.75236	2777.00000
73.77234	2820.00000
73.79231	2958.00000
73.81229	2890.00000
73.83227	2825.00000
73.85225	2931.00000
73.87222	2784.00000
73.89220	2829.00000
73.91218	2785.00000
73.93215	2891.00000
73.95213	2849.00000
73.97211	2897.00000
73.99208	2849.00000
74.01206	2873.00000
74.03204	2942.00000
74.05202	2832.00000
74.07199	2813.00000
74.09197	2840.00000
74.11195	2908.00000
74.13192	2784.00000
74.15190	2914.00000
74.17188	2874.00000
74.19185	2912.00000
74.21183	2856.00000
74.23181	2837.00000
74.25179	2849.00000
74.27176	2845.00000
74.29174	2915.00000
74.31172	2820.00000
74.33169	2816.00000
74.35167	2842.00000
74.37165	2806.00000
74.39162	2888.00000
74.41160	2905.00000
74.43158	2821.00000
74.45156	2754.00000
74.47153	2850.00000
74.49151	2894.00000
74.51149	2840.00000
74.53146	2892.00000
74.55144	2821.00000
74.57142	2808.00000
74.59139	2798.00000
74.61137	2805.00000
74.63135	2752.00000
74.65133	2819.00000
74.67130	2839.00000
74.69128	2946.00000
74.71126	2906.00000
74.73123	2936.00000
74.75121	2882.00000
74.77119	2853.00000
74.79116	2885.00000
74.81114	2803.00000
74.83112	2852.00000
74.85110	2864.00000
74.87107	2818.00000
74.89105	2903.00000
74.91103	2851.00000
74.93100	2729.00000
74.95098	2814.00000
74.97096	2787.00000
74.99093	2834.00000
75.01091	2800.00000
75.03089	2813.00000
75.05087	2759.00000
75.07084	2792.00000
75.09082	2826.00000
75.11080	2812.00000
75.13077	2788.00000
75.15075	2878.00000
75.17073	2871.00000
75.19070	2858.00000
75.21068	2880.00000
75.23066	2856.00000
75.25064	2812.00000
75.27061	2776.00000
75.29059	2887.00000
75.31057	2774.00000
75.33054	2922.00000
75.35052	2761.00000
75.37050	2806.00000
75.39047	2813.00000
75.41045	2824.00000
75.43043	2815.00000
75.45041	2758.00000
75.47038	2866.00000
75.49036	2817.00000
75.51034	2797.00000
75.53031	2804.00000
75.55029	2745.00000
75.57027	2728.00000
75.59024	2867.00000
75.61022	2846.00000
75.63020	2951.00000
75.65018	2828.00000
75.67015	2799.00000
75.69013	2813.00000
75.71011	2765.00000
75.73008	2818.00000
75.75006	2813.00000
75.77004	2828.00000
75.79001	2738.00000
75.80999	2909.00000
75.82997	2900.00000
75.84995	2690.00000
75.86992	2777.00000
75.88990	2857.00000
75.90988	2718.00000
75.92985	2821.00000
75.94983	2863.00000
75.96981	2911.00000
75.98978	2887.00000
76.00976	2841.00000
76.02974	2807.00000
76.04972	2853.00000
76.06969	2822.00000
76.08967	2768.00000
76.10965	2857.00000
76.12962	2839.00000
76.14960	2834.00000
76.16958	2839.00000
76.18955	2849.00000
76.20953	2840.00000
76.22951	2786.00000
76.24949	2867.00000
76.26946	2892.00000
76.28944	2794.00000
76.30942	2844.00000
76.32939	2895.00000
76.34937	2884.00000
76.36935	2793.00000
76.38932	2848.00000
76.40930	2886.00000
76.42928	2812.00000
76.44926	2852.00000
76.46923	2851.00000
76.48921	2947.00000
76.50919	2950.00000
76.52916	2901.00000
76.54914	2948.00000
76.56912	2990.00000
76.58909	3081.00000
76.60907	3072.00000
76.62905	2989.00000
76.64903	2825.00000
76.66900	2827.00000
76.68898	2947.00000
76.70896	2989.00000
76.72893	2845.00000
76.74891	2903.00000
76.76889	2943.00000
76.78886	2985.00000
76.80884	2856.00000
76.82882	2920.00000
76.84880	2944.00000
76.86877	2866.00000
76.88875	2930.00000
76.90873	2802.00000
76.92870	2785.00000
76.94868	2895.00000
76.96866	2883.00000
76.98863	2863.00000
77.00861	2814.00000
77.02859	2887.00000
77.04857	2864.00000
77.06854	2829.00000
77.08852	2880.00000
77.10850	2855.00000
77.12847	2865.00000
77.14845	2945.00000
77.16843	2934.00000
77.18840	2948.00000
77.20838	2788.00000
77.22836	2975.00000
77.24834	3067.00000
77.26831	2944.00000
77.28829	3059.00000
77.30827	2969.00000
77.32824	3047.00000
77.34822	3050.00000
77.36820	2978.00000
77.38817	3025.00000
77.40815	2939.00000
77.42813	2977.00000
77.44811	2913.00000
77.46808	2957.00000
77.48806	2951.00000
77.50804	2963.00000
77.52801	2964.00000
77.54799	2948.00000
77.56797	2979.00000
77.58794	2988.00000
77.60792	2908.00000
77.62790	2936.00000
77.64788	2867.00000
77.66785	2865.00000
77.68783	2886.00000
77.70781	2841.00000
77.72778	2880.00000
77.74776	2836.00000
77.76774	2889.00000
77.78771	2793.00000
77.80769	2810.00000
77.82767	2787.00000
77.84765	2851.00000
77.86762	2777.00000
77.88760	2825.00000
77.90758	2770.00000
77.92755	2777.00000
77.94753	2706.00000
77.96751	2798.00000
77.98748	2825.00000
78.00746	2794.00000
78.02744	2829.00000
78.04742	2792.00000
78.06739	2819.00000
78.08737	2950.00000
78.10735	2885.00000
78.12732	2726.00000
78.14730	2793.00000
78.16728	2771.00000
78.18725	2757.00000
78.20723	2780.00000
78.22721	2793.00000
78.24719	2827.00000
78.26716	2747.00000
78.28714	2861.00000
78.30712	2874.00000
78.32709	2782.00000
78.34707	2801.00000
78.36705	2807.00000
78.38702	2814.00000
78.40700	2903.00000
78.42698	2777.00000
78.44696	2878.00000
78.46693	2827.00000
78.48691	2799.00000
78.50689	2838.00000
78.52686	2896.00000
78.54684	2872.00000
78.56682	2854.00000
78.58679	2917.00000
78.60677	2718.00000
78.62675	2775.00000
78.64673	2771.00000
78.66670	2943.00000
78.68668	2883.00000
78.70666	2909.00000
78.72663	2947.00000
78.74661	2874.00000
78.76659	2944.00000
78.78656	2823.00000
78.80654	2957.00000
78.82652	2920.00000
78.84650	2856.00000
78.86647	2836.00000
78.88645	2911.00000
78.90643	2896.00000
78.92640	2896.00000
78.94638	2995.00000
78.96636	2804.00000
78.98633	2897.00000
79.00631	2924.00000
79.02629	2910.00000
79.04627	2931.00000
79.06624	2844.00000
79.08622	2927.00000
79.10620	2848.00000
79.12617	2834.00000
79.14615	2833.00000
79.16613	2764.00000
79.18610	2846.00000
79.20608	2871.00000
79.22606	2886.00000
79.24604	2753.00000
79.26601	2902.00000
79.28599	2836.00000
79.30597	2920.00000
79.32594	2764.00000
79.34592	2816.00000
79.36590	2858.00000
79.38587	2871.00000
79.40585	2844.00000
79.42583	2835.00000
79.44581	2846.00000
79.46578	2948.00000
79.48576	2867.00000
79.50574	2877.00000
79.52571	2837.00000
79.54569	2837.00000
79.56567	2818.00000
79.58564	2828.00000
79.60562	2844.00000
79.62560	2898.00000
79.64558	2960.00000
79.66555	2850.00000
79.68553	2831.00000
79.70551	2917.00000
79.72548	2856.00000
79.74546	2834.00000
79.76544	2899.00000
79.78541	2859.00000
79.80539	2693.00000
79.82537	2856.00000
79.84535	2857.00000
79.86532	2854.00000
79.88530	2948.00000
79.90528	2787.00000
79.92525	2855.00000
79.94523	2925.00000
79.96521	2904.00000
79.98518	2853.00000
80.00516	2863.00000
80.02514	2872.00000
80.04512	2882.00000
80.06509	2763.00000
80.08507	2972.00000
80.10505	2879.00000
80.12502	2853.00000
80.14500	2860.00000
80.16498	2920.00000
80.18495	2864.00000
80.20493	2927.00000
80.22491	2873.00000
80.24489	2764.00000
80.26486	2830.00000
80.28484	2851.00000
80.30482	2832.00000
80.32479	2921.00000
80.34477	2881.00000
80.36475	2967.00000
80.38472	2974.00000
80.40470	2924.00000
80.42468	2883.00000
80.44466	2848.00000
80.46463	2822.00000
80.48461	2908.00000
80.50459	2895.00000
80.52456	2830.00000
80.54454	2816.00000
80.56452	2864.00000
80.58449	2799.00000
80.60447	2827.00000
80.62445	2871.00000
80.64443	2907.00000
80.66440	2973.00000
80.68438	2909.00000
80.70436	2897.00000
80.72433	2950.00000
80.74431	2872.00000
80.76429	2895.00000
80.78426	2887.00000
80.80424	2867.00000
80.82422	2908.00000
80.84420	2878.00000
80.86417	2890.00000
80.88415	2869.00000
80.90413	2826.00000
80.92410	2851.00000
80.94408	2812.00000
80.96406	2825.00000
80.98403	2826.00000
81.00401	2933.00000
81.02399	2954.00000
81.04397	2935.00000
81.06394	2822.00000
81.08392	2913.00000
81.10390	2923.00000
81.12387	2947.00000
81.14385	2914.00000
81.16383	2900.00000
81.18380	2907.00000
81.20378	2956.00000
81.22376	2902.00000
81.24374	3009.00000
81.26371	2916.00000
81.28369	2923.00000
81.30367	2973.00000
81.32364	2943.00000
81.34362	2931.00000
81.36360	3022.00000
81.38357	2992.00000
81.40355	3070.00000
81.42353	3178.00000
81.44351	3104.00000
81.46348	3341.00000
81.48346	3253.00000
81.50344	3174.00000
81.52341	3041.00000
81.54339	3063.00000
81.56337	3017.00000
81.58334	3015.00000
81.60332	2955.00000
81.62330	2928.00000
81.64328	2968.00000
81.66325	3096.00000
81.68323	2999.00000
81.70321	3065.00000
81.72318	3128.00000
81.74316	3141.00000
81.76314	3114.00000
81.78311	3056.00000
81.80309	2963.00000
81.82307	2939.00000
81.84305	3004.00000
81.86302	2966.00000
81.88300	2909.00000
81.90298	3023.00000
81.92295	2858.00000
81.94293	3049.00000
81.96291	2988.00000
81.98288	2994.00000
82.00286	3058.00000
82.02284	3111.00000
82.04282	2939.00000
82.06279	2929.00000
82.08277	2963.00000
82.10275	2979.00000
82.12272	2975.00000
82.14270	2935.00000
82.16268	3119.00000
82.18265	2995.00000
82.20263	2992.00000
82.22261	3053.00000
82.24259	2937.00000
82.26256	3048.00000
82.28254	3003.00000
82.30252	3017.00000
82.32249	3188.00000
82.34247	3099.00000
82.36245	3093.00000
82.38242	3041.00000
82.40240	3155.00000
82.42238	3164.00000
82.44236	3184.00000
82.46233	3160.00000
82.48231	3164.00000
82.50229	3168.00000
82.52226	3218.00000
82.54224	3360.00000
82.56222	3335.00000
82.58219	3376.00000
82.60217	3386.00000
82.62215	3461.00000
82.64213	3539.00000
82.66210	3576.00000
82.68208	3536.00000
82.70206	3656.00000
82.72203	3719.00000
82.74201	3850.00000
82.76199	3858.00000
82.78196	3976.00000
82.80194	4014.00000
82.82192	4263.00000
82.84190	4344.00000
82.86187	4486.00000
82.88185	4977.00000
82.90183	5409.00000
82.92180	6053.00000
82.94178	6818.00000
82.96176	8411.00000
82.98173	10203.00000
83.00171	11974.00000
83.02169	12718.00000
83.04167	11782.00000
83.06164	10205.00000
83.08162	8842.00000
83.10160	7790.00000
83.12157	7785.00000
83.14155	8136.00000
83.16153	8824.00000
83.18151	9664.00000
83.20148	10319.00000
83.22146	10078.00000
83.24144	9969.00000
83.26141	9818.00000
83.28139	9439.00000
83.30137	8371.00000
83.32134	7215.00000
83.34132	6409.00000
83.36130	5851.00000
83.38128	5671.00000
83.40125	5824.00000
83.42123	6032.00000
83.44121	6146.00000
83.46118	5851.00000
83.48116	5391.00000
83.50114	4940.00000
83.52111	4432.00000
83.54109	4210.00000
83.56107	4047.00000
83.58105	3720.00000
83.60102	3778.00000
83.62100	3660.00000
83.64098	3560.00000
83.66095	3456.00000
83.68093	3457.00000
83.70091	3419.00000
83.72088	3359.00000
83.74086	3318.00000
83.76084	3394.00000
83.78082	3292.00000
83.80079	3404.00000
83.82077	3292.00000
83.84075	3222.00000
83.86072	3233.00000
83.88070	3079.00000
83.90068	3153.00000
83.92065	3114.00000
83.94063	3124.00000
83.96061	3064.00000
83.98059	3076.00000
84.00056	3103.00000
84.02054	3084.00000
84.04052	3038.00000
84.06049	3043.00000
84.08047	3005.00000
84.10045	3091.00000
84.12042	3027.00000
84.14040	2978.00000
84.16038	2965.00000
84.18036	2971.00000
84.20033	2961.00000
84.22031	3044.00000
84.24029	3031.00000
84.26026	3042.00000
84.28024	2963.00000
84.30022	2930.00000
84.32019	2890.00000
84.34017	3068.00000
84.36015	2983.00000
84.38013	2982.00000
84.40010	2966.00000
84.42008	2890.00000
84.44006	2963.00000
84.46003	2963.00000
84.48001	2893.00000
84.49999	2962.00000
84.51996	2971.00000
84.53994	2960.00000
84.55992	2915.00000
84.57990	2937.00000
84.59987	2905.00000
84.61985	3039.00000
84.63983	3041.00000
84.65980	3012.00000
84.67978	2917.00000
84.69976	3026.00000
84.71973	2955.00000
84.73971	2919.00000
84.75969	3001.00000
84.77967	2904.00000
84.79964	2889.00000
84.81962	2889.00000
84.83960	2855.00000
84.85957	2934.00000
84.87955	2921.00000
84.89953	3016.00000
84.91950	2967.00000
84.93948	2979.00000
84.95946	2932.00000
84.97944	3007.00000
84.99941	2949.00000
85.01939	2915.00000
85.03937	3010.00000
85.05934	2979.00000
85.07932	2964.00000
85.09930	2934.00000
85.11927	2939.00000
85.13925	3057.00000
85.15923	3053.00000
85.17921	2967.00000
85.19918	3044.00000
85.21916	2997.00000
85.23914	3077.00000
85.25911	2970.00000
85.27909	2955.00000
85.29907	2957.00000
85.31904	2907.00000
85.33902	3051.00000
85.35900	2982.00000
85.37898	2922.00000
85.39895	3008.00000
85.41893	2993.00000
85.43891	2984.00000
85.45888	3115.00000
85.47886	3032.00000
85.49884	3018.00000
85.51881	3117.00000
85.53879	3204.00000
85.55877	3275.00000
85.57875	3380.00000
85.59872	3334.00000
85.61870	3190.00000
85.63868	3056.00000
85.65865	3094.00000
85.67863	3016.00000
85.69861	3070.00000
85.71858	3123.00000
85.73856	3087.00000
85.75854	3083.00000
85.77852	3088.00000
85.79849	3213.00000
85.81847	3074.00000
85.83845	3249.00000
85.85842	3208.00000
85.87840	3237.00000
85.89838	3195.00000
85.91835	3190.00000
85.93833	3206.00000
85.95831	3005.00000
85.97829	3015.00000
85.99826	3065.00000
86.01824	3021.00000
86.03822	2914.00000
86.05819	2933.00000
86.07817	3046.00000
86.09815	2914.00000
86.11812	3076.00000
86.13810	3102.00000
86.15808	3002.00000
86.17806	2948.00000
86.19803	2975.00000
86.21801	2900.00000
86.23799	2861.00000
86.25796	2874.00000
86.27794	2964.00000
86.29792	2932.00000
86.31789	2939.00000
86.33787	2826.00000
86.35785	2929.00000
86.37783	2962.00000
86.39780	2926.00000
86.41778	2976.00000
86.43776	2953.00000
86.45773	2899.00000
86.47771	2882.00000
86.49769	2806.00000
86.51766	2844.00000
86.53764	2997.00000
86.55762	2878.00000
86.57760	2968.00000
86.59757	2914.00000
86.61755	2921.00000
86.63753	2903.00000
86.65750	2941.00000
86.67748	2907.00000
86.69746	2904.00000
86.71743	2947.00000
86.73741	3016.00000
86.75739	2902.00000
86.77737	2806.00000
86.79734	2796.00000
86.81732	2943.00000
86.83730	2954.00000
86.85727	2953.00000
86.87725	2820.00000
86.89723	2760.00000
86.91720	2894.00000
86.93718	2894.00000
86.95716	2920.00000
86.97714	3013.00000
86.99711	2853.00000
87.01709	2941.00000
87.03707	2898.00000
87.05704	3007.00000
87.07702	2857.00000
87.09700	2906.00000
87.11697	3022.00000
87.13695	2902.00000
87.15693	2927.00000
87.17691	2824.00000
87.19688	2985.00000
87.21686	3031.00000
87.23684	2902.00000
87.25681	3007.00000
87.27679	2914.00000
87.29677	2975.00000
87.31674	2996.00000
87.33672	2989.00000
87.35670	2972.00000
87.37668	3161.00000
87.39665	3062.00000
87.41663	3061.00000
87.43661	3096.00000
87.45658	3005.00000
87.47656	3043.00000
87.49654	2869.00000
87.51651	2965.00000
87.53649	2918.00000
87.55647	2964.00000
87.57645	2955.00000
87.59642	2924.00000
87.61640	3049.00000
87.63638	2957.00000
87.65635	3004.00000
87.67633	3102.00000
87.69631	2997.00000
87.71628	3027.00000
87.73626	2846.00000
87.75624	3021.00000
87.77622	2944.00000
87.79619	2863.00000
87.81617	2936.00000
87.83615	2845.00000
87.85612	2893.00000
87.87610	2823.00000
87.89608	2944.00000
87.91605	2836.00000
87.93603	2854.00000
87.95601	2980.00000
87.97599	2941.00000
87.99596	3004.00000
88.01594	2979.00000
88.03592	2934.00000
88.05589	2979.00000
88.07587	2956.00000
88.09585	2873.00000
88.11582	2896.00000
88.13580	2880.00000
88.15578	2845.00000
88.17576	2850.00000
88.19573	2929.00000
88.21571	2947.00000
88.23569	2931.00000
88.25566	2968.00000
88.27564	2951.00000
88.29562	2951.00000
88.31559	2903.00000
88.33557	2880.00000
88.35555	2996.00000
88.37553	2861.00000
88.39550	3000.00000
88.41548	3012.00000
88.43546	2950.00000
88.45543	2864.00000
88.47541	3002.00000
88.49539	2984.00000
88.51536	2928.00000
88.53534	2956.00000
88.55532	2921.00000
88.57530	2982.00000
88.59527	2987.00000
88.61525	2945.00000
88.63523	2943.00000
88.65520	2910.00000
88.67518	3007.00000
88.69516	3126.00000
88.71513	3030.00000
88.73511	3227.00000
88.75509	3064.00000
88.77507	3024.00000
88.79504	3044.00000
88.81502	3210.00000
88.83500	3118.00000
88.85497	3200.00000
88.87495	3233.00000
88.89493	3202.00000
88.91490	3255.00000
88.93488	3185.00000
88.95486	3250.00000
88.97484	3235.00000
88.99481	3390.00000
89.01479	3375.00000
89.03477	3463.00000
89.05474	3560.00000
89.07472	3485.00000
89.09470	3632.00000
89.11467	3756.00000
89.13465	3927.00000
89.15463	4058.00000
89.17461	4371.00000
89.19458	4869.00000
89.21456	5376.00000
89.23454	5864.00000
89.25451	6562.00000
89.27449	6819.00000
89.29447	6662.00000
89.31444	6359.00000
89.33442	6097.00000
89.35440	6100.00000
89.37438	6336.00000
89.39435	6196.00000
89.41433	5799.00000
89.43431	5330.00000
89.45428	5096.00000
89.47426	4943.00000
89.49424	5191.00000
89.51421	5389.00000
89.53419	5680.00000
89.55417	5983.00000
89.57415	6252.00000
89.59412	6130.00000
89.61410	6104.00000
89.63408	6037.00000
89.65405	5883.00000
89.67403	5423.00000
89.69401	5132.00000
89.71398	4709.00000
89.73396	4357.00000
89.75394	4185.00000
89.77392	4085.00000
89.79389	4039.00000
89.81387	4179.00000
89.83385	3982.00000
89.85382	4099.00000
89.87380	4034.00000
89.89378	4159.00000
89.91375	3990.00000
89.93373	3871.00000
89.95371	3729.00000
89.97369	3605.00000
89.99366	3403.00000
90.01364	3303.00000
90.03362	3403.00000
90.05359	3281.00000
90.07357	3285.00000
90.09355	3375.00000
90.11352	3311.00000
90.13350	3227.00000
90.15348	3291.00000
90.17346	3053.00000
90.19343	3039.00000
90.21341	3019.00000
90.23339	3049.00000
90.25336	3053.00000
90.27334	3092.00000
90.29332	2965.00000
90.31329	2999.00000
90.33327	2906.00000
90.35325	3032.00000
90.37323	3034.00000
90.39320	2995.00000
90.41318	2987.00000
90.43316	3090.00000
90.45313	2879.00000
90.47311	2868.00000
90.49309	2959.00000
90.51306	2865.00000
90.53304	2976.00000
90.55302	2881.00000
90.57300	2912.00000
90.59297	2964.00000
90.61295	3041.00000
90.63293	2967.00000
90.65290	2871.00000
90.67288	2985.00000
90.69286	2909.00000
90.71283	2971.00000
90.73281	2827.00000
90.75279	2998.00000
90.77277	2846.00000
90.79274	2979.00000
90.81272	2885.00000
90.83270	2927.00000
90.85267	2972.00000
90.87265	2816.00000
90.89263	3008.00000
90.91260	2908.00000
90.93258	2987.00000
90.95256	2979.00000
90.97254	2983.00000
90.99251	2876.00000
91.01249	2871.00000
91.03247	2931.00000
91.05244	2957.00000
91.07242	2867.00000
91.09240	2831.00000
91.11237	2790.00000
91.13235	2736.00000
91.15233	2796.00000
91.17231	2894.00000
91.19228	2858.00000
91.21226	2867.00000
91.23224	2878.00000
91.25221	2886.00000
91.27219	2855.00000
91.29217	2848.00000
91.31214	2874.00000
91.33212	2825.00000
91.35210	2867.00000
91.37208	2764.00000
91.39205	2843.00000
91.41203	2878.00000
91.43201	2945.00000
91.45198	2819.00000
91.47196	2812.00000
91.49194	2825.00000
91.51191	2777.00000
91.53189	2828.00000
91.55187	2888.00000
91.57185	2834.00000
91.59182	2834.00000
91.61180	2800.00000
91.63178	2968.00000
91.65175	2811.00000
91.67173	2923.00000
91.69171	2781.00000
91.71168	2942.00000
91.73166	2897.00000
91.75164	2828.00000
91.77162	2904.00000
91.79159	2863.00000
91.81157	2785.00000
91.83155	2850.00000
91.85152	2842.00000
91.87150	2973.00000
91.89148	2892.00000
91.91145	2799.00000
91.93143	2838.00000
91.95141	2846.00000
91.97139	2913.00000
91.99136	2848.00000
92.01134	2770.00000
92.03132	2764.00000
92.05129	2901.00000
92.07127	2761.00000
92.09125	2795.00000
92.11122	2871.00000
92.13120	2859.00000
92.15118	2764.00000
92.17116	2827.00000
92.19113	2825.00000
92.21111	2937.00000
92.23109	2764.00000
92.25106	2791.00000
92.27104	2790.00000
92.29102	2869.00000
92.31099	2809.00000
92.33097	2864.00000
92.35095	2906.00000
92.37093	2876.00000
92.39090	2813.00000
92.41088	2801.00000
92.43086	2778.00000
92.45083	2900.00000
92.47081	2854.00000
92.49079	2791.00000
92.51076	2756.00000
92.53074	2768.00000
92.55072	2734.00000
92.57070	2774.00000
92.59067	2895.00000
92.61065	2818.00000
92.63063	2719.00000
92.65060	2861.00000
92.67058	2803.00000
92.69056	2691.00000
92.71053	2910.00000
92.73051	2859.00000
92.75049	2802.00000
92.77047	2842.00000
92.79044	2902.00000
92.81042	2782.00000
92.83040	2925.00000
92.85037	2907.00000
92.87035	2802.00000
92.89033	2880.00000
92.91030	2870.00000
92.93028	2918.00000
92.95026	2918.00000
92.97024	2766.00000
92.99021	2778.00000
93.01019	2865.00000
93.03017	2773.00000
93.05014	2825.00000
93.07012	2808.00000
93.09010	2828.00000
93.11007	2822.00000
93.13005	2844.00000
93.15003	2843.00000
93.17001	2851.00000
93.18998	2910.00000
93.20996	2890.00000
93.22994	2796.00000
93.24991	2799.00000
93.26989	2806.00000
93.28987	2851.00000
93.30984	2826.00000
93.32982	2842.00000
93.34980	2956.00000
93.36978	2806.00000
93.38975	2836.00000
93.40973	2846.00000
93.42971	2871.00000
93.44968	2804.00000
93.46966	2874.00000
93.48964	2825.00000
93.50961	2942.00000
93.52959	2910.00000
93.54957	2929.00000
93.56955	2884.00000
93.58952	2863.00000
93.60950	2912.00000
93.62948	2956.00000
93.64945	2890.00000
93.66943	2830.00000
93.68941	2929.00000
93.70938	2984.00000
93.72936	3059.00000
93.74934	3026.00000
93.76932	2990.00000
93.78929	3093.00000
93.80927	3181.00000
93.82925	3193.00000
93.84922	3038.00000
93.86920	3033.00000
93.88918	3155.00000
93.90915	3114.00000
93.92913	3229.00000
93.94911	3137.00000
93.96909	3187.00000
93.98906	3213.00000
94.00904	3141.00000
94.02902	3146.00000
94.04899	3062.00000
94.06897	3081.00000
94.08895	3231.00000
94.10892	3088.00000
94.12890	3119.00000
94.14888	3173.00000
94.16886	3144.00000
94.18883	2937.00000
94.20881	3212.00000
94.22879	3100.00000
94.24876	3106.00000
94.26874	3157.00000
94.28872	3112.00000
94.30869	3102.00000
94.32867	2960.00000
94.34865	2989.00000
94.36863	2921.00000
94.38860	2882.00000
94.40858	2997.00000
94.42856	2851.00000
94.44853	2896.00000
94.46851	2864.00000
94.48849	2963.00000
94.50846	2951.00000
94.52844	2952.00000
94.54842	2813.00000
94.56840	2910.00000
94.58837	3005.00000
94.60835	2846.00000
94.62833	2815.00000
94.64830	2911.00000
94.66828	2830.00000
94.68826	2810.00000
94.70823	2922.00000
94.72821	2871.00000
94.74819	2782.00000
94.76817	2887.00000
94.78814	2828.00000
94.80812	2834.00000
94.82810	2907.00000
94.84807	2861.00000
94.86805	2899.00000
94.88803	2815.00000
94.90800	2908.00000
94.92798	2869.00000
94.94796	2885.00000
94.96794	2882.00000
94.98791	2834.00000
95.00789	2858.00000
95.02787	2821.00000
95.04784	2900.00000
95.06782	2834.00000
95.08780	2903.00000
95.10777	2866.00000
95.12775	2760.00000
95.14773	2830.00000
95.16771	2917.00000
95.18768	2847.00000
95.20766	2780.00000
95.22764	2874.00000
95.24761	2889.00000
95.26759	2948.00000
95.28757	2750.00000
95.30754	2856.00000
95.32752	2875.00000
95.34750	2897.00000
95.36748	2733.00000
95.38745	2783.00000
95.40743	2870.00000
95.42741	2879.00000
95.44738	2789.00000
95.46736	2842.00000
95.48734	2902.00000
95.50731	2870.00000
95.52729	2840.00000
95.54727	2875.00000
95.56725	2914.00000
95.58722	2861.00000
95.60720	2865.00000
95.62718	2954.00000
95.64715	2806.00000
95.66713	2844.00000
95.68711	2887.00000
95.70708	2840.00000
95.72706	2894.00000
95.74704	2792.00000
95.76702	2822.00000
95.78699	2817.00000
95.80697	2880.00000
95.82695	2841.00000
95.84692	2840.00000
95.86690	2875.00000
95.88688	2867.00000
95.90685	2851.00000
95.92683	2795.00000
95.94681	2924.00000
95.96679	2879.00000
95.98676	2843.00000
96.00674	2930.00000
96.02672	2905.00000
96.04669	2852.00000
96.06667	2814.00000
96.08665	2740.00000
96.10662	2877.00000
96.12660	2845.00000
96.14658	2920.00000
96.16656	2826.00000
96.18653	2851.00000
96.20651	2831.00000
96.22649	2750.00000
96.24646	2843.00000
96.26644	2856.00000
96.28642	2771.00000
96.30639	2853.00000
96.32637	2836.00000
96.34635	2846.00000
96.36633	2821.00000
96.38630	2903.00000
96.40628	2793.00000
96.42626	2889.00000
96.44623	2816.00000
96.46621	2811.00000
96.48619	2828.00000
96.50616	2932.00000
96.52614	2847.00000
96.54612	2751.00000
96.56610	2812.00000
96.58607	2738.00000
96.60605	2920.00000
96.62603	2826.00000
96.64600	2885.00000
96.66598	2830.00000
96.68596	2774.00000
96.70593	2798.00000
96.72591	2806.00000
96.74589	2828.00000
96.76587	2826.00000
96.78584	2917.00000
96.80582	2826.00000
96.82580	2792.00000
96.84577	2819.00000
96.86575	2918.00000
96.88573	2794.00000
96.90570	2752.00000
96.92568	2764.00000
96.94566	2975.00000
96.96564	2821.00000
96.98561	2784.00000
97.00559	2933.00000
97.02557	2806.00000
97.04554	2934.00000
97.06552	2824.00000
97.08550	2880.00000
97.10547	2772.00000
97.12545	2834.00000
97.14543	2892.00000
97.16541	2953.00000
97.18538	2843.00000
97.20536	2827.00000
97.22534	2842.00000
97.24531	2850.00000
97.26529	2746.00000
97.28527	2876.00000
97.30524	2904.00000
97.32522	2836.00000
97.34520	2733.00000
97.36518	2870.00000
97.38515	2828.00000
97.40513	2814.00000
97.42511	2802.00000
97.44508	2826.00000
97.46506	2780.00000
97.48504	2939.00000
97.50501	2905.00000
97.52499	2865.00000
97.54497	2926.00000
97.56495	2830.00000
97.58492	2812.00000
97.60490	2803.00000
97.62488	2882.00000
97.64485	2824.00000
97.66483	2834.00000
97.68481	2816.00000
97.70478	2873.00000
97.72476	2874.00000
97.74474	2832.00000
97.76472	2941.00000
97.78469	2800.00000
97.80467	2922.00000
97.82465	2910.00000
97.84462	2934.00000
97.86460	2869.00000
97.88458	2917.00000
97.90455	2958.00000
97.92453	2886.00000
97.94451	2927.00000
97.96449	2948.00000
97.98446	2873.00000
98.00444	2850.00000
98.02442	2945.00000
98.04439	2774.00000
98.06437	2935.00000
98.08435	2940.00000
98.10432	2841.00000
98.12430	2844.00000
98.14428	2982.00000
98.16426	2973.00000
98.18423	2971.00000
98.20421	3034.00000
98.22419	2962.00000
98.24416	3135.00000
98.26414	3018.00000
98.28412	3044.00000
98.30409	3084.00000
98.32407	2917.00000
98.34405	2989.00000
98.36403	2872.00000
98.38400	2916.00000
98.40398	2990.00000
98.42396	2885.00000
98.44393	2870.00000
98.46391	2899.00000
98.48389	2921.00000
98.50386	2957.00000
98.52384	2953.00000
98.54382	2994.00000
98.56380	3043.00000
98.58377	3038.00000
98.60375	3028.00000
98.62373	2971.00000
98.64370	2926.00000
98.66368	2957.00000
98.68366	2929.00000
98.70363	2934.00000
98.72361	3016.00000
98.74359	2826.00000
98.76357	2913.00000
98.78354	2960.00000
98.80352	2915.00000
98.82350	2924.00000
98.84347	2966.00000
98.86345	3018.00000
98.88343	2928.00000
98.90340	2841.00000
98.92338	2952.00000
98.94336	2844.00000
98.96334	2909.00000
98.98331	2890.00000
99.00329	2814.00000
99.02327	2846.00000
99.04324	3001.00000
99.06322	2850.00000
99.08320	2960.00000
99.10317	2957.00000
99.12315	2854.00000
99.14313	2924.00000
99.16311	2940.00000
99.18308	2945.00000
99.20306	2879.00000
99.22304	2934.00000
99.24301	2930.00000
99.26299	3059.00000
99.28297	2929.00000
99.30294	2994.00000
99.32292	2899.00000
99.34290	2951.00000
99.36288	2921.00000
99.38285	3083.00000
99.40283	3065.00000
99.42281	3031.00000
99.44278	2977.00000
99.46276	3038.00000
99.48274	3057.00000
99.50271	3024.00000
99.52269	3114.00000
99.54267	3205.00000
99.56265	3217.00000
99.58262	3150.00000
99.60260	3237.00000
99.62258	3223.00000
99.64255	3347.00000
99.66253	3462.00000
99.68251	3632.00000
99.70248	3772.00000
99.72246	3864.00000
99.74244	4047.00000
99.76242	4231.00000
99.78239	4156.00000
99.80237	4064.00000
99.82235	4018.00000
99.84232	3846.00000
99.86230	3879.00000
99.88228	3889.00000
99.90225	4011.00000
99.92223	4287.00000
99.94221	4623.00000
99.96219	4826.00000
99.98216	5200.00000
100.00214	5378.00000
