8.00000	1671.00000
8.02200	1693.00000
8.04400	1645.00000
8.06600	1548.00000
8.08800	1646.00000
8.11000	1613.00000
8.13200	1573.00000
8.15400	1555.00000
8.17600	1572.00000
8.19800	1578.00000
8.22000	1511.00000
8.24200	1506.00000
8.26400	1562.00000
8.28600	1492.00000
8.30800	1436.00000
8.33000	1450.00000
8.35200	1488.00000
8.37400	1493.00000
8.39600	1402.00000
8.41800	1477.00000
8.44000	1406.00000
8.46200	1370.00000
8.48400	1375.00000
8.50600	1418.00000
8.52800	1397.00000
8.55000	1396.00000
8.57200	1391.00000
8.59400	1361.00000
8.61600	1415.00000
8.63800	1333.00000
8.66000	1290.00000
8.68200	1309.00000
8.70400	1348.00000
8.72600	1356.00000
8.74800	1325.00000
8.77000	1335.00000
8.79200	1309.00000
8.81400	1284.00000
8.83600	1358.00000
8.85800	1268.00000
8.88000	1271.00000
8.90200	1320.00000
8.92400	1249.00000
8.94600	1335.00000
8.96800	1239.00000
8.99000	1269.00000
9.01200	1305.00000
9.03400	1258.00000
9.05600	1208.00000
9.07800	1250.00000
9.10000	1180.00000
9.12200	1267.00000
9.14400	1221.00000
9.16600	1242.00000
9.18800	1315.00000
9.21000	1228.00000
9.23200	1232.00000
9.25400	1185.00000
9.27600	1214.00000
9.29800	1240.00000
9.32000	1158.00000
9.34200	1225.00000
9.36400	1167.00000
9.38600	1249.00000
9.40800	1199.00000
9.43000	1178.00000
9.45200	1228.00000
9.47400	1250.00000
9.49600	1204.00000
9.51800	1184.00000
9.54000	1082.00000
9.56200	1145.00000
9.58400	1154.00000
9.60600	1153.00000
9.62800	1156.00000
9.65000	1121.00000
9.67200	1237.00000
9.69400	1196.00000
9.71600	1247.00000
9.73800	1161.00000
9.76000	1164.00000
9.78200	1155.00000
9.80400	1186.00000
9.82600	1124.00000
9.84800	1189.00000
9.87000	1190.00000
9.89200	1218.00000
9.91400	1261.00000
9.93600	1190.00000
9.95800	1189.00000
9.98000	1166.00000
10.00200	1179.00000
10.02400	1177.00000
10.04600	1092.00000
10.06800	1213.00000
10.09000	1186.00000
10.11200	1145.00000
10.13400	1161.00000
10.15600	1131.00000
10.17800	1195.00000
10.20000	1215.00000
10.22200	1140.00000
10.24400	1175.00000
10.26600	1153.00000
10.28800	1116.00000
10.31000	1151.00000
10.33200	1148.00000
10.35400	1192.00000
10.37600	1142.00000
10.39800	1165.00000
10.42000	1222.00000
10.44200	1203.00000
10.46400	1181.00000
10.48600	1201.00000
10.50800	1155.00000
10.53000	1175.00000
10.55200	1250.00000
10.57400	1290.00000
10.59600	1332.00000
10.61800	1389.00000
10.64000	1431.00000
10.66200	1664.00000
10.68400	1891.00000
10.70600	2333.00000
10.72800	2908.00000
10.75000	3717.00000
10.77200	4429.00000
10.79400	5233.00000
10.81600	5893.00000
10.83800	6230.00000
10.86000	5526.00000
10.88200	3743.00000
10.90400	2267.00000
10.92600	1489.00000
10.94800	1271.00000
10.97000	1124.00000
10.99200	1076.00000
11.01400	1074.00000
11.03600	1059.00000
11.05800	1018.00000
11.08000	1067.00000
11.10200	1041.00000
11.12400	1028.00000
11.14600	1005.00000
11.16800	963.00000
11.19000	994.00000
11.21200	1047.00000
11.23400	990.00000
11.25600	948.00000
11.27800	977.00000
11.30000	974.00000
11.32200	948.00000
11.34400	996.00000
11.36600	987.00000
11.38800	957.00000
11.41000	966.00000
11.43200	950.00000
11.45400	932.00000
11.47600	958.00000
11.49800	956.00000
11.52000	993.00000
11.54200	947.00000
11.56400	917.00000
11.58600	911.00000
11.60800	933.00000
11.63000	954.00000
11.65200	969.00000
11.67400	923.00000
11.69600	902.00000
11.71800	967.00000
11.74000	928.00000
11.76200	927.00000
11.78400	911.00000
11.80600	964.00000
11.82800	917.00000
11.85000	938.00000
11.87200	887.00000
11.89400	950.00000
11.91600	892.00000
11.93800	903.00000
11.96000	930.00000
11.98200	925.00000
12.00400	899.00000
12.02600	890.00000
12.04800	883.00000
12.07000	904.00000
12.09200	894.00000
12.11400	915.00000
12.13600	861.00000
12.15800	874.00000
12.18000	895.00000
12.20200	914.00000
12.22400	854.00000
12.24600	896.00000
12.26800	866.00000
12.29000	934.00000
12.31200	898.00000
12.33400	837.00000
12.35600	846.00000
12.37800	871.00000
12.40000	849.00000
12.42200	909.00000
12.44400	829.00000
12.46600	829.00000
12.48800	843.00000
12.51000	873.00000
12.53200	856.00000
12.55400	831.00000
12.57600	813.00000
12.59800	874.00000
12.62000	840.00000
12.64200	867.00000
12.66400	807.00000
12.68600	841.00000
12.70800	862.00000
12.73000	805.00000
12.75200	876.00000
12.77400	913.00000
12.79600	852.00000
12.81800	853.00000
12.84000	856.00000
12.86200	851.00000
12.88400	835.00000
12.90600	840.00000
12.92800	870.00000
12.95000	815.00000
12.97200	777.00000
12.99400	859.00000
13.01600	827.00000
13.03800	835.00000
13.06000	831.00000
13.08200	820.00000
13.10400	804.00000
13.12600	807.00000
13.14800	854.00000
13.17000	833.00000
13.19200	764.00000
13.21400	810.00000
13.23600	877.00000
13.25800	805.00000
13.28000	824.00000
13.30200	813.00000
13.32400	769.00000
13.34600	821.00000
13.36800	812.00000
13.39000	782.00000
13.41200	799.00000
13.43400	782.00000
13.45600	802.00000
13.47800	798.00000
13.50000	745.00000
13.52200	813.00000
13.54400	793.00000
13.56600	769.00000
13.58800	766.00000
13.61000	787.00000
13.63200	773.00000
13.65400	803.00000
13.67600	726.00000
13.69800	769.00000
13.72000	789.00000
13.74200	765.00000
13.76400	762.00000
13.78600	785.00000
13.80800	814.00000
13.83000	756.00000
13.85200	763.00000
13.87400	782.00000
13.89600	761.00000
13.91800	754.00000
13.94000	787.00000
13.96200	762.00000
13.98400	733.00000
14.00600	734.00000
14.02800	774.00000
14.05000	783.00000
14.07200	763.00000
14.09400	738.00000
14.11600	742.00000
14.13800	792.00000
14.16000	757.00000
14.18200	752.00000
14.20400	730.00000
14.22600	750.00000
14.24800	776.00000
14.27000	775.00000
14.29200	750.00000
14.31400	768.00000
14.33600	762.00000
14.35800	735.00000
14.38000	743.00000
14.40200	700.00000
14.42400	747.00000
14.44600	749.00000
14.46800	718.00000
14.49000	763.00000
14.51200	759.00000
14.53400	755.00000
14.55600	730.00000
14.57800	760.00000
14.60000	759.00000
14.62200	704.00000
14.64400	783.00000
14.66600	763.00000
14.68800	751.00000
14.71000	739.00000
14.73200	682.00000
14.75400	731.00000
14.77600	710.00000
14.79800	687.00000
14.82000	698.00000
14.84200	719.00000
14.86400	670.00000
14.88600	716.00000
14.90800	691.00000
14.93000	712.00000
14.95200	725.00000
14.97400	704.00000
14.99600	688.00000
15.01800	739.00000
15.04000	747.00000
15.06200	707.00000
15.08400	786.00000
15.10600	722.00000
15.12800	720.00000
15.15000	728.00000
15.17200	638.00000
15.19400	673.00000
15.21600	673.00000
15.23800	720.00000
15.26000	700.00000
15.28200	707.00000
15.30400	717.00000
15.32600	714.00000
15.34800	717.00000
15.37000	731.00000
15.39200	706.00000
15.41400	693.00000
15.43600	685.00000
15.45800	739.00000
15.48000	717.00000
15.50200	710.00000
15.52400	703.00000
15.54600	712.00000
15.56800	710.00000
15.59000	654.00000
15.61200	668.00000
15.63400	684.00000
15.65600	708.00000
15.67800	686.00000
15.70000	677.00000
15.72200	665.00000
15.74400	672.00000
15.76600	692.00000
15.78800	630.00000
15.81000	658.00000
15.83200	713.00000
15.85400	642.00000
15.87600	715.00000
15.89800	696.00000
15.92000	712.00000
15.94200	692.00000
15.96400	652.00000
15.98600	672.00000
16.00800	689.00000
16.03000	680.00000
16.05200	652.00000
16.07400	651.00000
16.09600	657.00000
16.11800	676.00000
16.14000	706.00000
16.16200	664.00000
16.18400	656.00000
16.20600	693.00000
16.22800	727.00000
16.25000	649.00000
16.27200	662.00000
16.29400	687.00000
16.31600	712.00000
16.33800	682.00000
16.36000	669.00000
16.38200	641.00000
16.40400	648.00000
16.42600	658.00000
16.44800	699.00000
16.47000	674.00000
16.49200	700.00000
16.51400	650.00000
16.53600	649.00000
16.55800	633.00000
16.58000	635.00000
16.60200	694.00000
16.62400	665.00000
16.64600	650.00000
16.66800	659.00000
16.69000	671.00000
16.71200	636.00000
16.73400	720.00000
16.75600	720.00000
16.77800	681.00000
16.80000	702.00000
16.82200	694.00000
16.84400	691.00000
16.86600	663.00000
16.88800	642.00000
16.91000	682.00000
16.93200	650.00000
16.95400	646.00000
16.97600	663.00000
16.99800	615.00000
17.02000	673.00000
17.04200	669.00000
17.06400	674.00000
17.08600	678.00000
17.10800	614.00000
17.13000	636.00000
17.15200	675.00000
17.17400	644.00000
17.19600	655.00000
17.21800	648.00000
17.24000	645.00000
17.26200	634.00000
17.28400	673.00000
17.30600	620.00000
17.32800	688.00000
17.35000	620.00000
17.37200	621.00000
17.39400	624.00000
17.41600	661.00000
17.43800	669.00000
17.46000	646.00000
17.48200	642.00000
17.50400	645.00000
17.52600	649.00000
17.54800	654.00000
17.57000	649.00000
17.59200	666.00000
17.61400	626.00000
17.63600	647.00000
17.65800	647.00000
17.68000	618.00000
17.70200	599.00000
17.72400	626.00000
17.74600	617.00000
17.76800	662.00000
17.79000	657.00000
17.81200	652.00000
17.83400	689.00000
17.85600	650.00000
17.87800	632.00000
17.90000	658.00000
17.92200	634.00000
17.94400	619.00000
17.96600	604.00000
17.98800	659.00000
18.01000	642.00000
18.03200	664.00000
18.05400	631.00000
18.07600	657.00000
18.09800	657.00000
18.12000	633.00000
18.14200	661.00000
18.16400	633.00000
18.18600	663.00000
18.20800	617.00000
18.23000	648.00000
18.25200	704.00000
18.27400	655.00000
18.29600	624.00000
18.31800	691.00000
18.34000	680.00000
18.36200	761.00000
18.38400	706.00000
18.40600	719.00000
18.42800	648.00000
18.45000	619.00000
18.47200	637.00000
18.49400	597.00000
18.51600	675.00000
18.53800	589.00000
18.56000	606.00000
18.58200	599.00000
18.60400	671.00000
18.62600	689.00000
18.64800	604.00000
18.67000	620.00000
18.69200	622.00000
18.71400	644.00000
18.73600	616.00000
18.75800	663.00000
18.78000	589.00000
18.80200	600.00000
18.82400	604.00000
18.84600	579.00000
18.86800	641.00000
18.89000	643.00000
18.91200	630.00000
18.93400	629.00000
18.95600	615.00000
18.97800	641.00000
19.00000	632.00000
19.02200	663.00000
19.04400	600.00000
19.06600	659.00000
19.08800	581.00000
19.11000	620.00000
19.13200	577.00000
19.15400	646.00000
19.17600	683.00000
19.19800	619.00000
19.22000	615.00000
19.24200	644.00000
19.26400	582.00000
19.28600	629.00000
19.30800	644.00000
19.33000	595.00000
19.35200	632.00000
19.37400	650.00000
19.39600	645.00000
19.41800	607.00000
19.44000	644.00000
19.46200	700.00000
19.48400	603.00000
19.50600	700.00000
19.52800	687.00000
19.55000	663.00000
19.57200	772.00000
19.59400	755.00000
19.61600	762.00000
19.63800	718.00000
19.66000	662.00000
19.68200	719.00000
19.70400	615.00000
19.72600	680.00000
19.74800	637.00000
19.77000	684.00000
19.79200	672.00000
19.81400	643.00000
19.83600	645.00000
19.85800	616.00000
19.88000	663.00000
19.90200	684.00000
19.92400	646.00000
19.94600	585.00000
19.96800	676.00000
19.99000	634.00000
20.01200	645.00000
20.03400	645.00000
20.05600	644.00000
20.07800	574.00000
20.10000	635.00000
20.12200	614.00000
20.14400	630.00000
20.16600	641.00000
20.18800	621.00000
20.21000	661.00000
20.23200	626.00000
20.25400	623.00000
20.27600	598.00000
20.29800	644.00000
20.32000	630.00000
20.34200	607.00000
20.36400	602.00000
20.38600	704.00000
20.40800	661.00000
20.43000	637.00000
20.45200	622.00000
20.47400	607.00000
20.49600	629.00000
20.51800	650.00000
20.54000	600.00000
20.56200	677.00000
20.58400	651.00000
20.60600	629.00000
20.62800	689.00000
20.65000	623.00000
20.67200	661.00000
20.69400	670.00000
20.71600	687.00000
20.73800	691.00000
20.76000	716.00000
20.78200	693.00000
20.80400	684.00000
20.82600	732.00000
20.84800	709.00000
20.87000	710.00000
20.89200	705.00000
20.91400	696.00000
20.93600	736.00000
20.95800	707.00000
20.98000	671.00000
21.00200	706.00000
21.02400	721.00000
21.04600	769.00000
21.06800	725.00000
21.09000	686.00000
21.11200	723.00000
21.13400	666.00000
21.15600	699.00000
21.17800	633.00000
21.20000	701.00000
21.22200	636.00000
21.24400	731.00000
21.26600	664.00000
21.28800	670.00000
21.31000	711.00000
21.33200	671.00000
21.35400	674.00000
21.37600	676.00000
21.39800	676.00000
21.42000	618.00000
21.44200	689.00000
21.46400	726.00000
21.48600	703.00000
21.50800	673.00000
21.53000	667.00000
21.55200	683.00000
21.57400	713.00000
21.59600	799.00000
21.61800	912.00000
21.64000	1015.00000
21.66200	1199.00000
21.68400	1418.00000
21.70600	1665.00000
21.72800	2025.00000
21.75000	2005.00000
21.77200	2121.00000
21.79400	1958.00000
21.81600	1631.00000
21.83800	1396.00000
21.86000	1084.00000
21.88200	952.00000
21.90400	828.00000
21.92600	757.00000
21.94800	725.00000
21.97000	746.00000
21.99200	685.00000
22.01400	709.00000
22.03600	667.00000
22.05800	718.00000
22.08000	696.00000
22.10200	723.00000
22.12400	692.00000
22.14600	723.00000
22.16800	704.00000
22.19000	705.00000
22.21200	685.00000
22.23400	681.00000
22.25600	685.00000
22.27800	745.00000
22.30000	703.00000
22.32200	712.00000
22.34400	755.00000
22.36600	659.00000
22.38800	749.00000
22.41000	764.00000
22.43200	725.00000
22.45400	753.00000
22.47600	740.00000
22.49800	754.00000
22.52000	719.00000
22.54200	723.00000
22.56400	773.00000
22.58600	755.00000
22.60800	750.00000
22.63000	783.00000
22.65200	813.00000
22.67400	776.00000
22.69600	725.00000
22.71800	751.00000
22.74000	753.00000
22.76200	763.00000
22.78400	799.00000
22.80600	752.00000
22.82800	755.00000
22.85000	785.00000
22.87200	880.00000
22.89400	951.00000
22.91600	1147.00000
22.93800	1470.00000
22.96000	2068.00000
22.98200	2994.00000
23.00400	4137.00000
23.02600	5391.00000
23.04800	6321.00000
23.07000	6678.00000
23.09200	6024.00000
23.11400	4618.00000
23.13600	3331.00000
23.15800	2255.00000
23.18000	1510.00000
23.20200	1045.00000
23.22400	897.00000
23.24600	818.00000
23.26800	749.00000
23.29000	674.00000
23.31200	731.00000
23.33400	721.00000
23.35600	666.00000
23.37800	706.00000
23.40000	730.00000
23.42200	726.00000
23.44400	637.00000
23.46600	675.00000
23.48800	643.00000
23.51000	731.00000
23.53200	684.00000
23.55400	626.00000
23.57600	721.00000
23.59800	662.00000
23.62000	688.00000
23.64200	678.00000
23.66400	724.00000
23.68600	721.00000
23.70800	723.00000
23.73000	701.00000
23.75200	727.00000
23.77400	747.00000
23.79600	853.00000
23.81800	846.00000
23.84000	862.00000
23.86200	803.00000
23.88400	849.00000
23.90600	771.00000
23.92800	776.00000
23.95000	740.00000
23.97200	874.00000
23.99400	762.00000
24.01600	807.00000
24.03800	829.00000
24.06000	793.00000
24.08200	859.00000
24.10400	810.00000
24.12600	797.00000
24.14800	809.00000
24.17000	753.00000
24.19200	759.00000
24.21400	739.00000
24.23600	659.00000
24.25800	694.00000
24.28000	740.00000
24.30200	691.00000
24.32400	659.00000
24.34600	681.00000
24.36800	685.00000
24.39000	673.00000
24.41200	702.00000
24.43400	681.00000
24.45600	634.00000
24.47800	706.00000
24.50000	681.00000
24.52200	642.00000
24.54400	707.00000
24.56600	686.00000
24.58800	760.00000
24.61000	760.00000
24.63200	757.00000
24.65400	751.00000
24.67600	694.00000
24.69800	741.00000
24.72000	711.00000
24.74200	710.00000
24.76400	704.00000
24.78600	709.00000
24.80800	723.00000
24.83000	715.00000
24.85200	699.00000
24.87400	657.00000
24.89600	701.00000
24.91800	681.00000
24.94000	716.00000
24.96200	710.00000
24.98400	667.00000
25.00600	767.00000
25.02800	735.00000
25.05000	695.00000
25.07200	724.00000
25.09400	697.00000
25.11600	698.00000
25.13800	728.00000
25.16000	679.00000
25.18200	721.00000
25.20400	754.00000
25.22600	733.00000
25.24800	735.00000
25.27000	743.00000
25.29200	765.00000
25.31400	725.00000
25.33600	655.00000
25.35800	779.00000
25.38000	763.00000
25.40200	720.00000
25.42400	736.00000
25.44600	745.00000
25.46800	835.00000
25.49000	772.00000
25.51200	758.00000
25.53400	834.00000
25.55600	798.00000
25.57800	813.00000
25.60000	765.00000
25.62200	834.00000
25.64400	841.00000
25.66600	848.00000
25.68800	852.00000
25.71000	802.00000
25.73200	808.00000
25.75400	813.00000
25.77600	802.00000
25.79800	849.00000
25.82000	814.00000
25.84200	825.00000
25.86400	860.00000
25.88600	833.00000
25.90800	872.00000
25.93000	837.00000
25.95200	885.00000
25.97400	852.00000
25.99600	848.00000
26.01800	896.00000
26.04000	934.00000
26.06200	886.00000
26.08400	886.00000
26.10600	898.00000
26.12800	981.00000
26.15000	941.00000
26.17200	1019.00000
26.19400	1129.00000
26.21600	1249.00000
26.23800	1546.00000
26.26000	1976.00000
26.28200	2942.00000
26.30400	4339.00000
26.32600	6653.00000
26.34800	9690.00000
26.37000	12370.00000
26.39200	14747.00000
26.41400	15620.00000
26.43600	14719.00000
26.45800	12830.00000
26.48000	9759.00000
26.50200	6718.00000
26.52400	4585.00000
26.54600	2943.00000
26.56800	1822.00000
26.59000	1219.00000
26.61200	1060.00000
26.63400	897.00000
26.65600	889.00000
26.67800	829.00000
26.70000	820.00000
26.72200	792.00000
26.74400	832.00000
26.76600	811.00000
26.78800	804.00000
26.81000	769.00000
26.83200	796.00000
26.85400	803.00000
26.87600	776.00000
26.89800	793.00000
26.92000	745.00000
26.94200	764.00000
26.96400	767.00000
26.98600	699.00000
27.00800	740.00000
27.03000	799.00000
27.05200	766.00000
27.07400	749.00000
27.09600	773.00000
27.11800	777.00000
27.14000	800.00000
27.16200	767.00000
27.18400	717.00000
27.20600	724.00000
27.22800	779.00000
27.25000	720.00000
27.27200	733.00000
27.29400	775.00000
27.31600	786.00000
27.33800	804.00000
27.36000	857.00000
27.38200	1129.00000
27.40400	1491.00000
27.42600	1985.00000
27.44800	2656.00000
27.47000	3229.00000
27.49200	3570.00000
27.51400	3566.00000
27.53600	3162.00000
27.55800	2357.00000
27.58000	1836.00000
27.60200	1492.00000
27.62400	1117.00000
27.64600	914.00000
27.66800	732.00000
27.69000	711.00000
27.71200	628.00000
27.73400	687.00000
27.75600	621.00000
27.77800	664.00000
27.80000	615.00000
27.82200	664.00000
27.84400	620.00000
27.86600	621.00000
27.88800	613.00000
27.91000	649.00000
27.93200	607.00000
27.95400	616.00000
27.97600	649.00000
27.99800	608.00000
28.02000	594.00000
28.04200	625.00000
28.06400	621.00000
28.08600	591.00000
28.10800	646.00000
28.13000	630.00000
28.15200	651.00000
28.17400	648.00000
28.19600	598.00000
28.21800	682.00000
28.24000	671.00000
28.26200	715.00000
28.28400	781.00000
28.30600	941.00000
28.32800	1178.00000
28.35000	1480.00000
28.37200	1802.00000
28.39400	1851.00000
28.41600	1905.00000
28.43800	1679.00000
28.46000	1451.00000
28.48200	1216.00000
28.50400	1061.00000
28.52600	906.00000
28.54800	721.00000
28.57000	707.00000
28.59200	669.00000
28.61400	614.00000
28.63600	636.00000
28.65800	570.00000
28.68000	631.00000
28.70200	619.00000
28.72400	638.00000
28.74600	652.00000
28.76800	644.00000
28.79000	633.00000
28.81200	649.00000
28.83400	594.00000
28.85600	655.00000
28.87800	610.00000
28.90000	631.00000
28.92200	628.00000
28.94400	655.00000
28.96600	651.00000
28.98800	626.00000
29.01000	635.00000
29.03200	623.00000
29.05400	624.00000
29.07600	653.00000
29.09800	598.00000
29.12000	613.00000
29.14200	668.00000
29.16400	604.00000
29.18600	643.00000
29.20800	690.00000
29.23000	617.00000
29.25200	584.00000
29.27400	652.00000
29.29600	647.00000
29.31800	583.00000
29.34000	614.00000
29.36200	626.00000
29.38400	606.00000
29.40600	635.00000
29.42800	600.00000
29.45000	688.00000
29.47200	641.00000
29.49400	664.00000
29.51600	652.00000
29.53800	668.00000
29.56000	733.00000
29.58200	712.00000
29.60400	785.00000
29.62600	839.00000
29.64800	875.00000
29.67000	1137.00000
29.69200	1539.00000
29.71400	2303.00000
29.73600	3566.00000
29.75800	4838.00000
29.78000	5854.00000
29.80200	6300.00000
29.82400	6286.00000
29.84600	5539.00000
29.86800	4336.00000
29.89000	3180.00000
29.91200	2371.00000
29.93400	1641.00000
29.95600	1166.00000
29.97800	827.00000
30.00000	743.00000
30.02200	678.00000
30.04400	665.00000
30.06600	614.00000
30.08800	609.00000
30.11000	611.00000
30.13200	608.00000
30.15400	642.00000
30.17600	583.00000
30.19800	621.00000
30.22000	622.00000
30.24200	608.00000
30.26400	651.00000
30.28600	743.00000
30.30800	868.00000
30.33000	987.00000
30.35200	1118.00000
30.37400	1212.00000
30.39600	1191.00000
30.41800	1160.00000
30.44000	1025.00000
30.46200	856.00000
30.48400	776.00000
30.50600	731.00000
30.52800	610.00000
30.55000	592.00000
30.57200	633.00000
30.59400	590.00000
30.61600	570.00000
30.63800	572.00000
30.66000	573.00000
30.68200	569.00000
30.70400	568.00000
30.72600	580.00000
30.74800	564.00000
30.77000	594.00000
30.79200	584.00000
30.81400	590.00000
30.83600	571.00000
30.85800	579.00000
30.88000	591.00000
30.90200	559.00000
30.92400	552.00000
30.94600	507.00000
30.96800	547.00000
30.99000	503.00000
31.01200	464.00000
31.03400	511.00000
31.05600	504.00000
31.07800	535.00000
31.10000	507.00000
31.12200	523.00000
31.14400	509.00000
31.16600	505.00000
31.18800	547.00000
31.21000	490.00000
31.23200	478.00000
31.25400	493.00000
31.27600	513.00000
31.29800	528.00000
31.32000	520.00000
31.34200	486.00000
31.36400	486.00000
31.38600	559.00000
31.40800	522.00000
31.43000	508.00000
31.45200	483.00000
31.47400	510.00000
31.49600	490.00000
31.51800	491.00000
31.54000	513.00000
31.56200	534.00000
31.58400	544.00000
31.60600	562.00000
31.62800	546.00000
31.65000	582.00000
31.67200	588.00000
31.69400	724.00000
31.71600	944.00000
31.73800	1081.00000
31.76000	1157.00000
31.78200	1178.00000
31.80400	1239.00000
31.82600	1312.00000
31.84800	1107.00000
31.87000	919.00000
31.89200	774.00000
31.91400	724.00000
31.93600	628.00000
31.95800	580.00000
31.98000	570.00000
32.00200	498.00000
32.02400	554.00000
32.04600	520.00000
32.06800	568.00000
32.09000	549.00000
32.11200	604.00000
32.13400	630.00000
32.15600	627.00000
32.17800	605.00000
32.20000	618.00000
32.22200	555.00000
32.24400	528.00000
32.26600	518.00000
32.28800	500.00000
32.31000	485.00000
32.33200	483.00000
32.35400	499.00000
32.37600	532.00000
32.39800	469.00000
32.42000	534.00000
32.44200	493.00000
32.46400	502.00000
32.48600	493.00000
32.50800	465.00000
32.53000	516.00000
32.55200	505.00000
32.57400	530.00000
32.59600	509.00000
32.61800	523.00000
32.64000	529.00000
32.66200	569.00000
32.68400	602.00000
32.70600	809.00000
32.72800	1050.00000
32.75000	1227.00000
32.77200	1468.00000
32.79400	1675.00000
32.81600	1860.00000
32.83800	1880.00000
32.86000	1876.00000
32.88200	1592.00000
32.90400	1187.00000
32.92600	1029.00000
32.94800	883.00000
32.97000	759.00000
32.99200	635.00000
33.01400	526.00000
33.03600	479.00000
33.05800	521.00000
33.08000	515.00000
33.10200	498.00000
33.12400	515.00000
33.14600	477.00000
33.16800	493.00000
33.19000	492.00000
33.21200	486.00000
33.23400	471.00000
33.25600	492.00000
33.27800	457.00000
33.30000	444.00000
33.32200	469.00000
33.34400	486.00000
33.36600	520.00000
33.38800	455.00000
33.41000	494.00000
33.43200	491.00000
33.45400	456.00000
33.47600	496.00000
33.49800	485.00000
33.52000	489.00000
33.54200	502.00000
33.56400	517.00000
33.58600	466.00000
33.60800	518.00000
33.63000	534.00000
33.65200	520.00000
33.67400	518.00000
33.69600	555.00000
33.71800	561.00000
33.74000	571.00000
33.76200	625.00000
33.78400	644.00000
33.80600	821.00000
33.82800	1167.00000
33.85000	1781.00000
33.87200	2455.00000
33.89400	3114.00000
33.91600	3525.00000
33.93800	3624.00000
33.96000	3768.00000
33.98200	3302.00000
34.00400	2600.00000
34.02600	2004.00000
34.04800	1616.00000
34.07000	1257.00000
34.09200	912.00000
34.11400	662.00000
34.13600	563.00000
34.15800	547.00000
34.18000	505.00000
34.20200	475.00000
34.22400	468.00000
34.24600	485.00000
34.26800	505.00000
34.29000	456.00000
34.31200	502.00000
34.33400	452.00000
34.35600	473.00000
34.37800	451.00000
34.40000	436.00000
34.42200	447.00000
34.44400	450.00000
34.46600	420.00000
34.48800	464.00000
34.51000	422.00000
34.53200	428.00000
34.55400	388.00000
34.57600	408.00000
34.59800	424.00000
34.62000	434.00000
34.64200	398.00000
34.66400	394.00000
34.68600	447.00000
34.70800	391.00000
34.73000	413.00000
34.75200	409.00000
34.77400	390.00000
34.79600	409.00000
34.81800	381.00000
34.84000	357.00000
34.86200	402.00000
34.88400	404.00000
34.90600	405.00000
34.92800	354.00000
34.95000	343.00000
34.97200	406.00000
34.99400	418.00000
35.01600	431.00000
35.03800	405.00000
35.06000	416.00000
35.08200	390.00000
35.10400	421.00000
35.12600	386.00000
35.14800	393.00000
35.17000	392.00000
35.19200	402.00000
35.21400	405.00000
35.23600	388.00000
35.25800	357.00000
35.28000	382.00000
35.30200	376.00000
35.32400	374.00000
35.34600	420.00000
35.36800	376.00000
35.39000	389.00000
35.41200	404.00000
35.43400	380.00000
35.45600	408.00000
35.47800	345.00000
35.50000	374.00000
35.52200	345.00000
35.54400	380.00000
35.56600	356.00000
35.58800	363.00000
35.61000	351.00000
35.63200	359.00000
35.65400	355.00000
35.67600	367.00000
35.69800	373.00000
35.72000	382.00000
35.74200	339.00000
35.76400	373.00000
35.78600	376.00000
35.80800	397.00000
35.83000	373.00000
35.85200	409.00000
35.87400	360.00000
35.89600	400.00000
35.91800	385.00000
35.94000	376.00000
35.96200	378.00000
35.98400	368.00000
36.00600	361.00000
36.02800	419.00000
36.05000	379.00000
36.07200	427.00000
36.09400	382.00000
36.11600	386.00000
36.13800	391.00000
36.16000	417.00000
36.18200	390.00000
36.20400	393.00000
36.22600	392.00000
36.24800	419.00000
36.27000	379.00000
36.29200	379.00000
36.31400	410.00000
36.33600	422.00000
36.35800	387.00000
36.38000	361.00000
36.40200	371.00000
36.42400	393.00000
36.44600	366.00000
36.46800	371.00000
36.49000	402.00000
36.51200	363.00000
36.53400	376.00000
36.55600	362.00000
36.57800	402.00000
36.60000	407.00000
36.62200	382.00000
36.64400	385.00000
36.66600	377.00000
36.68800	350.00000
36.71000	356.00000
36.73200	391.00000
36.75400	372.00000
36.77600	353.00000
36.79800	376.00000
36.82000	393.00000
36.84200	367.00000
36.86400	372.00000
36.88600	388.00000
36.90800	379.00000
36.93000	379.00000
36.95200	396.00000
36.97400	394.00000
36.99600	393.00000
37.01800	416.00000
37.04000	439.00000
37.06200	483.00000
37.08400	543.00000
37.10600	590.00000
37.12800	729.00000
37.15000	762.00000
37.17200	947.00000
37.19400	1020.00000
37.21600	1166.00000
37.23800	1339.00000
37.26000	1587.00000
37.28200	1652.00000
37.30400	1639.00000
37.32600	1687.00000
37.34800	1598.00000
37.37000	1566.00000
37.39200	1155.00000
37.41400	1001.00000
37.43600	815.00000
37.45800	763.00000
37.48000	610.00000
37.50200	519.00000
37.52400	421.00000
37.54600	417.00000
37.56800	413.00000
37.59000	411.00000
37.61200	373.00000
37.63400	362.00000
37.65600	384.00000
37.67800	376.00000
37.70000	400.00000
37.72200	381.00000
37.74400	385.00000
37.76600	417.00000
37.78800	429.00000
37.81000	442.00000
37.83200	474.00000
37.85400	476.00000
37.87600	594.00000
37.89800	832.00000
37.92000	1171.00000
37.94200	1513.00000
37.96400	1837.00000
37.98600	2032.00000
38.00800	2234.00000
38.03000	2164.00000
38.05200	2094.00000
38.07400	1627.00000
38.09600	1320.00000
38.11800	1126.00000
38.14000	960.00000
38.16200	731.00000
38.18400	543.00000
38.20600	463.00000
38.22800	407.00000
38.25000	389.00000
38.27200	387.00000
38.29400	372.00000
38.31600	411.00000
38.33800	368.00000
38.36000	372.00000
38.38200	387.00000
38.40400	394.00000
38.42600	385.00000
38.44800	343.00000
38.47000	375.00000
38.49200	392.00000
38.51400	341.00000
38.53600	343.00000
38.55800	388.00000
38.58000	356.00000
38.60200	356.00000
38.62400	344.00000
38.64600	349.00000
38.66800	359.00000
38.69000	373.00000
38.71200	357.00000
38.73400	358.00000
38.75600	332.00000
38.77800	321.00000
38.80000	332.00000
38.82200	329.00000
38.84400	336.00000
38.86600	333.00000
38.88800	331.00000
38.91000	319.00000
38.93200	337.00000
38.95400	322.00000
38.97600	327.00000
38.99800	313.00000
39.02000	329.00000
39.04200	314.00000
39.06400	333.00000
39.08600	315.00000
39.10800	363.00000
39.13000	336.00000
39.15200	330.00000
39.17400	322.00000
39.19600	334.00000
39.21800	306.00000
39.24000	316.00000
39.26200	331.00000
39.28400	322.00000
39.30600	330.00000
39.32800	310.00000
39.35000	324.00000
39.37200	337.00000
39.39400	297.00000
39.41600	314.00000
39.43800	305.00000
39.46000	307.00000
39.48200	304.00000
39.50400	308.00000
39.52600	307.00000
39.54800	358.00000
39.57000	334.00000
39.59200	331.00000
39.61400	323.00000
39.63600	357.00000
39.65800	325.00000
39.68000	341.00000
39.70200	309.00000
39.72400	326.00000
39.74600	344.00000
39.76800	290.00000
39.79000	328.00000
39.81200	320.00000
39.83400	314.00000
39.85600	328.00000
39.87800	332.00000
39.90000	309.00000
39.92200	324.00000
39.94400	308.00000
39.96600	321.00000
39.98800	280.00000
40.01000	327.00000
40.03200	337.00000
40.05400	290.00000
40.07600	365.00000
40.09800	325.00000
40.12000	318.00000
40.14200	320.00000
40.16400	312.00000
40.18600	312.00000
40.20800	325.00000
40.23000	342.00000
40.25200	300.00000
40.27400	355.00000
40.29600	354.00000
40.31800	333.00000
40.34000	337.00000
40.36200	324.00000
40.38400	323.00000
40.40600	363.00000
40.42800	342.00000
40.45000	370.00000
40.47200	350.00000
40.49400	394.00000
40.51600	417.00000
40.53800	419.00000
40.56000	438.00000
40.58200	469.00000
40.60400	448.00000
40.62600	454.00000
40.64800	429.00000
40.67000	434.00000
40.69200	360.00000
40.71400	388.00000
40.73600	361.00000
40.75800	303.00000
40.78000	363.00000
40.80200	356.00000
40.82400	325.00000
40.84600	351.00000
40.86800	310.00000
40.89000	327.00000
40.91200	331.00000
40.93400	308.00000
40.95600	314.00000
40.97800	341.00000
41.00000	325.00000
41.02200	328.00000
41.04400	313.00000
41.06600	359.00000
41.08800	303.00000
41.11000	313.00000
41.13200	356.00000
41.15400	315.00000
41.17600	320.00000
41.19800	304.00000
41.22000	316.00000
41.24200	357.00000
41.26400	334.00000
41.28600	346.00000
41.30800	358.00000
41.33000	340.00000
41.35200	323.00000
41.37400	330.00000
41.39600	344.00000
41.41800	359.00000
41.44000	363.00000
41.46200	383.00000
41.48400	366.00000
41.50600	484.00000
41.52800	600.00000
41.55000	729.00000
41.57200	858.00000
41.59400	920.00000
41.61600	1017.00000
41.63800	1058.00000
41.66000	1022.00000
41.68200	919.00000
41.70400	687.00000
41.72600	645.00000
41.74800	599.00000
41.77000	551.00000
41.79200	492.00000
41.81400	439.00000
41.83600	387.00000
41.85800	382.00000
41.88000	337.00000
41.90200	370.00000
41.92400	375.00000
41.94600	437.00000
41.96800	466.00000
41.99000	532.00000
42.01200	554.00000
42.03400	548.00000
42.05600	590.00000
42.07800	594.00000
42.10000	589.00000
42.12200	515.00000
42.14400	485.00000
42.16600	443.00000
42.18800	443.00000
42.21000	406.00000
42.23200	426.00000
42.25400	363.00000
42.27600	361.00000
42.29800	373.00000
42.32000	347.00000
42.34200	387.00000
42.36400	369.00000
42.38600	371.00000
42.40800	404.00000
42.43000	463.00000
42.45200	495.00000
42.47400	501.00000
42.49600	617.00000
42.51800	794.00000
42.54000	1056.00000
42.56200	1378.00000
42.58400	1594.00000
42.60600	1679.00000
42.62800	1693.00000
42.65000	1825.00000
42.67200	1889.00000
42.69400	1589.00000
42.71600	1229.00000
42.73800	976.00000
42.76000	882.00000
42.78200	835.00000
42.80400	657.00000
42.82600	539.00000
42.84800	438.00000
42.87000	401.00000
42.89200	377.00000
42.91400	339.00000
42.93600	383.00000
42.95800	371.00000
42.98000	447.00000
43.00200	498.00000
43.02400	531.00000
43.04600	538.00000
43.06800	570.00000
43.09000	565.00000
43.11200	530.00000
43.13400	501.00000
43.15600	460.00000
43.17800	417.00000
43.20000	434.00000
43.22200	390.00000
43.24400	399.00000
43.26600	382.00000
43.28800	384.00000
43.31000	433.00000
43.33200	494.00000
43.35400	532.00000
43.37600	532.00000
43.39800	572.00000
43.42000	606.00000
43.44200	604.00000
43.46400	536.00000
43.48600	535.00000
43.50800	453.00000
43.53000	448.00000
43.55200	424.00000
43.57400	444.00000
43.59600	381.00000
43.61800	337.00000
43.64000	305.00000
43.66200	344.00000
43.68400	342.00000
43.70600	329.00000
43.72800	309.00000
43.75000	324.00000
43.77200	310.00000
43.79400	339.00000
43.81600	323.00000
43.83800	300.00000
43.86000	305.00000
43.88200	305.00000
43.90400	329.00000
43.92600	309.00000
43.94800	344.00000
43.97000	302.00000
43.99200	350.00000
44.01400	312.00000
44.03600	339.00000
44.05800	341.00000
44.08000	323.00000
44.10200	324.00000
44.12400	332.00000
44.14600	412.00000
44.16800	435.00000
44.19000	496.00000
44.21200	454.00000
44.23400	494.00000
44.25600	568.00000
44.27800	645.00000
44.30000	717.00000
44.32200	730.00000
44.34400	653.00000
44.36600	724.00000
44.38800	683.00000
44.41000	598.00000
44.43200	581.00000
44.45400	534.00000
44.47600	473.00000
44.49800	446.00000
44.52000	383.00000
44.54200	383.00000
44.56400	360.00000
44.58600	326.00000
44.60800	323.00000
44.63000	320.00000
44.65200	343.00000
44.67400	355.00000
44.69600	405.00000
44.71800	432.00000
44.74000	485.00000
44.76200	564.00000
44.78400	683.00000
44.80600	817.00000
44.82800	925.00000
44.85000	1111.00000
44.87200	1178.00000
44.89400	1172.00000
44.91600	1250.00000
44.93800	1271.00000
44.96000	1187.00000
44.98200	968.00000
45.00400	779.00000
45.02600	681.00000
45.04800	640.00000
45.07000	554.00000
45.09200	510.00000
45.11400	409.00000
45.13600	340.00000
45.15800	347.00000
45.18000	323.00000
45.20200	272.00000
45.22400	311.00000
45.24600	305.00000
45.26800	285.00000
45.29000	294.00000
45.31200	288.00000
45.33400	278.00000
45.35600	302.00000
45.37800	278.00000
45.40000	262.00000
45.42200	272.00000
45.44400	286.00000
45.46600	264.00000
45.48800	302.00000
45.51000	285.00000
45.53200	279.00000
45.55400	273.00000
45.57600	300.00000
45.59800	300.00000
45.62000	300.00000
45.64200	305.00000
45.66400	327.00000
45.68600	280.00000
45.70800	294.00000
45.73000	266.00000
45.75200	301.00000
45.77400	303.00000
45.79600	294.00000
45.81800	307.00000
45.84000	299.00000
45.86200	306.00000
45.88400	279.00000
45.90600	293.00000
45.92800	285.00000
45.95000	277.00000
45.97200	261.00000
45.99400	277.00000
46.01600	276.00000
46.03800	272.00000
46.06000	278.00000
46.08200	237.00000
46.10400	273.00000
46.12600	279.00000
46.14800	272.00000
46.17000	283.00000
46.19200	287.00000
46.21400	308.00000
46.23600	249.00000
46.25800	258.00000
46.28000	268.00000
46.30200	282.00000
46.32400	277.00000
46.34600	254.00000
46.36800	263.00000
46.39000	284.00000
46.41200	274.00000
46.43400	270.00000
46.45600	268.00000
46.47800	264.00000
46.50000	264.00000
46.52200	296.00000
46.54400	272.00000
46.56600	257.00000
46.58800	252.00000
46.61000	288.00000
46.63200	284.00000
46.65400	306.00000
46.67600	303.00000
46.69800	299.00000
46.72000	333.00000
46.74200	330.00000
46.76400	340.00000
46.78600	380.00000
46.80800	343.00000
46.83000	438.00000
46.85200	419.00000
46.87400	432.00000
46.89600	461.00000
46.91800	408.00000
46.94000	439.00000
46.96200	453.00000
46.98400	392.00000
47.00600	361.00000
47.02800	389.00000
47.05000	362.00000
47.07200	328.00000
47.09400	325.00000
47.11600	320.00000
47.13800	321.00000
47.16000	316.00000
47.18200	254.00000
47.20400	279.00000
47.22600	289.00000
47.24800	280.00000
47.27000	252.00000
47.29200	282.00000
47.31400	289.00000
47.33600	283.00000
47.35800	242.00000
47.38000	290.00000
47.40200	285.00000
47.42400	260.00000
47.44600	249.00000
47.46800	278.00000
47.49000	279.00000
47.51200	310.00000
47.53400	265.00000
47.55600	265.00000
47.57800	279.00000
47.60000	276.00000
47.62200	299.00000
47.64400	276.00000
47.66600	271.00000
47.68800	262.00000
47.71000	280.00000
47.73200	283.00000
47.75400	243.00000
47.77600	250.00000
47.79800	279.00000
47.82000	280.00000
47.84200	258.00000
47.86400	253.00000
47.88600	284.00000
47.90800	269.00000
47.93000	263.00000
47.95200	263.00000
47.97400	233.00000
47.99600	264.00000
48.01800	267.00000
48.04000	277.00000
48.06200	274.00000
48.08400	233.00000
48.10600	260.00000
48.12800	293.00000
48.15000	281.00000
48.17200	283.00000
48.19400	254.00000
48.21600	296.00000
48.23800	311.00000
48.26000	289.00000
48.28200	304.00000
48.30400	343.00000
48.32600	384.00000
48.34800	461.00000
48.37000	609.00000
48.39200	694.00000
48.41400	755.00000
48.43600	788.00000
48.45800	842.00000
48.48000	868.00000
48.50200	887.00000
48.52400	753.00000
48.54600	592.00000
48.56800	553.00000
48.59000	495.00000
48.61200	539.00000
48.63400	479.00000
48.65600	421.00000
48.67800	346.00000
48.70000	312.00000
48.72200	305.00000
48.74400	271.00000
48.76600	264.00000
48.78800	267.00000
48.81000	256.00000
48.83200	289.00000
48.85400	273.00000
48.87600	283.00000
48.89800	276.00000
48.92000	275.00000
48.94200	264.00000
48.96400	273.00000
48.98600	260.00000
49.00800	277.00000
49.03000	261.00000
49.05200	263.00000
49.07400	260.00000
49.09600	287.00000
49.11800	287.00000
49.14000	256.00000
49.16200	270.00000
49.18400	272.00000
49.20600	282.00000
49.22800	268.00000
49.25000	249.00000
49.27200	286.00000
49.29400	244.00000
49.31600	261.00000
49.33800	269.00000
49.36000	278.00000
49.38200	275.00000
49.40400	299.00000
49.42600	295.00000
49.44800	301.00000
49.47000	272.00000
49.49200	272.00000
49.51400	290.00000
49.53600	285.00000
49.55800	295.00000
49.58000	326.00000
49.60200	257.00000
49.62400	341.00000
49.64600	292.00000
49.66800	331.00000
49.69000	269.00000
49.71200	308.00000
49.73400	295.00000
49.75600	316.00000
49.77800	321.00000
49.80000	340.00000
49.82200	342.00000
49.84400	305.00000
49.86600	351.00000
49.88800	324.00000
49.91000	344.00000
49.93200	342.00000
49.95400	400.00000
49.97600	416.00000
49.99800	461.00000
50.02000	560.00000
50.04200	605.00000
50.06400	641.00000
50.08600	645.00000
50.10800	661.00000
50.13000	713.00000
50.15200	624.00000
50.17400	545.00000
50.19600	461.00000
50.21800	459.00000
50.24000	442.00000
50.26200	448.00000
50.28400	366.00000
50.30600	378.00000
50.32800	316.00000
50.35000	295.00000
50.37200	317.00000
50.39400	331.00000
50.41600	319.00000
50.43800	312.00000
50.46000	321.00000
50.48200	340.00000
50.50400	333.00000
50.52600	325.00000
50.54800	365.00000
50.57000	345.00000
50.59200	367.00000
50.61400	358.00000
50.63600	362.00000
50.65800	377.00000
50.68000	437.00000
50.70200	436.00000
50.72400	587.00000
50.74600	766.00000
50.76800	967.00000
50.79000	1054.00000
50.81200	1172.00000
50.83400	1260.00000
50.85600	1358.00000
50.87800	1353.00000
50.90000	1227.00000
50.92200	1007.00000
50.94400	743.00000
50.96600	708.00000
50.98800	714.00000
51.01000	743.00000
51.03200	597.00000
51.05400	541.00000
51.07600	441.00000
51.09800	421.00000
51.12000	348.00000
51.14200	341.00000
51.16400	367.00000
51.18600	344.00000
51.20800	355.00000
51.23000	338.00000
51.25200	322.00000
51.27400	320.00000
51.29600	293.00000
51.31800	313.00000
51.34000	290.00000
51.36200	342.00000
51.38400	369.00000
51.40600	392.00000
51.42800	410.00000
51.45000	446.00000
51.47200	443.00000
51.49400	443.00000
51.51600	449.00000
51.53800	391.00000
51.56000	396.00000
51.58200	369.00000
51.60400	350.00000
51.62600	325.00000
51.64800	346.00000
51.67000	305.00000
51.69200	295.00000
51.71400	311.00000
51.73600	298.00000
51.75800	267.00000
51.78000	255.00000
51.80200	270.00000
51.82400	304.00000
51.84600	264.00000
51.86800	263.00000
51.89000	255.00000
51.91200	254.00000
51.93400	283.00000
51.95600	254.00000
51.97800	288.00000
52.00000	286.00000
52.02200	279.00000
52.04400	281.00000
52.06600	241.00000
52.08800	282.00000
52.11000	277.00000
52.13200	287.00000
52.15400	243.00000
52.17600	308.00000
52.19800	253.00000
52.22000	277.00000
52.24200	317.00000
52.26400	326.00000
52.28600	336.00000
52.30800	407.00000
52.33000	384.00000
52.35200	449.00000
52.37400	400.00000
52.39600	390.00000
52.41800	384.00000
52.44000	416.00000
52.46200	414.00000
52.48400	375.00000
52.50600	391.00000
52.52800	380.00000
52.55000	364.00000
52.57200	340.00000
52.59400	310.00000
52.61600	315.00000
52.63800	319.00000
52.66000	294.00000
52.68200	298.00000
52.70400	264.00000
52.72600	301.00000
52.74800	271.00000
52.77000	265.00000
52.79200	287.00000
52.81400	270.00000
52.83600	282.00000
52.85800	279.00000
52.88000	303.00000
52.90200	340.00000
52.92400	427.00000
52.94600	407.00000
52.96800	414.00000
52.99000	445.00000
53.01200	472.00000
53.03400	482.00000
53.05600	487.00000
53.07800	387.00000
53.10000	389.00000
53.12200	351.00000
53.14400	359.00000
53.16600	347.00000
53.18800	373.00000
53.21000	340.00000
53.23200	292.00000
53.25400	321.00000
53.27600	282.00000
53.29800	281.00000
53.32000	285.00000
53.34200	276.00000
53.36400	248.00000
53.38600	239.00000
53.40800	253.00000
53.43000	235.00000
53.45200	298.00000
53.47400	254.00000
53.49600	278.00000
53.51800	241.00000
53.54000	260.00000
53.56200	261.00000
53.58400	285.00000
53.60600	250.00000
53.62800	275.00000
53.65000	284.00000
53.67200	250.00000
53.69400	298.00000
53.71600	234.00000
53.73800	251.00000
53.76000	265.00000
53.78200	263.00000
53.80400	306.00000
53.82600	265.00000
53.84800	259.00000
53.87000	273.00000
53.89200	284.00000
53.91400	281.00000
53.93600	293.00000
53.95800	268.00000
53.98000	292.00000
54.00200	254.00000
54.02400	277.00000
54.04600	291.00000
54.06800	274.00000
54.09000	280.00000
54.11200	299.00000
54.13400	362.00000
54.15600	372.00000
54.17800	416.00000
54.20000	491.00000
54.22200	493.00000
54.24400	551.00000
54.26600	594.00000
54.28800	667.00000
54.31000	716.00000
54.33200	700.00000
54.35400	655.00000
54.37600	598.00000
54.39800	652.00000
54.42000	598.00000
54.44200	527.00000
54.46400	463.00000
54.48600	433.00000
54.50800	407.00000
54.53000	424.00000
54.55200	377.00000
54.57400	313.00000
54.59600	334.00000
54.61800	312.00000
54.64000	282.00000
54.66200	296.00000
54.68400	259.00000
54.70600	230.00000
54.72800	255.00000
54.75000	267.00000
54.77200	287.00000
54.79400	314.00000
54.81600	270.00000
54.83800	277.00000
54.86000	271.00000
54.88200	286.00000
54.90400	271.00000
54.92600	268.00000
54.94800	275.00000
54.97000	304.00000
54.99200	298.00000
55.01400	261.00000
55.03600	244.00000
55.05800	270.00000
55.08000	285.00000
55.10200	299.00000
55.12400	273.00000
55.14600	276.00000
55.16800	276.00000
55.19000	244.00000
55.21200	281.00000
55.23400	283.00000
55.25600	282.00000
55.27800	277.00000
55.30000	265.00000
55.32200	298.00000
55.34400	237.00000
55.36600	298.00000
55.38800	303.00000
55.41000	331.00000
55.43200	357.00000
55.45400	395.00000
55.47600	435.00000
55.49800	458.00000
55.52000	491.00000
55.54200	572.00000
55.56400	574.00000
55.58600	567.00000
55.60800	569.00000
55.63000	560.00000
55.65200	459.00000
55.67400	421.00000
55.69600	393.00000
55.71800	414.00000
55.74000	366.00000
55.76200	362.00000
55.78400	341.00000
55.80600	313.00000
55.82800	309.00000
55.85000	286.00000
55.87200	254.00000
55.89400	241.00000
55.91600	255.00000
55.93800	220.00000
55.96000	283.00000
55.98200	244.00000
56.00400	291.00000
56.02600	281.00000
56.04800	271.00000
56.07000	286.00000
56.09200	239.00000
56.11400	284.00000
56.13600	250.00000
56.15800	274.00000
56.18000	268.00000
56.20200	290.00000
56.22400	257.00000
56.24600	269.00000
56.26800	276.00000
56.29000	248.00000
56.31200	303.00000
56.33400	301.00000
56.35600	290.00000
56.37800	314.00000
56.40000	301.00000
56.42200	335.00000
56.44400	388.00000
56.46600	483.00000
56.48800	543.00000
56.51000	585.00000
56.53200	728.00000
56.55400	779.00000
56.57600	848.00000
56.59800	819.00000
56.62000	915.00000
56.64200	834.00000
56.66400	671.00000
56.68600	604.00000
56.70800	510.00000
56.73000	498.00000
56.75200	563.00000
56.77400	494.00000
56.79600	475.00000
56.81800	380.00000
56.84000	345.00000
56.86200	326.00000
56.88400	310.00000
56.90600	307.00000
56.92800	327.00000
56.95000	281.00000
56.97200	288.00000
56.99400	276.00000
57.01600	273.00000
57.03800	248.00000
57.06000	299.00000
57.08200	287.00000
57.10400	259.00000
57.12600	305.00000
57.14800	250.00000
57.17000	282.00000
57.19200	285.00000
57.21400	297.00000
57.23600	255.00000
57.25800	309.00000
57.28000	240.00000
57.30200	265.00000
57.32400	265.00000
57.34600	276.00000
57.36800	268.00000
57.39000	275.00000
57.41200	256.00000
57.43400	311.00000
57.45600	281.00000
57.47800	263.00000
57.50000	267.00000
57.52200	250.00000
57.54400	254.00000
57.56600	277.00000
57.58800	256.00000
57.61000	244.00000
57.63200	268.00000
57.65400	254.00000
57.67600	294.00000
57.69800	285.00000
57.72000	271.00000
57.74200	257.00000
57.76400	254.00000
57.78600	285.00000
57.80800	237.00000
57.83000	264.00000
57.85200	251.00000
57.87400	258.00000
57.89600	260.00000
57.91800	246.00000
57.94000	275.00000
57.96200	239.00000
57.98400	255.00000
58.00600	239.00000
58.02800	265.00000
58.05000	275.00000
58.07200	254.00000
58.09400	278.00000
58.11600	291.00000
58.13800	267.00000
58.16000	282.00000
58.18200	275.00000
58.20400	279.00000
58.22600	289.00000
58.24800	272.00000
58.27000	296.00000
58.29200	317.00000
58.31400	349.00000
58.33600	371.00000
58.35800	385.00000
58.38000	439.00000
58.40200	482.00000
58.42400	502.00000
58.44600	524.00000
58.46800	521.00000
58.49000	458.00000
58.51200	415.00000
58.53400	386.00000
58.55600	394.00000
58.57800	430.00000
58.60000	417.00000
58.62200	442.00000
58.64400	422.00000
58.66600	422.00000
58.68800	415.00000
58.71000	464.00000
58.73200	385.00000
58.75400	349.00000
58.77600	364.00000
58.79800	307.00000
58.82000	326.00000
58.84200	300.00000
58.86400	292.00000
58.88600	342.00000
58.90800	304.00000
58.93000	300.00000
58.95200	260.00000
58.97400	260.00000
58.99600	273.00000
59.01800	316.00000
59.04000	263.00000
59.06200	276.00000
59.08400	264.00000
59.10600	267.00000
59.12800	289.00000
59.15000	265.00000
59.17200	274.00000
59.19400	279.00000
59.21600	301.00000
59.23800	320.00000
59.26000	354.00000
59.28200	404.00000
59.30400	439.00000
59.32600	447.00000
59.34800	436.00000
59.37000	481.00000
59.39200	507.00000
59.41400	510.00000
59.43600	464.00000
59.45800	436.00000
59.48000	399.00000
59.50200	365.00000
59.52400	389.00000
59.54600	338.00000
59.56800	339.00000
59.59000	354.00000
59.61200	300.00000
59.63400	328.00000
59.65600	273.00000
59.67800	289.00000
59.70000	275.00000
59.72200	247.00000
59.74400	298.00000
59.76600	302.00000
59.78800	271.00000
59.81000	289.00000
59.83200	305.00000
59.85400	279.00000
59.87600	298.00000
59.89800	282.00000
59.92000	261.00000
59.94200	251.00000
59.96400	274.00000
59.98600	294.00000
60.00800	255.00000
60.03000	286.00000
60.05200	276.00000
60.07400	253.00000
60.09600	291.00000
60.11800	299.00000
60.14000	287.00000
60.16200	290.00000
60.18400	251.00000
60.20600	263.00000
60.22800	270.00000
60.25000	280.00000
60.27200	271.00000
60.29400	294.00000
60.31600	293.00000
60.33800	266.00000
60.36000	284.00000
60.38200	253.00000
60.40400	263.00000
60.42600	262.00000
60.44800	292.00000
60.47000	295.00000
60.49200	281.00000
60.51400	263.00000
60.53600	295.00000
60.55800	314.00000
60.58000	287.00000
60.60200	277.00000
60.62400	273.00000
60.64600	285.00000
60.66800	287.00000
60.69000	304.00000
60.71200	334.00000
60.73400	326.00000
60.75600	332.00000
60.77800	376.00000
60.80000	384.00000
60.82200	476.00000
60.84400	522.00000
60.86600	564.00000
60.88800	607.00000
60.91000	562.00000
60.93200	572.00000
60.95400	575.00000
60.97600	544.00000
60.99800	488.00000
61.02000	459.00000
61.04200	445.00000
61.06400	407.00000
61.08600	438.00000
61.10800	404.00000
61.13000	369.00000
61.15200	346.00000
61.17400	295.00000
61.19600	304.00000
61.21800	303.00000
61.24000	265.00000
61.26200	277.00000
61.28400	317.00000
61.30600	271.00000
61.32800	287.00000
61.35000	281.00000
61.37200	288.00000
61.39400	289.00000
61.41600	312.00000
61.43800	290.00000
61.46000	290.00000
61.48200	297.00000
61.50400	304.00000
61.52600	271.00000
61.54800	287.00000
61.57000	350.00000
61.59200	296.00000
61.61400	344.00000
61.63600	345.00000
61.65800	382.00000
61.68000	359.00000
61.70200	429.00000
61.72400	417.00000
61.74600	502.00000
61.76800	600.00000
61.79000	656.00000
61.81200	700.00000
61.83400	776.00000
61.85600	831.00000
61.87800	889.00000
61.90000	824.00000
61.92200	780.00000
61.94400	647.00000
61.96600	551.00000
61.98800	501.00000
62.01000	481.00000
62.03200	467.00000
62.05400	472.00000
62.07600	445.00000
62.09800	429.00000
62.12000	351.00000
62.14200	308.00000
62.16400	306.00000
62.18600	272.00000
62.20800	309.00000
62.23000	269.00000
62.25200	290.00000
62.27400	272.00000
62.29600	277.00000
62.31800	250.00000
62.34000	268.00000
62.36200	300.00000
62.38400	279.00000
62.40600	273.00000
62.42800	277.00000
62.45000	273.00000
62.47200	289.00000
62.49400	271.00000
62.51600	288.00000
62.53800	282.00000
62.56000	262.00000
62.58200	296.00000
62.60400	291.00000
62.62600	281.00000
62.64800	275.00000
62.67000	275.00000
62.69200	280.00000
62.71400	294.00000
62.73600	260.00000
62.75800	272.00000
62.78000	257.00000
62.80200	250.00000
62.82400	243.00000
62.84600	271.00000
62.86800	259.00000
62.89000	283.00000
62.91200	284.00000
62.93400	277.00000
62.95600	294.00000
62.97800	287.00000
63.00000	289.00000
63.02200	325.00000
63.04400	293.00000
63.06600	317.00000
63.08800	302.00000
63.11000	318.00000
63.13200	287.00000
63.15400	296.00000
63.17600	295.00000
63.19800	308.00000
63.22000	320.00000
63.24200	302.00000
63.26400	321.00000
63.28600	258.00000
63.30800	277.00000
63.33000	283.00000
63.35200	321.00000
63.37400	304.00000
63.39600	329.00000
63.41800	330.00000
63.44000	366.00000
63.46200	391.00000
63.48400	444.00000
63.50600	426.00000
63.52800	411.00000
63.55000	432.00000
63.57200	452.00000
63.59400	405.00000
63.61600	437.00000
63.63800	364.00000
63.66000	418.00000
63.68200	370.00000
63.70400	327.00000
63.72600	316.00000
63.74800	275.00000
63.77000	294.00000
63.79200	299.00000
63.81400	285.00000
63.83600	263.00000
63.85800	279.00000
63.88000	239.00000
63.90200	270.00000
63.92400	243.00000
63.94600	251.00000
63.96800	224.00000
63.99000	241.00000
64.01200	251.00000
64.03400	254.00000
64.05600	254.00000
64.07800	237.00000
64.10000	278.00000
64.12200	219.00000
64.14400	263.00000
64.16600	274.00000
64.18800	267.00000
64.21000	234.00000
64.23200	265.00000
64.25400	278.00000
64.27600	259.00000
64.29800	240.00000
64.32000	269.00000
64.34200	256.00000
64.36400	294.00000
64.38600	236.00000
64.40800	262.00000
64.43000	255.00000
64.45200	242.00000
64.47400	266.00000
64.49600	254.00000
64.51800	255.00000
64.54000	248.00000
64.56200	237.00000
64.58400	262.00000
64.60600	250.00000
64.62800	253.00000
64.65000	257.00000
64.67200	264.00000
64.69400	234.00000
64.71600	239.00000
64.73800	235.00000
64.76000	251.00000
64.78200	248.00000
64.80400	280.00000
64.82600	235.00000
64.84800	252.00000
64.87000	271.00000
64.89200	242.00000
64.91400	261.00000
64.93600	291.00000
64.95800	246.00000
64.98000	249.00000
65.00200	248.00000
65.02400	254.00000
65.04600	259.00000
65.06800	293.00000
65.09000	264.00000
65.11200	249.00000
65.13400	286.00000
65.15600	323.00000
65.17800	293.00000
65.20000	314.00000
65.22200	366.00000
65.24400	362.00000
65.26600	368.00000
65.28800	391.00000
65.31000	369.00000
65.33200	380.00000
65.35400	366.00000
65.37600	368.00000
65.39800	378.00000
65.42000	344.00000
65.44200	395.00000
65.46400	335.00000
65.48600	345.00000
65.50800	317.00000
65.53000	287.00000
65.55200	320.00000
65.57400	317.00000
65.59600	301.00000
65.61800	288.00000
65.64000	299.00000
65.66200	238.00000
65.68400	235.00000
65.70600	231.00000
65.72800	261.00000
65.75000	281.00000
65.77200	255.00000
65.79400	216.00000
65.81600	236.00000
65.83800	208.00000
65.86000	256.00000
65.88200	265.00000
65.90400	250.00000
65.92600	266.00000
65.94800	258.00000
65.97000	248.00000
65.99200	235.00000
66.01400	231.00000
66.03600	247.00000
66.05800	229.00000
66.08000	257.00000
66.10200	241.00000
66.12400	238.00000
66.14600	264.00000
66.16800	236.00000
66.19000	252.00000
66.21200	273.00000
66.23400	303.00000
66.25600	322.00000
66.27800	313.00000
66.30000	334.00000
66.32200	402.00000
66.34400	364.00000
66.36600	398.00000
66.38800	357.00000
66.41000	384.00000
66.43200	361.00000
66.45400	305.00000
66.47600	300.00000
66.49800	293.00000
66.52000	314.00000
66.54200	282.00000
66.56400	314.00000
66.58600	292.00000
66.60800	284.00000
66.63000	275.00000
66.65200	280.00000
66.67400	229.00000
66.69600	220.00000
66.71800	239.00000
66.74000	275.00000
66.76200	264.00000
66.78400	239.00000
66.80600	248.00000
66.82800	294.00000
66.85000	330.00000
66.87200	355.00000
66.89400	345.00000
66.91600	426.00000
66.93800	410.00000
66.96000	441.00000
66.98200	411.00000
67.00400	348.00000
67.02600	357.00000
67.04800	335.00000
67.07000	356.00000
67.09200	373.00000
67.11400	382.00000
67.13600	443.00000
67.15800	375.00000
67.18000	394.00000
67.20200	376.00000
67.22400	367.00000
67.24600	369.00000
67.26800	351.00000
67.29000	310.00000
67.31200	318.00000
67.33400	370.00000
67.35600	358.00000
67.37800	359.00000
67.40000	367.00000
67.42200	376.00000
67.44400	347.00000
67.46600	370.00000
67.48800	370.00000
67.51000	329.00000
67.53200	306.00000
67.55400	296.00000
67.57600	264.00000
67.59800	300.00000
67.62000	286.00000
67.64200	306.00000
67.66400	297.00000
67.68600	314.00000
67.70800	281.00000
67.73000	298.00000
67.75200	293.00000
67.77400	265.00000
67.79600	272.00000
67.81800	314.00000
67.84000	282.00000
67.86200	259.00000
67.88400	251.00000
67.90600	245.00000
67.92800	258.00000
67.95000	283.00000
67.97200	239.00000
67.99400	285.00000
68.01600	242.00000
68.03800	269.00000
68.06000	238.00000
68.08200	240.00000
68.10400	236.00000
68.12600	227.00000
68.14800	244.00000
68.17000	246.00000
68.19200	248.00000
68.21400	262.00000
68.23600	231.00000
68.25800	221.00000
68.28000	224.00000
68.30200	255.00000
68.32400	246.00000
68.34600	228.00000
68.36800	240.00000
68.39000	249.00000
68.41200	236.00000
68.43400	232.00000
68.45600	226.00000
68.47800	214.00000
68.50000	238.00000
68.52200	232.00000
68.54400	230.00000
68.56600	250.00000
68.58800	233.00000
68.61000	231.00000
68.63200	261.00000
68.65400	234.00000
68.67600	235.00000
68.69800	261.00000
68.72000	236.00000
68.74200	235.00000
68.76400	250.00000
68.78600	245.00000
68.80800	261.00000
68.83000	236.00000
68.85200	241.00000
68.87400	220.00000
68.89600	257.00000
68.91800	241.00000
68.94000	226.00000
68.96200	217.00000
68.98400	256.00000
69.00600	239.00000
69.02800	238.00000
69.05000	217.00000
69.07200	273.00000
69.09400	216.00000
69.11600	240.00000
69.13800	220.00000
69.16000	228.00000
69.18200	248.00000
69.20400	257.00000
69.22600	235.00000
69.24800	248.00000
69.27000	240.00000
69.29200	240.00000
69.31400	284.00000
69.33600	259.00000
69.35800	277.00000
69.38000	306.00000
69.40200	286.00000
69.42400	300.00000
69.44600	323.00000
69.46800	301.00000
69.49000	307.00000
69.51200	255.00000
69.53400	281.00000
69.55600	286.00000
69.57800	284.00000
69.60000	283.00000
69.62200	275.00000
69.64400	270.00000
69.66600	289.00000
69.68800	269.00000
69.71000	278.00000
69.73200	234.00000
69.75400	253.00000
69.77600	279.00000
69.79800	283.00000
69.82000	266.00000
69.84200	295.00000
69.86400	291.00000
69.88600	302.00000
69.90800	300.00000
69.93000	305.00000
69.95200	314.00000
69.97400	314.00000
69.99600	304.00000
70.01800	300.00000
70.04000	268.00000
70.06200	276.00000
70.08400	243.00000
70.10600	283.00000
70.12800	306.00000
70.15000	285.00000
70.17200	310.00000
70.19400	286.00000
70.21600	343.00000
70.23800	294.00000
70.26000	294.00000
70.28200	295.00000
70.30400	339.00000
70.32600	305.00000
70.34800	310.00000
70.37000	313.00000
70.39200	275.00000
70.41400	252.00000
70.43600	290.00000
70.45800	291.00000
70.48000	279.00000
70.50200	283.00000
70.52400	284.00000
70.54600	250.00000
70.56800	261.00000
70.59000	267.00000
70.61200	257.00000
70.63400	264.00000
70.65600	275.00000
70.67800	279.00000
70.70000	255.00000
70.72200	300.00000
70.74400	304.00000
70.76600	301.00000
70.78800	280.00000
70.81000	287.00000
70.83200	310.00000
70.85400	330.00000
70.87600	263.00000
70.89800	322.00000
70.92000	297.00000
70.94200	308.00000
70.96400	326.00000
70.98600	351.00000
71.00800	378.00000
71.03000	346.00000
71.05200	324.00000
71.07400	272.00000
71.09600	267.00000
71.11800	262.00000
71.14000	257.00000
71.16200	224.00000
71.18400	289.00000
71.20600	256.00000
71.22800	267.00000
71.25000	231.00000
71.27200	261.00000
71.29400	282.00000
71.31600	242.00000
71.33800	218.00000
71.36000	231.00000
71.38200	245.00000
71.40400	254.00000
71.42600	274.00000
71.44800	263.00000
71.47000	226.00000
71.49200	250.00000
71.51400	243.00000
71.53600	232.00000
71.55800	256.00000
71.58000	228.00000
71.60200	242.00000
71.62400	252.00000
71.64600	244.00000
71.66800	255.00000
71.69000	295.00000
71.71200	237.00000
71.73400	329.00000
71.75600	304.00000
71.77800	324.00000
71.80000	327.00000
71.82200	323.00000
71.84400	364.00000
71.86600	358.00000
71.88800	316.00000
71.91000	313.00000
71.93200	259.00000
71.95400	273.00000
71.97600	267.00000
71.99800	255.00000
72.02000	264.00000
72.04200	272.00000
72.06400	300.00000
72.08600	293.00000
72.10800	227.00000
72.13000	224.00000
72.15200	221.00000
72.17400	235.00000
72.19600	219.00000
72.21800	211.00000
72.24000	204.00000
72.26200	191.00000
72.28400	240.00000
72.30600	232.00000
72.32800	231.00000
72.35000	242.00000
72.37200	273.00000
72.39400	242.00000
72.41600	252.00000
72.43800	247.00000
72.46000	265.00000
72.48200	217.00000
72.50400	234.00000
72.52600	233.00000
72.54800	230.00000
72.57000	246.00000
72.59200	234.00000
72.61400	227.00000
72.63600	228.00000
72.65800	216.00000
72.68000	219.00000
72.70200	199.00000
72.72400	225.00000
72.74600	207.00000
72.76800	227.00000
72.79000	224.00000
72.81200	227.00000
72.83400	233.00000
72.85600	234.00000
72.87800	208.00000
72.90000	235.00000
72.92200	241.00000
72.94400	222.00000
72.96600	224.00000
72.98800	202.00000
73.01000	209.00000
73.03200	222.00000
73.05400	244.00000
73.07600	185.00000
73.09800	237.00000
73.12000	241.00000
73.14200	215.00000
73.16400	244.00000
73.18600	225.00000
73.20800	250.00000
73.23000	275.00000
73.25200	363.00000
73.27400	338.00000
73.29600	350.00000
73.31800	375.00000
73.34000	388.00000
73.36200	414.00000
73.38400	389.00000
73.40600	373.00000
73.42800	349.00000
73.45000	323.00000
73.47200	312.00000
73.49400	298.00000
73.51600	324.00000
73.53800	328.00000
73.56000	311.00000
73.58200	328.00000
73.60400	306.00000
73.62600	282.00000
73.64800	299.00000
73.67000	235.00000
73.69200	226.00000
73.71400	262.00000
73.73600	234.00000
73.75800	274.00000
73.78000	226.00000
73.80200	265.00000
73.82400	247.00000
73.84600	220.00000
73.86800	225.00000
73.89000	226.00000
73.91200	251.00000
73.93400	225.00000
73.95600	234.00000
73.97800	203.00000
74.00000	230.00000
74.02200	209.00000
74.04400	225.00000
74.06600	204.00000
74.08800	215.00000
74.11000	205.00000
74.13200	216.00000
74.15400	241.00000
74.17600	207.00000
74.19800	253.00000
74.22000	215.00000
74.24200	224.00000
74.26400	236.00000
74.28600	216.00000
74.30800	220.00000
74.33000	221.00000
74.35200	219.00000
74.37400	234.00000
74.39600	256.00000
74.41800	278.00000
74.44000	248.00000
74.46200	255.00000
74.48400	290.00000
74.50600	298.00000
74.52800	316.00000
74.55000	311.00000
74.57200	307.00000
74.59400	283.00000
74.61600	221.00000
74.63800	235.00000
74.66000	256.00000
74.68200	243.00000
74.70400	259.00000
74.72600	255.00000
74.74800	295.00000
74.77000	239.00000
74.79200	256.00000
74.81400	272.00000
74.83600	278.00000
74.85800	258.00000
74.88000	253.00000
74.90200	276.00000
74.92400	290.00000
74.94600	280.00000
74.96800	289.00000
74.99000	319.00000
75.01200	311.00000
75.03400	280.00000
75.05600	242.00000
75.07800	230.00000
75.10000	241.00000
75.12200	241.00000
75.14400	244.00000
75.16600	231.00000
75.18800	266.00000
75.21000	251.00000
75.23200	246.00000
75.25400	249.00000
75.27600	265.00000
75.29800	256.00000
75.32000	269.00000
75.34200	267.00000
75.36400	284.00000
75.38600	297.00000
75.40800	326.00000
75.43000	374.00000
75.45200	354.00000
75.47400	354.00000
75.49600	328.00000
75.51800	271.00000
75.54000	285.00000
75.56200	282.00000
75.58400	249.00000
75.60600	295.00000
75.62800	273.00000
75.65000	335.00000
75.67200	307.00000
75.69400	329.00000
75.71600	320.00000
75.73800	336.00000
75.76000	343.00000
75.78200	342.00000
75.80400	377.00000
75.82600	354.00000
75.84800	317.00000
75.87000	304.00000
75.89200	274.00000
75.91400	258.00000
75.93600	246.00000
75.95800	257.00000
75.98000	295.00000
76.00200	264.00000
76.02400	282.00000
76.04600	290.00000
76.06800	270.00000
76.09000	271.00000
76.11200	243.00000
76.13400	213.00000
76.15600	229.00000
76.17800	251.00000
76.20000	244.00000
76.22200	234.00000
76.24400	248.00000
76.26600	230.00000
76.28800	232.00000
76.31000	260.00000
76.33200	251.00000
76.35400	253.00000
76.37600	235.00000
76.39800	220.00000
76.42000	237.00000
76.44200	207.00000
76.46400	227.00000
76.48600	224.00000
76.50800	224.00000
76.53000	209.00000
76.55200	208.00000
76.57400	260.00000
76.59600	245.00000
76.61800	256.00000
76.64000	261.00000
76.66200	224.00000
76.68400	260.00000
76.70600	275.00000
76.72800	236.00000
76.75000	235.00000
76.77200	241.00000
76.79400	244.00000
76.81600	211.00000
76.83800	228.00000
76.86000	260.00000
76.88200	215.00000
76.90400	248.00000
76.92600	241.00000
76.94800	232.00000
76.97000	238.00000
76.99200	264.00000
77.01400	228.00000
77.03600	237.00000
77.05800	275.00000
77.08000	284.00000
77.10200	312.00000
77.12400	331.00000
77.14600	332.00000
77.16800	346.00000
77.19000	369.00000
77.21200	318.00000
77.23400	306.00000
77.25600	277.00000
77.27800	249.00000
77.30000	230.00000
77.32200	240.00000
77.34400	256.00000
77.36600	279.00000
77.38800	273.00000
77.41000	284.00000
77.43200	245.00000
77.45400	270.00000
77.47600	255.00000
77.49800	231.00000
77.52000	227.00000
77.54200	224.00000
77.56400	242.00000
77.58600	241.00000
77.60800	258.00000
77.63000	253.00000
77.65200	246.00000
77.67400	247.00000
77.69600	269.00000
77.71800	232.00000
77.74000	244.00000
77.76200	247.00000
77.78400	240.00000
77.80600	238.00000
77.82800	204.00000
77.85000	211.00000
77.87200	213.00000
77.89400	245.00000
77.91600	218.00000
77.93800	229.00000
77.96000	234.00000
77.98200	234.00000
78.00400	218.00000
78.02600	217.00000
78.04800	213.00000
78.07000	182.00000
78.09200	197.00000
78.11400	220.00000
78.13600	225.00000
78.15800	193.00000
78.18000	217.00000
78.20200	202.00000
78.22400	204.00000
78.24600	198.00000
78.26800	214.00000
78.29000	225.00000
78.31200	204.00000
78.33400	217.00000
78.35600	235.00000
78.37800	221.00000
78.40000	224.00000
78.42200	207.00000
78.44400	249.00000
78.46600	253.00000
78.48800	229.00000
78.51000	236.00000
78.53200	260.00000
78.55400	267.00000
78.57600	281.00000
78.59800	298.00000
78.62000	303.00000
78.64200	334.00000
78.66400	289.00000
78.68600	257.00000
78.70800	238.00000
78.73000	231.00000
78.75200	259.00000
78.77400	256.00000
78.79600	222.00000
78.81800	265.00000
78.84000	235.00000
78.86200	234.00000
78.88400	294.00000
78.90600	233.00000
78.92800	255.00000
78.95000	217.00000
78.97200	206.00000
78.99400	222.00000
79.01600	224.00000
79.03800	225.00000
79.06000	264.00000
79.08200	246.00000
79.10400	242.00000
79.12600	301.00000
79.14800	279.00000
79.17000	287.00000
79.19200	319.00000
79.21400	262.00000
79.23600	295.00000
79.25800	286.00000
79.28000	305.00000
79.30200	276.00000
79.32400	254.00000
79.34600	249.00000
79.36800	263.00000
79.39000	272.00000
79.41200	275.00000
79.43400	293.00000
79.45600	307.00000
79.47800	261.00000
79.50000	280.00000
79.52200	265.00000
79.54400	255.00000
79.56600	247.00000
79.58800	275.00000
79.61000	248.00000
79.63200	263.00000
79.65400	241.00000
79.67600	235.00000
79.69800	225.00000
79.72000	238.00000
79.74200	261.00000
79.76400	247.00000
79.78600	216.00000
79.80800	228.00000
79.83000	227.00000
79.85200	221.00000
79.87400	217.00000
79.89600	208.00000
79.91800	229.00000
79.94000	230.00000
79.96200	209.00000
79.98400	222.00000
80.00600	197.00000
80.02800	218.00000
80.05000	217.00000
80.07200	190.00000
80.09400	223.00000
80.11600	186.00000
80.13800	213.00000
80.16000	208.00000
80.18200	202.00000
80.20400	211.00000
80.22600	179.00000
80.24800	210.00000
80.27000	222.00000
80.29200	242.00000
80.31400	191.00000
80.33600	233.00000
80.35800	229.00000
80.38000	234.00000
80.40200	205.00000
80.42400	210.00000
80.44600	208.00000
80.46800	193.00000
80.49000	230.00000
80.51200	220.00000
80.53400	204.00000
80.55600	205.00000
80.57800	204.00000
80.60000	213.00000
80.62200	226.00000
80.64400	209.00000
80.66600	189.00000
80.68800	221.00000
80.71000	216.00000
80.73200	231.00000
80.75400	200.00000
80.77600	251.00000
80.79800	203.00000
80.82000	243.00000
80.84200	201.00000
80.86400	209.00000
80.88600	228.00000
80.90800	233.00000
80.93000	237.00000
80.95200	233.00000
80.97400	247.00000
80.99600	247.00000
81.01800	238.00000
81.04000	276.00000
81.06200	256.00000
81.08400	252.00000
81.10600	253.00000
81.12800	289.00000
81.15000	271.00000
81.17200	268.00000
81.19400	243.00000
81.21600	345.00000
81.23800	282.00000
81.26000	322.00000
81.28200	306.00000
81.30400	339.00000
81.32600	301.00000
81.34800	300.00000
81.37000	321.00000
81.39200	284.00000
81.41400	318.00000
81.43600	241.00000
81.45800	281.00000
81.48000	293.00000
81.50200	263.00000
81.52400	290.00000
81.54600	256.00000
81.56800	240.00000
81.59000	256.00000
81.61200	264.00000
81.63400	256.00000
81.65600	249.00000
81.67800	234.00000
81.70000	231.00000
81.72200	205.00000
81.74400	252.00000
81.76600	222.00000
81.78800	207.00000
81.81000	209.00000
81.83200	220.00000
81.85400	237.00000
81.87600	228.00000
81.89800	224.00000
81.92000	221.00000
81.94200	235.00000
81.96400	218.00000
81.98600	249.00000
82.00800	249.00000
82.03000	227.00000
82.05200	224.00000
82.07400	249.00000
82.09600	255.00000
82.11800	277.00000
82.14000	246.00000
82.16200	232.00000
82.18400	207.00000
82.20600	215.00000
82.22800	225.00000
82.25000	240.00000
82.27200	244.00000
82.29400	242.00000
82.31600	233.00000
82.33800	243.00000
82.36000	236.00000
82.38200	249.00000
82.40400	226.00000
82.42600	267.00000
82.44800	245.00000
82.47000	255.00000
82.49200	250.00000
82.51400	247.00000
82.53600	214.00000
82.55800	246.00000
82.58000	231.00000
82.60200	200.00000
82.62400	236.00000
82.64600	215.00000
82.66800	241.00000
82.69000	229.00000
82.71200	211.00000
82.73400	204.00000
82.75600	221.00000
82.77800	219.00000
82.80000	222.00000
82.82200	231.00000
82.84400	188.00000
82.86600	222.00000
82.88800	221.00000
82.91000	214.00000
82.93200	220.00000
82.95400	218.00000
82.97600	205.00000
82.99800	218.00000
83.02000	210.00000
83.04200	216.00000
83.06400	208.00000
83.08600	220.00000
83.10800	204.00000
83.13000	229.00000
83.15200	212.00000
83.17400	213.00000
83.19600	256.00000
83.21800	238.00000
83.24000	230.00000
83.26200	228.00000
83.28400	213.00000
83.30600	212.00000
83.32800	223.00000
83.35000	247.00000
83.37200	273.00000
83.39400	286.00000
83.41600	282.00000
83.43800	310.00000
83.46000	291.00000
83.48200	297.00000
83.50400	326.00000
83.52600	320.00000
83.54800	292.00000
83.57000	269.00000
83.59200	284.00000
83.61400	235.00000
83.63600	257.00000
83.65800	230.00000
83.68000	240.00000
83.70200	244.00000
83.72400	237.00000
83.74600	273.00000
83.76800	280.00000
83.79000	262.00000
83.81200	251.00000
83.83400	246.00000
83.85600	269.00000
83.87800	240.00000
83.90000	257.00000
83.92200	253.00000
83.94400	248.00000
83.96600	267.00000
83.98800	276.00000
84.01000	288.00000
84.03200	353.00000
84.05400	364.00000
84.07600	341.00000
84.09800	365.00000
84.12000	322.00000
84.14200	293.00000
84.16400	305.00000
84.18600	253.00000
84.20800	252.00000
84.23000	261.00000
84.25200	251.00000
84.27400	286.00000
84.29600	279.00000
84.31800	284.00000
84.34000	280.00000
84.36200	286.00000
84.38400	272.00000
84.40600	242.00000
84.42800	238.00000
84.45000	236.00000
84.47200	243.00000
84.49400	213.00000
84.51600	254.00000
84.53800	233.00000
84.56000	221.00000
84.58200	234.00000
84.60400	253.00000
84.62600	240.00000
84.64800	215.00000
84.67000	249.00000
84.69200	214.00000
84.71400	224.00000
84.73600	201.00000
84.75800	215.00000
84.78000	225.00000
84.80200	213.00000
84.82400	208.00000
84.84600	232.00000
84.86800	216.00000
84.89000	217.00000
84.91200	217.00000
84.93400	221.00000
84.95600	224.00000
84.97800	208.00000
85.00000	225.00000
85.02200	227.00000
85.04400	208.00000
85.06600	212.00000
85.08800	214.00000
85.11000	201.00000
85.13200	193.00000
85.15400	192.00000
85.17600	208.00000
85.19800	224.00000
85.22000	225.00000
85.24200	209.00000
85.26400	199.00000
85.28600	223.00000
85.30800	186.00000
85.33000	223.00000
85.35200	213.00000
85.37400	208.00000
85.39600	208.00000
85.41800	194.00000
85.44000	210.00000
85.46200	209.00000
85.48400	228.00000
85.50600	213.00000
85.52800	213.00000
85.55000	211.00000
85.57200	243.00000
85.59400	218.00000
85.61600	228.00000
85.63800	242.00000
85.66000	238.00000
85.68200	270.00000
85.70400	219.00000
85.72600	252.00000
85.74800	225.00000
85.77000	227.00000
85.79200	238.00000
85.81400	220.00000
85.83600	224.00000
85.85800	217.00000
85.88000	247.00000
85.90200	218.00000
85.92400	237.00000
85.94600	231.00000
85.96800	223.00000
85.99000	209.00000
86.01200	211.00000
86.03400	225.00000
86.05600	234.00000
86.07800	219.00000
86.10000	218.00000
86.12200	230.00000
86.14400	237.00000
86.16600	228.00000
86.18800	216.00000
86.21000	216.00000
86.23200	223.00000
86.25400	239.00000
86.27600	212.00000
86.29800	240.00000
86.32000	232.00000
86.34200	228.00000
86.36400	246.00000
86.38600	224.00000
86.40800	243.00000
86.43000	250.00000
86.45200	273.00000
86.47400	262.00000
86.49600	289.00000
86.51800	276.00000
86.54000	222.00000
86.56200	229.00000
86.58400	240.00000
86.60600	228.00000
86.62800	202.00000
86.65000	236.00000
86.67200	234.00000
86.69400	240.00000
86.71600	235.00000
86.73800	206.00000
86.76000	237.00000
86.78200	253.00000
86.80400	233.00000
86.82600	216.00000
86.84800	224.00000
86.87000	209.00000
86.89200	232.00000
86.91400	230.00000
86.93600	211.00000
86.95800	236.00000
86.98000	193.00000
87.00200	219.00000
87.02400	217.00000
87.04600	205.00000
87.06800	215.00000
87.09000	219.00000
87.11200	216.00000
87.13400	230.00000
87.15600	212.00000
87.17800	234.00000
87.20000	218.00000
87.22200	250.00000
87.24400	219.00000
87.26600	224.00000
87.28800	237.00000
87.31000	237.00000
87.33200	274.00000
87.35400	252.00000
87.37600	207.00000
87.39800	220.00000
87.42000	214.00000
87.44200	226.00000
87.46400	200.00000
87.48600	199.00000
87.50800	219.00000
87.53000	201.00000
87.55200	208.00000
87.57400	235.00000
87.59600	235.00000
87.61800	228.00000
87.64000	236.00000
87.66200	226.00000
87.68400	224.00000
87.70600	212.00000
87.72800	236.00000
87.75000	207.00000
87.77200	234.00000
87.79400	232.00000
87.81600	250.00000
87.83800	282.00000
87.86000	303.00000
87.88200	293.00000
87.90400	256.00000
87.92600	268.00000
87.94800	223.00000
87.97000	220.00000
87.99200	215.00000
88.01400	205.00000
88.03600	192.00000
88.05800	236.00000
88.08000	228.00000
88.10200	246.00000
88.12400	270.00000
88.14600	243.00000
88.16800	225.00000
88.19000	225.00000
88.21200	224.00000
88.23400	212.00000
88.25600	245.00000
88.27800	210.00000
88.30000	202.00000
88.32200	248.00000
88.34400	211.00000
88.36600	208.00000
88.38800	219.00000
88.41000	228.00000
88.43200	218.00000
88.45400	209.00000
88.47600	183.00000
88.49800	194.00000
88.52000	220.00000
88.54200	212.00000
88.56400	216.00000
88.58600	203.00000
88.60800	215.00000
88.63000	213.00000
88.65200	203.00000
88.67400	229.00000
88.69600	207.00000
88.71800	223.00000
88.74000	226.00000
88.76200	218.00000
88.78400	209.00000
88.80600	222.00000
88.82800	239.00000
88.85000	220.00000
88.87200	200.00000
88.89400	224.00000
88.91600	223.00000
88.93800	233.00000
88.96000	218.00000
88.98200	236.00000
89.00400	236.00000
89.02600	199.00000
89.04800	219.00000
89.07000	220.00000
89.09200	224.00000
89.11400	238.00000
89.13600	237.00000
89.15800	228.00000
89.18000	231.00000
89.20200	219.00000
89.22400	250.00000
89.24600	229.00000
89.26800	225.00000
89.29000	237.00000
89.31200	237.00000
89.33400	232.00000
89.35600	230.00000
89.37800	238.00000
89.40000	213.00000
89.42200	239.00000
89.44400	241.00000
89.46600	230.00000
89.48800	243.00000
89.51000	241.00000
89.53200	266.00000
89.55400	259.00000
89.57600	252.00000
89.59800	244.00000
89.62000	250.00000
89.64200	246.00000
89.66400	269.00000
89.68600	233.00000
89.70800	262.00000
89.73000	231.00000
89.75200	237.00000
89.77400	231.00000
89.79600	242.00000
89.81800	219.00000
89.84000	254.00000
89.86200	246.00000
89.88400	286.00000
89.90600	219.00000
89.92800	247.00000
89.95000	274.00000
89.97200	259.00000
89.99400	302.00000
