0.29910	5841.00000
0.29940	5769.00000
0.29980	5770.00000
0.30010	5757.00000
0.30050	5715.00000
0.30080	5751.00000
0.30120	5759.00000
0.30150	5825.00000
0.30190	5844.00000
0.30220	5729.00000
0.30260	5742.00000
0.30290	5746.00000
0.30330	5694.00000
0.30360	5697.00000
0.30400	5723.00000
0.30430	5765.00000
0.30470	5846.00000
0.30500	5764.00000
0.30540	5698.00000
0.30570	5676.00000
0.30610	5719.00000
0.30640	5836.00000
0.30680	5717.00000
0.30710	5761.00000
0.30740	5697.00000
0.30780	5725.00000
0.30810	5706.00000
0.30850	5698.00000
0.30880	5701.00000
0.30920	5778.00000
0.30950	5622.00000
0.30990	5762.00000
0.31020	5748.00000
0.31060	5700.00000
0.31090	5695.00000
0.31130	5725.00000
0.31160	5688.00000
0.31200	5793.00000
0.31230	5761.00000
0.31270	5694.00000
0.31300	5645.00000
0.31340	5602.00000
0.31370	5785.00000
0.31410	5691.00000
0.31440	5802.00000
0.31480	5797.00000
0.31510	5696.00000
0.31550	5839.00000
0.31580	5867.00000
0.31620	5753.00000
0.31650	5749.00000
0.31690	5855.00000
0.31720	5749.00000
0.31760	5704.00000
0.31790	5611.00000
0.31830	5557.00000
0.31860	5630.00000
0.31900	5748.00000
0.31930	5656.00000
0.31970	5833.00000
0.32000	5860.00000
0.32040	5837.00000
0.32070	5791.00000
0.32110	5714.00000
0.32140	5761.00000
0.32180	5661.00000
0.32210	5544.00000
0.32250	5719.00000
0.32280	5742.00000
0.32320	5698.00000
0.32350	5687.00000
0.32390	5658.00000
0.32420	5718.00000
0.32460	5716.00000
0.32490	5717.00000
0.32530	5574.00000
0.32560	5590.00000
0.32590	5620.00000
0.32630	5750.00000
0.32660	5603.00000
0.32700	5555.00000
0.32730	5683.00000
0.32770	5706.00000
0.32800	5699.00000
0.32840	5761.00000
0.32870	5606.00000
0.32910	5657.00000
0.32940	5679.00000
0.32980	5627.00000
0.33010	5735.00000
0.33050	5638.00000
0.33080	5769.00000
0.33120	5804.00000
0.33150	5701.00000
0.33190	5708.00000
0.33220	5793.00000
0.33260	5789.00000
0.33290	5645.00000
0.33330	5646.00000
0.33360	5816.00000
0.33400	5829.00000
0.33430	5779.00000
0.33470	5586.00000
0.33500	5628.00000
0.33540	5719.00000
0.33570	5762.00000
0.33610	5751.00000
0.33640	5639.00000
0.33680	5645.00000
0.33710	5641.00000
0.33750	5667.00000
0.33780	5560.00000
0.33820	5767.00000
0.33850	5698.00000
0.33890	5637.00000
0.33920	5579.00000
0.33960	5649.00000
0.33990	5599.00000
0.34030	5630.00000
0.34060	5583.00000
0.34100	5612.00000
0.34130	5673.00000
0.34170	5667.00000
0.34200	5593.00000
0.34240	5773.00000
0.34270	5758.00000
0.34310	5630.00000
0.34340	5538.00000
0.34380	5533.00000
0.34410	5648.00000
0.34450	5665.00000
0.34480	5675.00000
0.34510	5609.00000
0.34550	5619.00000
0.34580	5631.00000
0.34620	5562.00000
0.34650	5587.00000
0.34690	5651.00000
0.34720	5714.00000
0.34760	5684.00000
0.34790	5699.00000
0.34830	5686.00000
0.34860	5526.00000
0.34900	5681.00000
0.34930	5768.00000
0.34970	5577.00000
0.35000	5615.00000
0.35040	5644.00000
0.35070	5655.00000
0.35110	5619.00000
0.35140	5668.00000
0.35180	5608.00000
0.35210	5640.00000
0.35250	5634.00000
0.35280	5576.00000
0.35320	5513.00000
0.35350	5595.00000
0.35390	5679.00000
0.35420	5653.00000
0.35460	5673.00000
0.35490	5696.00000
0.35530	5620.00000
0.35560	5597.00000
0.35600	5501.00000
0.35630	5684.00000
0.35670	5639.00000
0.35700	5637.00000
0.35740	5501.00000
0.35770	5550.00000
0.35810	5502.00000
0.35840	5552.00000
0.35880	5704.00000
0.35910	5619.00000
0.35950	5545.00000
0.35980	5603.00000
0.36020	5639.00000
0.36050	5669.00000
0.36090	5540.00000
0.36120	5556.00000
0.36160	5612.00000
0.36190	5725.00000
0.36230	5521.00000
0.36260	5523.00000
0.36300	5506.00000
0.36330	5581.00000
0.36360	5625.00000
0.36400	5683.00000
0.36430	5584.00000
0.36470	5639.00000
0.36500	5576.00000
0.36540	5559.00000
0.36570	5512.00000
0.36610	5467.00000
0.36640	5445.00000
0.36680	5473.00000
0.36710	5526.00000
0.36750	5524.00000
0.36780	5516.00000
0.36820	5497.00000
0.36850	5484.00000
0.36890	5490.00000
0.36920	5537.00000
0.36960	5530.00000
0.36990	5523.00000
0.37030	5587.00000
0.37060	5593.00000
0.37100	5585.00000
0.37130	5550.00000
0.37170	5537.00000
0.37200	5463.00000
0.37240	5518.00000
0.37270	5527.00000
0.37310	5578.00000
0.37340	5612.00000
0.37380	5511.00000
0.37410	5482.00000
0.37450	5418.00000
0.37480	5576.00000
0.37520	5535.00000
0.37550	5710.00000
0.37590	5584.00000
0.37620	5640.00000
0.37660	5824.00000
0.37690	5723.00000
0.37730	5651.00000
0.37760	5793.00000
0.37800	5800.00000
0.37830	5776.00000
0.37870	5838.00000
0.37900	5753.00000
0.37940	5837.00000
0.37970	5881.00000
0.38010	5808.00000
0.38040	5820.00000
0.38080	5778.00000
0.38110	5736.00000
0.38150	5614.00000
0.38180	5542.00000
0.38210	5467.00000
0.38250	5741.00000
0.38280	5650.00000
0.38320	5551.00000
0.38350	5528.00000
0.38390	5633.00000
0.38420	5623.00000
0.38460	5499.00000
0.38490	5523.00000
0.38530	5615.00000
0.38560	5644.00000
0.38600	5548.00000
0.38630	5536.00000
0.38670	5555.00000
0.38700	5512.00000
0.38740	5516.00000
0.38770	5549.00000
0.38810	5530.00000
0.38840	5515.00000
0.38880	5466.00000
0.38910	5408.00000
0.38950	5496.00000
0.38980	5536.00000
0.39020	5427.00000
0.39050	5502.00000
0.39090	5504.00000
0.39120	5494.00000
0.39160	5545.00000
0.39190	5462.00000
0.39230	5633.00000
0.39260	5489.00000
0.39300	5437.00000
0.39330	5530.00000
0.39370	5529.00000
0.39400	5479.00000
0.39440	5446.00000
0.39470	5483.00000
0.39510	5478.00000
0.39540	5516.00000
0.39580	5455.00000
0.39610	5605.00000
0.39650	5624.00000
0.39680	5497.00000
0.39720	5484.00000
0.39750	5470.00000
0.39790	5653.00000
0.39820	5593.00000
0.39860	5610.00000
0.39890	5591.00000
0.39930	5480.00000
0.39960	5434.00000
0.40000	5440.00000
0.40030	5403.00000
0.40060	5539.00000
0.40100	5504.00000
0.40130	5380.00000
0.40170	5464.00000
0.40200	5370.00000
0.40240	5351.00000
0.40270	5454.00000
0.40310	5494.00000
0.40340	5439.00000
0.40380	5497.00000
0.40410	5507.00000
0.40450	5465.00000
0.40480	5530.00000
0.40520	5486.00000
0.40550	5571.00000
0.40590	5576.00000
0.40620	5550.00000
0.40660	5519.00000
0.40690	5403.00000
0.40730	5490.00000
0.40760	5600.00000
0.40800	5491.00000
0.40830	5418.00000
0.40870	5506.00000
0.40900	5490.00000
0.40940	5426.00000
0.40970	5456.00000
0.41010	5502.00000
0.41040	5386.00000
0.41080	5442.00000
0.41110	5543.00000
0.41150	5429.00000
0.41180	5395.00000
0.41220	5453.00000
0.41250	5486.00000
0.41290	5597.00000
0.41320	5513.00000
0.41360	5514.00000
0.41390	5429.00000
0.41430	5429.00000
0.41460	5494.00000
0.41500	5537.00000
0.41530	5436.00000
0.41570	5673.00000
0.41600	5541.00000
0.41640	5440.00000
0.41670	5569.00000
0.41710	5492.00000
0.41740	5458.00000
0.41780	5401.00000
0.41810	5542.00000
0.41850	5551.00000
0.41880	5502.00000
0.41920	5528.00000
0.41950	5451.00000
0.41980	5431.00000
0.42020	5552.00000
0.42050	5484.00000
0.42090	5525.00000
0.42120	5523.00000
0.42160	5456.00000
0.42190	5714.00000
0.42230	5573.00000
0.42260	5507.00000
0.42300	5633.00000
0.42330	5686.00000
0.42370	5681.00000
0.42400	5755.00000
0.42440	5788.00000
0.42470	5919.00000
0.42510	5955.00000
0.42540	6030.00000
0.42580	6120.00000
0.42610	6338.00000
0.42650	6526.00000
0.42680	6707.00000
0.42720	6973.00000
0.42750	7130.00000
0.42790	7070.00000
0.42820	7100.00000
0.42860	7100.00000
0.42890	7001.00000
0.42930	6601.00000
0.42960	6482.00000
0.43000	6341.00000
0.43030	6163.00000
0.43070	5876.00000
0.43100	5844.00000
0.43140	5729.00000
0.43170	5695.00000
0.43210	5593.00000
0.43240	5593.00000
0.43280	5553.00000
0.43310	5515.00000
0.43350	5522.00000
0.43380	5563.00000
0.43420	5476.00000
0.43450	5499.00000
0.43490	5590.00000
0.43520	5482.00000
0.43560	5389.00000
0.43590	5404.00000
0.43630	5431.00000
0.43660	5465.00000
0.43700	5401.00000
0.43730	5491.00000
0.43770	5474.00000
0.43800	5514.00000
0.43830	5436.00000
0.43870	5455.00000
0.43900	5516.00000
0.43940	5419.00000
0.43970	5438.00000
0.44010	5451.00000
0.44040	5480.00000
0.44080	5427.00000
0.44110	5426.00000
0.44150	5401.00000
0.44180	5508.00000
0.44220	5397.00000
0.44250	5362.00000
0.44290	5298.00000
0.44320	5386.00000
0.44360	5405.00000
0.44390	5386.00000
0.44430	5567.00000
0.44460	5511.00000
0.44500	5407.00000
0.44530	5407.00000
0.44570	5344.00000
0.44600	5354.00000
0.44640	5375.00000
0.44670	5442.00000
0.44710	5499.00000
0.44740	5475.00000
0.44780	5488.00000
0.44810	5369.00000
0.44850	5440.00000
0.44880	5506.00000
0.44920	5419.00000
0.44950	5322.00000
0.44990	5371.00000
0.45020	5389.00000
0.45060	5427.00000
0.45090	5427.00000
0.45130	5381.00000
0.45160	5432.00000
0.45200	5488.00000
0.45230	5482.00000
0.45270	5527.00000
0.45300	5448.00000
0.45340	5430.00000
0.45370	5380.00000
0.45410	5410.00000
0.45440	5380.00000
0.45480	5497.00000
0.45510	5299.00000
0.45550	5511.00000
0.45580	5379.00000
0.45620	5352.00000
0.45650	5341.00000
0.45680	5303.00000
0.45720	5266.00000
0.45750	5403.00000
0.45790	5352.00000
0.45820	5469.00000
0.45860	5507.00000
0.45890	5426.00000
0.45930	5422.00000
0.45960	5412.00000
0.46000	5370.00000
0.46030	5338.00000
0.46070	5282.00000
0.46100	5322.00000
0.46140	5255.00000
0.46170	5292.00000
0.46210	5431.00000
0.46240	5411.00000
0.46280	5434.00000
0.46310	5438.00000
0.46350	5344.00000
0.46380	5407.00000
0.46420	5387.00000
0.46450	5393.00000
0.46490	5426.00000
0.46520	5475.00000
0.46560	5377.00000
0.46590	5435.00000
0.46630	5413.00000
0.46660	5491.00000
0.46700	5475.00000
0.46730	5387.00000
0.46770	5306.00000
0.46800	5341.00000
0.46840	5374.00000
0.46870	5371.00000
0.46910	5313.00000
0.46940	5280.00000
0.46980	5253.00000
0.47010	5310.00000
0.47050	5345.00000
0.47080	5375.00000
0.47120	5336.00000
0.47150	5302.00000
0.47190	5347.00000
0.47220	5379.00000
0.47260	5408.00000
0.47290	5326.00000
0.47330	5463.00000
0.47360	5399.00000
0.47400	5381.00000
0.47430	5356.00000
0.47470	5325.00000
0.47500	5368.00000
0.47540	5256.00000
0.47570	5324.00000
0.47600	5382.00000
0.47640	5347.00000
0.47670	5392.00000
0.47710	5352.00000
0.47740	5303.00000
0.47780	5280.00000
0.47810	5270.00000
0.47850	5324.00000
0.47880	5407.00000
0.47920	5329.00000
0.47950	5252.00000
0.47990	5303.00000
0.48020	5351.00000
0.48060	5343.00000
0.48090	5349.00000
0.48130	5375.00000
0.48160	5333.00000
0.48200	5393.00000
0.48230	5346.00000
0.48270	5352.00000
0.48300	5358.00000
0.48340	5389.00000
0.48370	5356.00000
0.48410	5316.00000
0.48440	5278.00000
0.48480	5141.00000
0.48510	5376.00000
0.48550	5423.00000
0.48580	5334.00000
0.48620	5324.00000
0.48650	5323.00000
0.48690	5332.00000
0.48720	5345.00000
0.48760	5341.00000
0.48790	5270.00000
0.48830	5359.00000
0.48860	5319.00000
0.48900	5226.00000
0.48930	5364.00000
0.48970	5402.00000
0.49000	5380.00000
0.49040	5311.00000
0.49070	5329.00000
0.49110	5363.00000
0.49140	5294.00000
0.49180	5383.00000
0.49210	5423.00000
0.49250	5321.00000
0.49280	5406.00000
0.49320	5446.00000
0.49350	5363.00000
0.49390	5355.00000
0.49420	5296.00000
0.49450	5275.00000
0.49490	5317.00000
0.49520	5265.00000
0.49560	5295.00000
0.49590	5242.00000
0.49630	5386.00000
0.49660	5306.00000
0.49700	5453.00000
0.49730	5356.00000
0.49770	5294.00000
0.49800	5351.00000
0.49840	5246.00000
0.49870	5335.00000
0.49910	5365.00000
0.49940	5280.00000
0.49980	5373.00000
0.50010	5348.00000
0.50050	5311.00000
0.50080	5291.00000
0.50120	5360.00000
0.50150	5343.00000
0.50190	5318.00000
0.50220	5392.00000
0.50260	5420.00000
0.50290	5402.00000
0.50330	5463.00000
0.50360	5451.00000
0.50400	5503.00000
0.50430	5575.00000
0.50470	5274.00000
0.50500	5397.00000
0.50540	5484.00000
0.50570	5449.00000
0.50610	5339.00000
0.50640	5298.00000
0.50680	5312.00000
0.50710	5305.00000
0.50750	5490.00000
0.50780	5226.00000
0.50820	5263.00000
0.50850	5225.00000
0.50890	5285.00000
0.50920	5326.00000
0.50960	5211.00000
0.50990	5215.00000
0.51030	5213.00000
0.51060	5287.00000
0.51100	5257.00000
0.51130	5310.00000
0.51170	5331.00000
0.51200	5262.00000
0.51240	5309.00000
0.51270	5239.00000
0.51300	5305.00000
0.51340	5280.00000
0.51370	5350.00000
0.51410	5304.00000
0.51440	5381.00000
0.51480	5319.00000
0.51510	5350.00000
0.51550	5343.00000
0.51580	5366.00000
0.51620	5349.00000
0.51650	5294.00000
0.51690	5353.00000
0.51720	5380.00000
0.51760	5293.00000
0.51790	5273.00000
0.51830	5341.00000
0.51860	5198.00000
0.51900	5374.00000
0.51930	5386.00000
0.51970	5390.00000
0.52000	5329.00000
0.52040	5281.00000
0.52070	5354.00000
0.52110	5378.00000
0.52140	5387.00000
0.52180	5305.00000
0.52210	5309.00000
0.52250	5244.00000
0.52280	5306.00000
0.52320	5329.00000
0.52350	5367.00000
0.52390	5334.00000
0.52420	5388.00000
0.52460	5354.00000
0.52490	5375.00000
0.52530	5493.00000
0.52560	5517.00000
0.52600	5470.00000
0.52630	5546.00000
0.52670	5518.00000
0.52700	5538.00000
0.52740	5645.00000
0.52770	5773.00000
0.52810	5816.00000
0.52840	6007.00000
0.52880	6120.00000
0.52910	6304.00000
0.52950	6415.00000
0.52980	6736.00000
0.53020	7011.00000
0.53050	7216.00000
0.53090	7692.00000
0.53120	8235.00000
0.53150	8688.00000
0.53190	9046.00000
0.53220	9068.00000
0.53260	9050.00000
0.53290	8614.00000
0.53330	8564.00000
0.53360	8260.00000
0.53400	7624.00000
0.53430	7219.00000
0.53470	6889.00000
0.53500	6753.00000
0.53540	6323.00000
0.53570	6261.00000
0.53610	6083.00000
0.53640	5878.00000
0.53680	5742.00000
0.53710	5667.00000
0.53750	5691.00000
0.53780	5666.00000
0.53820	5651.00000
0.53850	5560.00000
0.53890	5582.00000
0.53920	5598.00000
0.53960	5561.00000
0.53990	5617.00000
0.54030	5480.00000
0.54060	5506.00000
0.54100	5572.00000
0.54130	5585.00000
0.54170	5545.00000
0.54200	5521.00000
0.54240	5653.00000
0.54270	5649.00000
0.54310	5661.00000
0.54340	5704.00000
0.54380	5793.00000
0.54410	6019.00000
0.54450	5980.00000
0.54480	6081.00000
0.54520	6153.00000
0.54550	6346.00000
0.54590	6632.00000
0.54620	7038.00000
0.54660	7308.00000
0.54690	7705.00000
0.54730	8352.00000
0.54760	9251.00000
0.54800	10030.00000
0.54830	10914.00000
0.54870	12059.00000
0.54900	13101.00000
0.54940	14756.00000
0.54970	16017.00000
0.55010	17209.00000
0.55040	18464.00000
0.55070	19666.00000
0.55110	20035.00000
0.55140	19594.00000
0.55180	18883.00000
0.55210	17996.00000
0.55250	16692.00000
0.55280	15343.00000
0.55320	13955.00000
0.55350	12437.00000
0.55390	11375.00000
0.55420	10265.00000
0.55460	9368.00000
0.55490	8707.00000
0.55530	8258.00000
0.55560	7916.00000
0.55600	7560.00000
0.55630	7281.00000
0.55670	7002.00000
0.55700	7002.00000
0.55740	7081.00000
0.55770	7110.00000
0.55810	7405.00000
0.55840	7509.00000
0.55880	7526.00000
0.55910	7858.00000
0.55950	8270.00000
0.55980	8425.00000
0.56020	8782.00000
0.56050	8703.00000
0.56090	8731.00000
0.56120	8730.00000
0.56160	8430.00000
0.56190	8055.00000
0.56230	7887.00000
0.56260	7713.00000
0.56300	7382.00000
0.56330	7146.00000
0.56370	6827.00000
0.56400	6768.00000
0.56440	6360.00000
0.56470	6206.00000
0.56510	5947.00000
0.56540	5845.00000
0.56580	5852.00000
0.56610	5781.00000
0.56650	5762.00000
0.56680	5934.00000
0.56720	5891.00000
0.56750	5830.00000
0.56790	6024.00000
0.56820	6104.00000
0.56860	6187.00000
0.56890	6143.00000
0.56920	6343.00000
0.56960	6297.00000
0.56990	6286.00000
0.57030	6144.00000
0.57060	5896.00000
0.57100	5784.00000
0.57130	5650.00000
0.57170	5556.00000
0.57200	5566.00000
0.57240	5444.00000
0.57270	5427.00000
0.57310	5311.00000
0.57340	5401.00000
0.57380	5361.00000
0.57410	5317.00000
0.57450	5305.00000
0.57480	5241.00000
0.57520	5303.00000
0.57550	5291.00000
0.57590	5226.00000
0.57620	5304.00000
0.57660	5216.00000
0.57690	5232.00000
0.57730	5259.00000
0.57760	5370.00000
0.57800	5287.00000
0.57830	5274.00000
0.57870	5297.00000
0.57900	5253.00000
0.57940	5342.00000
0.57970	5262.00000
0.58010	5249.00000
0.58040	5342.00000
0.58080	5282.00000
0.58110	5262.00000
0.58150	5278.00000
0.58180	5201.00000
0.58220	5185.00000
0.58250	5192.00000
0.58290	5291.00000
0.58320	5330.00000
0.58360	5273.00000
0.58390	5306.00000
0.58430	5242.00000
0.58460	5228.00000
0.58500	5195.00000
0.58530	5326.00000
0.58570	5249.00000
0.58600	5278.00000
0.58640	5299.00000
0.58670	5203.00000
0.58710	5265.00000
0.58740	5275.00000
0.58770	5207.00000
0.58810	5240.00000
0.58840	5132.00000
0.58880	5116.00000
0.58910	5306.00000
0.58950	5312.00000
0.58980	5266.00000
0.59020	5233.00000
0.59050	5253.00000
0.59090	5287.00000
0.59120	5161.00000
0.59160	5243.00000
0.59190	5163.00000
0.59230	5296.00000
0.59260	5307.00000
0.59300	5192.00000
0.59330	5212.00000
0.59370	5206.00000
0.59400	5218.00000
0.59440	5282.00000
0.59470	5181.00000
0.59510	5265.00000
0.59540	5148.00000
0.59580	5180.00000
0.59610	5186.00000
0.59650	5218.00000
0.59680	5196.00000
0.59720	5144.00000
0.59750	5161.00000
0.59790	5145.00000
0.59820	5277.00000
0.59860	5302.00000
0.59890	5101.00000
0.59930	5228.00000
0.59960	5206.00000
0.60000	5162.00000
0.60030	5110.00000
0.60070	5211.00000
0.60100	5251.00000
0.60140	5119.00000
0.60170	5200.00000
0.60210	5156.00000
0.60240	5178.00000
0.60280	5251.00000
0.60310	5224.00000
0.60350	5225.00000
0.60380	5305.00000
0.60420	5287.00000
0.60450	5336.00000
0.60490	5168.00000
0.60520	5094.00000
0.60560	5191.00000
0.60590	5151.00000
0.60620	5124.00000
0.60660	5222.00000
0.60690	5267.00000
0.60730	5158.00000
0.60760	5105.00000
0.60800	5152.00000
0.60830	5221.00000
0.60870	5226.00000
0.60900	5219.00000
0.60940	5202.00000
0.60970	5144.00000
0.61010	5219.00000
0.61040	5172.00000
0.61080	5201.00000
0.61110	5241.00000
0.61150	5146.00000
0.61180	5212.00000
0.61220	5189.00000
0.61250	5152.00000
0.61290	5160.00000
0.61320	5145.00000
0.61360	5174.00000
0.61390	5108.00000
0.61430	5144.00000
0.61460	5142.00000
0.61500	5125.00000
0.61530	5145.00000
0.61570	5084.00000
0.61600	5104.00000
0.61640	5134.00000
0.61670	5220.00000
0.61710	5146.00000
0.61740	5141.00000
0.61780	5109.00000
0.61810	5071.00000
0.61850	5231.00000
0.61880	5332.00000
0.61920	5149.00000
0.61950	5202.00000
0.61990	5096.00000
0.62020	5200.00000
0.62060	5223.00000
0.62090	5151.00000
0.62130	5191.00000
0.62160	5140.00000
0.62200	5245.00000
0.62230	5260.00000
0.62270	5169.00000
0.62300	5184.00000
0.62340	5120.00000
0.62370	5227.00000
0.62410	5206.00000
0.62440	5179.00000
0.62480	5189.00000
0.62510	5284.00000
0.62540	5244.00000
0.62580	5257.00000
0.62610	5231.00000
0.62650	5203.00000
0.62680	5354.00000
0.62720	5233.00000
0.62750	5194.00000
0.62790	5166.00000
0.62820	5166.00000
0.62860	5175.00000
0.62890	5174.00000
0.62930	5167.00000
0.62960	5155.00000
0.63000	5257.00000
0.63030	5123.00000
0.63070	5122.00000
0.63100	5114.00000
0.63140	5256.00000
0.63170	5211.00000
0.63210	5102.00000
0.63240	5144.00000
0.63280	5172.00000
0.63310	5167.00000
0.63350	5080.00000
0.63380	5183.00000
0.63420	5196.00000
0.63450	5247.00000
0.63490	5160.00000
0.63520	5133.00000
0.63560	5085.00000
0.63590	5058.00000
0.63630	5133.00000
0.63660	5209.00000
0.63700	5197.00000
0.63730	5132.00000
0.63770	5188.00000
0.63800	5226.00000
0.63840	5344.00000
0.63870	5303.00000
0.63910	5185.00000
0.63940	5128.00000
0.63980	5242.00000
0.64010	5102.00000
0.64050	5135.00000
0.64080	5117.00000
0.64120	5106.00000
0.64150	5079.00000
0.64190	5122.00000
0.64220	5211.00000
0.64260	5166.00000
0.64290	5151.00000
0.64330	5217.00000
0.64360	5109.00000
0.64390	5176.00000
0.64430	5112.00000
0.64460	5104.00000
0.64500	5111.00000
0.64530	5119.00000
0.64570	5112.00000
0.64600	5112.00000
0.64640	5066.00000
0.64670	5123.00000
0.64710	5124.00000
0.64740	5152.00000
0.64780	5170.00000
0.64810	5175.00000
0.64850	5127.00000
0.64880	5149.00000
0.64920	5097.00000
0.64950	5079.00000
0.64990	5176.00000
0.65020	5180.00000
0.65060	5191.00000
0.65090	5127.00000
0.65130	5186.00000
0.65160	5230.00000
0.65200	5172.00000
0.65230	5155.00000
0.65270	5197.00000
0.65300	5227.00000
0.65340	5214.00000
0.65370	5125.00000
0.65410	5152.00000
0.65440	5395.00000
0.65480	5402.00000
0.65510	5367.00000
0.65550	5388.00000
0.65580	5584.00000
0.65620	5505.00000
0.65650	5518.00000
0.65690	5610.00000
0.65720	5618.00000
0.65760	5709.00000
0.65790	5603.00000
0.65830	5610.00000
0.65860	5548.00000
0.65900	5550.00000
0.65930	5588.00000
0.65970	5387.00000
0.66000	5383.00000
0.66040	5388.00000
0.66070	5360.00000
0.66110	5262.00000
0.66140	5348.00000
0.66180	5308.00000
0.66210	5307.00000
0.66240	5299.00000
0.66280	5141.00000
0.66310	5155.00000
0.66350	5168.00000
0.66380	5066.00000
0.66420	5091.00000
0.66450	5212.00000
0.66490	5211.00000
0.66520	5201.00000
0.66560	5152.00000
0.66590	5098.00000
0.66630	5130.00000
0.66660	5195.00000
0.66700	5082.00000
0.66730	5063.00000
0.66770	5107.00000
0.66800	5116.00000
0.66840	5176.00000
0.66870	5128.00000
0.66910	5083.00000
0.66940	5078.00000
0.66980	5115.00000
0.67010	5135.00000
0.67050	5091.00000
0.67080	5068.00000
0.67120	5138.00000
0.67150	5234.00000
0.67190	5121.00000
0.67220	5125.00000
0.67260	5129.00000
0.67290	5073.00000
0.67330	5095.00000
0.67360	5058.00000
0.67400	5075.00000
0.67430	5054.00000
0.67470	5006.00000
0.67500	5101.00000
0.67540	5072.00000
0.67570	5071.00000
0.67610	5164.00000
0.67640	5093.00000
0.67680	5154.00000
0.67710	5124.00000
0.67750	5107.00000
0.67780	5004.00000
0.67820	5105.00000
0.67850	5138.00000
0.67890	5156.00000
0.67920	5123.00000
0.67960	5158.00000
0.67990	5197.00000
0.68030	5156.00000
0.68060	5175.00000
0.68090	5156.00000
0.68130	5149.00000
0.68160	5099.00000
0.68200	5171.00000
0.68230	5120.00000
0.68270	5176.00000
0.68300	5149.00000
0.68340	5176.00000
0.68370	5153.00000
0.68410	5083.00000
0.68440	5193.00000
0.68480	5124.00000
0.68510	5062.00000
0.68550	5113.00000
0.68580	5107.00000
0.68620	5100.00000
0.68650	5167.00000
0.68690	5053.00000
0.68720	5048.00000
0.68760	5117.00000
0.68790	5088.00000
0.68830	5037.00000
0.68860	5097.00000
0.68900	5154.00000
0.68930	5034.00000
0.68970	5077.00000
0.69000	5145.00000
0.69040	5161.00000
0.69070	5075.00000
0.69110	5048.00000
0.69140	5110.00000
0.69180	5175.00000
0.69210	5085.00000
0.69250	5150.00000
0.69280	5180.00000
0.69320	5117.00000
0.69350	5112.00000
0.69390	5208.00000
0.69420	5195.00000
0.69460	5139.00000
0.69490	5118.00000
0.69530	5112.00000
0.69560	5047.00000
0.69600	5077.00000
0.69630	5014.00000
0.69670	5176.00000
0.69700	5094.00000
0.69740	5141.00000
0.69770	5189.00000
0.69810	5177.00000
0.69840	5113.00000
0.69880	5123.00000
0.69910	5144.00000
0.69950	5085.00000
0.69980	5145.00000
0.70010	5105.00000
0.70050	5175.00000
0.70080	5115.00000
0.70120	5149.00000
0.70150	5170.00000
0.70190	5254.00000
0.70220	5176.00000
0.70260	5029.00000
0.70290	5070.00000
0.70330	5033.00000
0.70360	5159.00000
0.70400	5178.00000
0.70430	5134.00000
0.70470	5117.00000
0.70500	5254.00000
0.70540	5134.00000
0.70570	5061.00000
0.70610	5116.00000
0.70640	5165.00000
0.70680	5236.00000
0.70710	5142.00000
0.70750	5148.00000
0.70780	5181.00000
0.70820	5163.00000
0.70850	5128.00000
0.70890	5174.00000
0.70920	5107.00000
0.70960	5140.00000
0.70990	5235.00000
0.71030	5183.00000
0.71060	5280.00000
0.71100	5154.00000
0.71130	5228.00000
0.71170	5209.00000
0.71200	5274.00000
0.71240	5242.00000
0.71270	5282.00000
0.71310	5445.00000
0.71340	5399.00000
0.71380	5411.00000
0.71410	5421.00000
0.71450	5516.00000
0.71480	5540.00000
0.71520	5531.00000
0.71550	5539.00000
0.71590	5586.00000
0.71620	5583.00000
0.71660	5610.00000
0.71690	5515.00000
0.71730	5495.00000
0.71760	5412.00000
0.71800	5399.00000
0.71830	5382.00000
0.71860	5354.00000
0.71900	5319.00000
0.71930	5418.00000
0.71970	5296.00000
0.72000	5425.00000
0.72040	5261.00000
0.72070	5266.00000
0.72110	5224.00000
0.72140	5172.00000
0.72180	5197.00000
0.72210	5262.00000
0.72250	5093.00000
0.72280	5109.00000
0.72320	5192.00000
0.72350	5206.00000
0.72390	5182.00000
0.72420	5094.00000
0.72460	5113.00000
0.72490	5147.00000
0.72530	5198.00000
0.72560	5091.00000
0.72600	5125.00000
0.72630	5112.00000
0.72670	5218.00000
0.72700	5054.00000
0.72740	5058.00000
0.72770	5123.00000
0.72810	5106.00000
0.72840	5140.00000
0.72880	5228.00000
0.72910	5154.00000
0.72950	5124.00000
0.72980	5193.00000
0.73020	5300.00000
0.73050	5257.00000
0.73090	5259.00000
0.73120	5344.00000
0.73160	5256.00000
0.73190	5312.00000
0.73230	5290.00000
0.73260	5258.00000
0.73300	5202.00000
0.73330	5222.00000
0.73370	5280.00000
0.73400	5223.00000
0.73440	5213.00000
0.73470	5151.00000
0.73510	5177.00000
0.73540	5195.00000
0.73580	5140.00000
0.73610	5114.00000
0.73650	5071.00000
0.73680	5035.00000
0.73710	5167.00000
0.73750	5088.00000
0.73780	5084.00000
0.73820	5078.00000
0.73850	5077.00000
0.73890	5149.00000
0.73920	5147.00000
0.73960	5169.00000
0.73990	5108.00000
0.74030	5197.00000
0.74060	5164.00000
0.74100	5082.00000
0.74130	5094.00000
0.74170	5184.00000
0.74200	5223.00000
0.74240	5238.00000
0.74270	5198.00000
0.74310	5140.00000
0.74340	5224.00000
0.74380	5145.00000
0.74410	5191.00000
0.74450	5216.00000
0.74480	5235.00000
0.74520	5090.00000
0.74550	5131.00000
0.74590	5199.00000
0.74620	5071.00000
0.74660	5054.00000
0.74690	5133.00000
0.74730	5165.00000
0.74760	5212.00000
0.74800	5210.00000
0.74830	5202.00000
0.74870	5246.00000
0.74900	5219.00000
0.74940	5105.00000
0.74970	5174.00000
0.75010	5152.00000
0.75040	5147.00000
0.75080	5152.00000
0.75110	5256.00000
0.75150	5227.00000
0.75180	5172.00000
0.75220	5126.00000
0.75250	5150.00000
0.75290	5062.00000
0.75320	5119.00000
0.75360	5169.00000
0.75390	5097.00000
0.75430	5184.00000
0.75460	5131.00000
0.75500	5136.00000
0.75530	5128.00000
0.75560	5205.00000
0.75600	5103.00000
0.75630	5057.00000
0.75670	5076.00000
0.75700	5116.00000
0.75740	5123.00000
0.75770	5206.00000
0.75810	5152.00000
0.75840	5199.00000
0.75880	5082.00000
0.75910	5036.00000
0.75950	5034.00000
0.75980	5090.00000
0.76020	5141.00000
0.76050	5116.00000
0.76090	5079.00000
0.76120	5093.00000
0.76160	5194.00000
0.76190	5128.00000
0.76230	5127.00000
0.76260	5122.00000
0.76300	5121.00000
0.76330	5158.00000
0.76370	5143.00000
0.76400	5109.00000
0.76440	5181.00000
0.76470	5090.00000
0.76510	5167.00000
0.76540	5136.00000
0.76580	5062.00000
0.76610	5107.00000
0.76650	5171.00000
0.76680	5116.00000
0.76720	5140.00000
0.76750	5144.00000
0.76790	5118.00000
0.76820	5074.00000
0.76860	5162.00000
0.76890	5211.00000
0.76930	5089.00000
0.76960	5140.00000
0.77000	5092.00000
0.77030	5084.00000
0.77070	5124.00000
0.77100	5116.00000
0.77140	5230.00000
0.77170	5163.00000
0.77210	5116.00000
0.77240	5011.00000
0.77280	5148.00000
0.77310	5089.00000
0.77350	5199.00000
0.77380	5122.00000
0.77420	5098.00000
0.77450	5115.00000
0.77480	5148.00000
0.77520	5197.00000
0.77550	5093.00000
0.77590	5146.00000
0.77620	5097.00000
0.77660	5143.00000
0.77690	5045.00000
0.77730	5132.00000
0.77760	5170.00000
0.77800	5108.00000
0.77830	5196.00000
0.77870	5141.00000
0.77900	5089.00000
0.77940	5093.00000
0.77970	5185.00000
0.78010	5199.00000
0.78040	5144.00000
0.78080	5122.00000
0.78110	5209.00000
0.78150	5133.00000
0.78180	5181.00000
0.78220	5130.00000
0.78250	5102.00000
0.78290	5210.00000
0.78320	5284.00000
0.78360	5187.00000
0.78390	5229.00000
0.78430	5169.00000
0.78460	5172.00000
0.78500	5327.00000
0.78530	5371.00000
0.78570	5291.00000
0.78600	5347.00000
0.78640	5543.00000
0.78670	5624.00000
0.78710	5556.00000
0.78740	5758.00000
0.78780	5816.00000
0.78810	6042.00000
0.78850	6240.00000
0.78880	6646.00000
0.78920	6907.00000
0.78950	7217.00000
0.78990	7702.00000
0.79020	8054.00000
0.79060	8276.00000
0.79090	8622.00000
0.79130	8468.00000
0.79160	8327.00000
0.79200	8127.00000
0.79230	7782.00000
0.79270	7406.00000
0.79300	7120.00000
0.79330	6790.00000
0.79370	6431.00000
0.79400	6234.00000
0.79440	6083.00000
0.79470	5952.00000
0.79510	5991.00000
0.79540	5895.00000
0.79580	5799.00000
0.79610	5635.00000
0.79650	5704.00000
0.79680	5643.00000
0.79720	5695.00000
0.79750	5642.00000
0.79790	5613.00000
0.79820	5682.00000
0.79860	5704.00000
0.79890	5668.00000
0.79930	5745.00000
0.79960	5779.00000
0.80000	5751.00000
0.80030	5944.00000
0.80070	6011.00000
0.80100	5916.00000
0.80140	6127.00000
0.80170	6137.00000
0.80210	6077.00000
0.80240	6152.00000
0.80280	6212.00000
0.80310	6331.00000
0.80350	6150.00000
0.80380	6314.00000
0.80420	6255.00000
0.80450	6239.00000
0.80490	6254.00000
0.80520	6115.00000
0.80560	6112.00000
0.80590	6126.00000
0.80630	6080.00000
0.80660	5934.00000
0.80700	5999.00000
0.80730	5920.00000
0.80770	5731.00000
0.80800	5815.00000
0.80840	5677.00000
0.80870	5744.00000
0.80910	5569.00000
0.80940	5654.00000
0.80980	5558.00000
0.81010	5494.00000
0.81050	5425.00000
0.81080	5494.00000
0.81120	5449.00000
0.81150	5495.00000
0.81180	5595.00000
0.81220	5646.00000
0.81250	5625.00000
0.81290	5605.00000
0.81320	5742.00000
0.81360	5765.00000
0.81390	5816.00000
0.81430	5832.00000
0.81460	6006.00000
0.81500	5932.00000
0.81530	5950.00000
0.81570	5915.00000
0.81600	5970.00000
0.81640	6031.00000
0.81670	5931.00000
0.81710	5991.00000
0.81740	6061.00000
0.81780	6031.00000
0.81810	6101.00000
0.81850	6141.00000
0.81880	5999.00000
0.81920	6006.00000
0.81950	5817.00000
0.81990	5806.00000
0.82020	5730.00000
0.82060	5697.00000
0.82090	5546.00000
0.82130	5466.00000
0.82160	5436.00000
0.82200	5329.00000
0.82230	5338.00000
0.82270	5292.00000
0.82300	5404.00000
0.82340	5327.00000
0.82370	5215.00000
0.82410	5268.00000
0.82440	5227.00000
0.82480	5236.00000
0.82510	5275.00000
0.82550	5177.00000
0.82580	5217.00000
0.82620	5156.00000
0.82650	5133.00000
0.82690	5134.00000
0.82720	5076.00000
0.82760	5096.00000
0.82790	5140.00000
0.82830	5146.00000
0.82860	5152.00000
0.82900	5154.00000
0.82930	5017.00000
0.82970	5098.00000
0.83000	5090.00000
0.83040	5107.00000
0.83070	5052.00000
0.83100	5042.00000
0.83140	5126.00000
0.83170	5145.00000
0.83210	5080.00000
0.83240	5256.00000
0.83280	5031.00000
0.83310	5034.00000
0.83350	5077.00000
0.83380	5014.00000
0.83420	5060.00000
0.83450	5051.00000
0.83490	4985.00000
0.83520	5070.00000
0.83560	5026.00000
0.83590	5053.00000
0.83630	5022.00000
0.83660	5071.00000
0.83700	5095.00000
0.83730	5105.00000
0.83770	5114.00000
0.83800	5103.00000
0.83840	5091.00000
0.83870	5116.00000
0.83910	5097.00000
0.83940	5134.00000
0.83980	5103.00000
0.84010	5097.00000
0.84050	4955.00000
0.84080	5042.00000
0.84120	5060.00000
0.84150	5021.00000
0.84190	5058.00000
0.84220	5127.00000
0.84260	5127.00000
0.84290	5144.00000
0.84330	5046.00000
0.84360	4950.00000
0.84400	4981.00000
0.84430	5041.00000
0.84470	5059.00000
0.84500	5084.00000
0.84540	5075.00000
0.84570	5119.00000
0.84610	5164.00000
0.84640	5135.00000
0.84680	5036.00000
0.84710	5026.00000
0.84750	5092.00000
0.84780	5097.00000
0.84820	5095.00000
0.84850	5197.00000
0.84890	5086.00000
0.84920	5113.00000
0.84950	5061.00000
0.84990	5006.00000
0.85020	5137.00000
0.85060	5133.00000
0.85090	5026.00000
0.85130	5016.00000
0.85160	5009.00000
0.85200	5033.00000
0.85230	5135.00000
0.85270	5098.00000
0.85300	5083.00000
0.85340	5075.00000
0.85370	5103.00000
0.85410	5066.00000
0.85440	5074.00000
0.85480	5075.00000
0.85510	5116.00000
0.85550	5082.00000
0.85580	5020.00000
0.85620	4950.00000
0.85650	5023.00000
0.85690	5104.00000
0.85720	5129.00000
0.85760	5039.00000
0.85790	5024.00000
0.85830	5030.00000
0.85860	5033.00000
0.85900	4996.00000
0.85930	4999.00000
0.85970	5057.00000
0.86000	5098.00000
0.86040	5069.00000
0.86070	4985.00000
0.86110	5006.00000
0.86140	5154.00000
0.86180	5109.00000
0.86210	5087.00000
0.86250	5010.00000
0.86280	5011.00000
0.86320	5050.00000
0.86350	5007.00000
0.86390	4979.00000
0.86420	5115.00000
0.86460	5186.00000
0.86490	5127.00000
0.86530	5010.00000
0.86560	5024.00000
0.86600	5059.00000
0.86630	5139.00000
0.86670	5134.00000
0.86700	5126.00000
0.86740	5182.00000
0.86770	5113.00000
0.86800	5080.00000
0.86840	5172.00000
0.86870	5076.00000
0.86910	5032.00000
0.86940	5113.00000
0.86980	5130.00000
0.87010	5197.00000
0.87050	5290.00000
0.87080	5146.00000
0.87120	5248.00000
0.87150	5314.00000
0.87190	5405.00000
0.87220	5455.00000
0.87260	5539.00000
0.87290	5528.00000
0.87330	5570.00000
0.87360	5421.00000
0.87400	5429.00000
0.87430	5412.00000
0.87470	5361.00000
0.87500	5347.00000
0.87540	5326.00000
0.87570	5264.00000
0.87610	5239.00000
0.87640	5180.00000
0.87680	5188.00000
0.87710	5237.00000
0.87750	5168.00000
0.87780	5124.00000
0.87820	5098.00000
0.87850	5101.00000
0.87890	5122.00000
0.87920	5110.00000
0.87960	5102.00000
0.87990	5100.00000
0.88030	4994.00000
0.88060	5132.00000
0.88100	5089.00000
0.88130	5021.00000
0.88170	4994.00000
0.88200	5090.00000
0.88240	5052.00000
0.88270	5103.00000
0.88310	5112.00000
0.88340	5039.00000
0.88380	5053.00000
0.88410	5091.00000
0.88450	5129.00000
0.88480	5005.00000
0.88520	5044.00000
0.88550	5088.00000
0.88590	4993.00000
0.88620	5012.00000
0.88650	5115.00000
0.88690	5030.00000
0.88720	5042.00000
0.88760	5067.00000
0.88790	5100.00000
0.88830	5067.00000
0.88860	5013.00000
0.88900	5043.00000
0.88930	4983.00000
0.88970	5014.00000
0.89000	5062.00000
0.89040	4985.00000
0.89070	4991.00000
0.89110	5158.00000
0.89140	5145.00000
0.89180	5093.00000
0.89210	5236.00000
0.89250	5136.00000
0.89280	5166.00000
0.89320	5291.00000
0.89350	5182.00000
0.89390	5421.00000
0.89420	5404.00000
0.89460	5376.00000
0.89490	5489.00000
0.89530	5581.00000
0.89560	5684.00000
0.89600	5604.00000
0.89630	5773.00000
0.89670	5969.00000
0.89700	6035.00000
0.89740	6030.00000
0.89770	6136.00000
0.89810	6311.00000
0.89840	6440.00000
0.89880	6312.00000
0.89910	6380.00000
0.89950	6220.00000
0.89980	5982.00000
0.90020	5915.00000
0.90050	5809.00000
0.90090	5742.00000
0.90120	5591.00000
0.90160	5509.00000
0.90190	5468.00000
0.90230	5390.00000
0.90260	5368.00000
0.90300	5349.00000
0.90330	5277.00000
0.90370	5245.00000
0.90400	5202.00000
0.90440	5249.00000
0.90470	5253.00000
0.90510	5176.00000
0.90540	5290.00000
0.90570	5166.00000
0.90610	5118.00000
0.90640	5125.00000
0.90680	5129.00000
0.90710	5035.00000
0.90750	5146.00000
0.90780	5084.00000
0.90820	5058.00000
0.90850	5067.00000
0.90890	5091.00000
0.90920	5109.00000
0.90960	5146.00000
0.90990	4989.00000
0.91030	5038.00000
0.91060	5031.00000
0.91100	5056.00000
0.91130	5183.00000
0.91170	5046.00000
0.91200	5057.00000
0.91240	5034.00000
0.91270	4982.00000
0.91310	4972.00000
0.91340	5074.00000
0.91380	5053.00000
0.91410	5130.00000
0.91450	4977.00000
0.91480	4990.00000
0.91520	5002.00000
0.91550	4963.00000
0.91590	5007.00000
0.91620	5099.00000
0.91660	5018.00000
0.91690	5021.00000
0.91730	4980.00000
0.91760	4978.00000
0.91800	5070.00000
0.91830	5032.00000
0.91870	5000.00000
0.91900	5072.00000
0.91940	4961.00000
0.91970	4894.00000
0.92010	5027.00000
0.92040	5032.00000
0.92080	5071.00000
0.92110	5010.00000
0.92150	4961.00000
0.92180	4952.00000
0.92220	4969.00000
0.92250	4994.00000
0.92290	4998.00000
0.92320	5047.00000
0.92360	4978.00000
0.92390	4952.00000
0.92420	5000.00000
0.92460	4974.00000
0.92490	4992.00000
0.92530	5036.00000
0.92560	5069.00000
0.92600	5066.00000
0.92630	4975.00000
0.92670	5074.00000
0.92700	4982.00000
0.92740	5005.00000
0.92770	5012.00000
0.92810	4972.00000
0.92840	5016.00000
0.92880	5073.00000
0.92910	4997.00000
0.92950	5093.00000
0.92980	5059.00000
0.93020	5015.00000
0.93050	4984.00000
0.93090	5018.00000
0.93120	5039.00000
0.93160	5023.00000
0.93190	5022.00000
0.93230	4980.00000
0.93260	5123.00000
0.93300	5042.00000
0.93330	5026.00000
0.93370	4999.00000
0.93400	5102.00000
0.93440	5013.00000
0.93470	5047.00000
0.93510	5110.00000
0.93540	5038.00000
0.93580	5083.00000
0.93610	5111.00000
0.93650	5131.00000
0.93680	5032.00000
0.93720	5107.00000
0.93750	5098.00000
0.93790	5121.00000
0.93820	5094.00000
0.93860	5177.00000
0.93890	5014.00000
0.93930	5124.00000
0.93960	5109.00000
0.94000	5085.00000
0.94030	5018.00000
0.94070	5013.00000
0.94100	5023.00000
0.94140	5192.00000
0.94170	5053.00000
0.94210	5194.00000
0.94240	5041.00000
0.94270	5048.00000
0.94310	5042.00000
0.94340	5019.00000
0.94380	4997.00000
0.94410	4929.00000
0.94450	5038.00000
0.94480	5025.00000
0.94520	4922.00000
0.94550	4961.00000
0.94590	4953.00000
0.94620	5017.00000
0.94660	5089.00000
0.94690	5042.00000
0.94730	5068.00000
0.94760	4984.00000
0.94800	4976.00000
0.94830	5024.00000
0.94870	5001.00000
0.94900	5008.00000
0.94940	4933.00000
0.94970	4960.00000
0.95010	5041.00000
0.95040	5054.00000
0.95080	5020.00000
0.95110	5027.00000
0.95150	4985.00000
0.95180	5015.00000
0.95220	5152.00000
0.95250	5020.00000
0.95290	4993.00000
0.95320	5010.00000
0.95360	4983.00000
0.95390	4962.00000
0.95430	4920.00000
0.95460	5000.00000
0.95500	4978.00000
0.95530	5000.00000
0.95570	4980.00000
0.95600	5026.00000
0.95640	5002.00000
0.95670	5120.00000
0.95710	4998.00000
0.95740	5081.00000
0.95780	5066.00000
0.95810	4988.00000
0.95850	4942.00000
0.95880	5032.00000
0.95920	5025.00000
0.95950	4998.00000
0.95990	5022.00000
0.96020	4953.00000
0.96060	4983.00000
0.96090	4999.00000
0.96120	4994.00000
0.96160	4912.00000
0.96190	4853.00000
0.96230	5152.00000
0.96260	5071.00000
0.96300	5012.00000
0.96330	5055.00000
0.96370	4945.00000
0.96400	5005.00000
0.96440	4973.00000
0.96470	4995.00000
0.96510	4993.00000
0.96540	5166.00000
0.96580	5092.00000
0.96610	5040.00000
0.96650	5012.00000
0.96680	5007.00000
0.96720	5098.00000
0.96750	5121.00000
0.96790	5119.00000
0.96820	5219.00000
0.96860	5252.00000
0.96890	5351.00000
0.96930	5414.00000
0.96960	5613.00000
0.97000	5835.00000
0.97030	5979.00000
0.97070	6059.00000
0.97100	6378.00000
0.97140	6543.00000
0.97170	6746.00000
0.97210	6665.00000
0.97240	6626.00000
0.97280	6493.00000
0.97310	6383.00000
0.97350	6209.00000
0.97380	6096.00000
0.97420	5745.00000
0.97450	5571.00000
0.97490	5516.00000
0.97520	5384.00000
0.97560	5367.00000
0.97590	5335.00000
0.97630	5391.00000
0.97660	5202.00000
0.97700	5157.00000
0.97730	5266.00000
0.97770	5128.00000
0.97800	5217.00000
0.97840	5162.00000
0.97870	5148.00000
0.97910	5131.00000
0.97940	5107.00000
0.97980	5073.00000
0.98010	5082.00000
0.98040	5083.00000
0.98080	5007.00000
0.98110	5047.00000
0.98150	5071.00000
0.98180	4974.00000
0.98220	5061.00000
0.98250	4961.00000
0.98290	5117.00000
0.98320	5087.00000
0.98360	5125.00000
0.98390	5197.00000
0.98430	5197.00000
0.98460	5190.00000
0.98500	5330.00000
0.98530	5349.00000
0.98570	5461.00000
0.98600	5499.00000
0.98640	5581.00000
0.98670	5476.00000
0.98710	5596.00000
0.98740	5763.00000
0.98780	5775.00000
0.98810	5765.00000
0.98850	5858.00000
0.98880	5861.00000
0.98920	5834.00000
0.98950	5775.00000
0.98990	5812.00000
0.99020	5793.00000
0.99060	5660.00000
0.99090	5645.00000
0.99130	5807.00000
0.99160	5696.00000
0.99200	5457.00000
0.99230	5521.00000
0.99270	5506.00000
0.99300	5520.00000
0.99340	5282.00000
0.99370	5293.00000
0.99410	5322.00000
0.99440	5297.00000
0.99480	5254.00000
0.99510	5172.00000
0.99550	5109.00000
0.99580	5115.00000
0.99620	5018.00000
0.99650	5040.00000
0.99690	5120.00000
0.99720	5166.00000
0.99760	5184.00000
0.99790	5076.00000
0.99830	5295.00000
0.99860	5309.00000
0.99890	5301.00000
0.99930	5175.00000
0.99960	5328.00000
1.00000	5355.00000
1.00030	5360.00000
1.00070	5369.00000
1.00100	5413.00000
1.00140	5485.00000
1.00170	5545.00000
1.00210	5647.00000
1.00240	5730.00000
1.00280	5805.00000
1.00310	5923.00000
1.00350	6096.00000
1.00380	6073.00000
1.00420	6103.00000
1.00450	6490.00000
1.00490	6648.00000
1.00520	6832.00000
1.00560	7014.00000
1.00590	7164.00000
1.00630	7150.00000
1.00660	7322.00000
1.00700	7490.00000
1.00730	7390.00000
1.00770	7695.00000
1.00800	7849.00000
1.00840	7670.00000
1.00870	7682.00000
1.00910	7461.00000
1.00940	7407.00000
1.00980	7266.00000
1.01010	7049.00000
1.01050	6967.00000
1.01080	6784.00000
1.01120	6709.00000
1.01150	6592.00000
1.01190	6404.00000
1.01220	6260.00000
1.01260	6161.00000
1.01290	6023.00000
1.01330	5827.00000
1.01360	5822.00000
1.01400	5700.00000
1.01430	5714.00000
1.01470	5705.00000
1.01500	5712.00000
1.01540	5664.00000
1.01570	5543.00000
1.01610	5471.00000
1.01640	5547.00000
1.01680	5461.00000
1.01710	5283.00000
1.01740	5419.00000
1.01780	5394.00000
1.01810	5327.00000
1.01850	5354.00000
1.01880	5270.00000
1.01920	5272.00000
1.01950	5293.00000
1.01990	5305.00000
1.02020	5277.00000
1.02060	5181.00000
1.02090	5022.00000
1.02130	5082.00000
1.02160	5134.00000
1.02200	5070.00000
1.02230	4997.00000
1.02270	5015.00000
1.02300	5011.00000
1.02340	5058.00000
1.02370	5012.00000
1.02410	5089.00000
1.02440	4976.00000
1.02480	5090.00000
1.02510	5089.00000
1.02550	5019.00000
1.02580	4926.00000
1.02620	4974.00000
1.02650	5042.00000
1.02690	4965.00000
1.02720	4917.00000
1.02760	5048.00000
1.02790	5035.00000
1.02830	4972.00000
1.02860	4903.00000
1.02900	4882.00000
1.02930	4899.00000
1.02970	4869.00000
1.03000	4996.00000
1.03040	4953.00000
1.03070	4975.00000
1.03110	4884.00000
1.03140	4903.00000
1.03180	4968.00000
1.03210	4997.00000
1.03250	4908.00000
1.03280	4969.00000
1.03320	4968.00000
1.03350	4926.00000
1.03390	4860.00000
1.03420	4970.00000
1.03460	4936.00000
1.03490	4877.00000
1.03530	4895.00000
1.03560	4894.00000
1.03590	4919.00000
1.03630	4980.00000
1.03660	4980.00000
1.03700	4943.00000
1.03730	4889.00000
1.03770	4846.00000
1.03800	4922.00000
1.03840	4876.00000
1.03870	4998.00000
1.03910	5001.00000
1.03940	5013.00000
1.03980	4922.00000
1.04010	4892.00000
1.04050	4962.00000
1.04080	4863.00000
1.04120	4945.00000
1.04150	5018.00000
1.04190	4914.00000
1.04220	4949.00000
1.04260	4849.00000
1.04290	4838.00000
1.04330	4912.00000
1.04360	4915.00000
1.04400	4896.00000
1.04430	4900.00000
1.04470	4863.00000
1.04500	4902.00000
1.04540	4875.00000
1.04570	4972.00000
1.04610	4938.00000
1.04640	4957.00000
1.04680	4884.00000
1.04710	4856.00000
1.04750	4933.00000
1.04780	4923.00000
1.04820	4916.00000
1.04850	4812.00000
1.04890	4849.00000
1.04920	4834.00000
1.04960	4877.00000
1.04990	4878.00000
1.05030	4875.00000
1.05060	4916.00000
1.05100	4894.00000
1.05130	4905.00000
1.05170	4980.00000
1.05200	4919.00000
1.05240	4847.00000
1.05270	4856.00000
1.05310	4882.00000
1.05340	4891.00000
1.05380	4844.00000
1.05410	4898.00000
1.05450	4863.00000
1.05480	4890.00000
1.05510	4940.00000
1.05550	4922.00000
1.05580	4826.00000
1.05620	4796.00000
1.05650	4760.00000
1.05690	4772.00000
1.05720	4848.00000
1.05760	4938.00000
1.05790	4929.00000
1.05830	4867.00000
1.05860	4873.00000
1.05900	4900.00000
1.05930	4900.00000
1.05970	4900.00000
1.06000	4815.00000
1.06040	4850.00000
1.06070	4893.00000
1.06110	4867.00000
1.06140	4832.00000
1.06180	4896.00000
1.06210	4826.00000
1.06250	4892.00000
1.06280	4864.00000
1.06320	4842.00000
1.06350	4807.00000
1.06390	4918.00000
1.06420	4979.00000
1.06460	4951.00000
1.06490	4904.00000
1.06530	4899.00000
1.06560	4801.00000
1.06600	4903.00000
1.06630	4864.00000
1.06670	4887.00000
1.06700	4907.00000
1.06740	4832.00000
1.06770	4922.00000
1.06810	4918.00000
1.06840	4825.00000
1.06880	4984.00000
1.06910	4906.00000
1.06950	4936.00000
1.06980	4885.00000
1.07020	4988.00000
1.07050	5005.00000
1.07090	4924.00000
1.07120	4823.00000
1.07160	4943.00000
1.07190	4878.00000
1.07230	4931.00000
1.07260	4916.00000
1.07300	4824.00000
1.07330	4871.00000
1.07360	4938.00000
1.07400	4946.00000
1.07430	4872.00000
1.07470	4924.00000
1.07500	4954.00000
1.07540	4987.00000
1.07570	4874.00000
1.07610	4838.00000
1.07640	4837.00000
1.07680	4858.00000
1.07710	4833.00000
1.07750	4862.00000
1.07780	4866.00000
1.07820	4941.00000
1.07850	4925.00000
1.07890	4975.00000
1.07920	5025.00000
1.07960	4941.00000
1.07990	4874.00000
1.08030	4856.00000
1.08060	4942.00000
1.08100	4903.00000
1.08130	4997.00000
1.08170	5015.00000
1.08200	4995.00000
1.08240	4885.00000
1.08270	4911.00000
1.08310	5037.00000
1.08340	5106.00000
1.08380	5055.00000
1.08410	5014.00000
1.08450	5110.00000
1.08480	5180.00000
1.08520	5177.00000
1.08550	5155.00000
1.08590	5281.00000
1.08620	5314.00000
1.08660	5388.00000
1.08690	5301.00000
1.08730	5335.00000
1.08760	5314.00000
1.08800	5376.00000
1.08830	5345.00000
1.08870	5286.00000
1.08900	5242.00000
1.08940	5212.00000
1.08970	5119.00000
1.09010	4975.00000
1.09040	4930.00000
1.09080	4958.00000
1.09110	4879.00000
1.09150	4931.00000
1.09180	4954.00000
1.09210	4946.00000
1.09250	4909.00000
1.09280	4954.00000
1.09320	4939.00000
1.09350	4859.00000
1.09390	4896.00000
1.09420	4918.00000
1.09460	4878.00000
1.09490	4887.00000
1.09530	4948.00000
1.09560	4895.00000
1.09600	4861.00000
1.09630	4830.00000
1.09670	4829.00000
1.09700	4825.00000
1.09740	4883.00000
1.09770	4835.00000
1.09810	4813.00000
1.09840	4898.00000
1.09880	4848.00000
1.09910	4860.00000
1.09950	4869.00000
1.09980	4893.00000
1.10020	4865.00000
1.10050	4891.00000
1.10090	4814.00000
1.10120	4871.00000
1.10160	5014.00000
1.10190	4918.00000
1.10230	4852.00000
1.10260	4969.00000
1.10300	4982.00000
1.10330	4947.00000
1.10370	4958.00000
1.10400	5019.00000
1.10440	4928.00000
1.10470	4848.00000
1.10510	4836.00000
1.10540	4902.00000
1.10580	4833.00000
1.10610	4851.00000
1.10650	4860.00000
1.10680	4868.00000
1.10720	4907.00000
1.10750	4877.00000
1.10790	4905.00000
1.10820	4872.00000
1.10860	4936.00000
1.10890	4968.00000
1.10930	4916.00000
1.10960	5026.00000
1.11000	4916.00000
1.11030	4907.00000
1.11070	4964.00000
1.11100	4903.00000
1.11130	5023.00000
1.11170	4938.00000
1.11200	4902.00000
1.11240	4980.00000
1.11270	4910.00000
1.11310	4969.00000
1.11340	4831.00000
1.11380	4867.00000
1.11410	4935.00000
1.11450	4936.00000
1.11480	4868.00000
1.11520	4854.00000
1.11550	4864.00000
1.11590	4867.00000
1.11620	4937.00000
1.11660	4964.00000
1.11690	4961.00000
1.11730	4847.00000
1.11760	4956.00000
1.11800	4991.00000
1.11830	4950.00000
1.11870	4916.00000
1.11900	4815.00000
1.11940	4902.00000
1.11970	4852.00000
1.12010	4923.00000
1.12040	4896.00000
1.12080	4913.00000
1.12110	4926.00000
1.12150	4915.00000
1.12180	4937.00000
1.12220	4813.00000
1.12250	4897.00000
1.12290	4959.00000
1.12320	4946.00000
1.12360	4877.00000
1.12390	4892.00000
1.12430	4909.00000
1.12460	4883.00000
1.12500	4980.00000
1.12530	4995.00000
1.12570	4919.00000
1.12600	4967.00000
1.12640	5020.00000
1.12670	5046.00000
1.12710	4986.00000
1.12740	4984.00000
1.12780	4993.00000
1.12810	4916.00000
1.12850	4849.00000
1.12880	5051.00000
1.12920	4910.00000
1.12950	4866.00000
1.12980	4901.00000
1.13020	4936.00000
1.13050	4898.00000
1.13090	4906.00000
1.13120	4880.00000
1.13160	4944.00000
1.13190	4964.00000
1.13230	4926.00000
1.13260	4972.00000
1.13300	5023.00000
1.13330	4879.00000
1.13370	4905.00000
1.13400	4952.00000
1.13440	4951.00000
1.13470	4894.00000
1.13510	4850.00000
1.13540	4884.00000
1.13580	4816.00000
1.13610	4877.00000
1.13650	4910.00000
1.13680	4824.00000
1.13720	4890.00000
1.13750	4819.00000
1.13790	4834.00000
1.13820	4797.00000
1.13860	4930.00000
1.13890	4825.00000
1.13930	4853.00000
1.13960	4873.00000
1.14000	4948.00000
1.14030	4957.00000
1.14070	4858.00000
1.14100	4848.00000
1.14140	4767.00000
1.14170	4883.00000
1.14210	4892.00000
1.14240	4850.00000
1.14280	4840.00000
1.14310	4927.00000
1.14350	4919.00000
1.14380	4827.00000
1.14420	4920.00000
1.14450	4891.00000
1.14490	4969.00000
1.14520	4913.00000
1.14560	4975.00000
1.14590	4873.00000
1.14630	4924.00000
1.14660	4846.00000
1.14700	4911.00000
1.14730	4953.00000
1.14770	5039.00000
1.14800	5007.00000
1.14830	4963.00000
1.14870	5000.00000
1.14900	5001.00000
1.14940	4947.00000
1.14970	5118.00000
1.15010	5019.00000
1.15040	4961.00000
1.15080	4975.00000
1.15110	4991.00000
1.15150	4946.00000
1.15180	5005.00000
1.15220	4891.00000
1.15250	4799.00000
1.15290	4889.00000
1.15320	4912.00000
1.15360	4928.00000
1.15390	4823.00000
1.15430	4885.00000
1.15460	4816.00000
1.15500	4851.00000
1.15530	4872.00000
1.15570	4950.00000
1.15600	4886.00000
1.15640	4892.00000
1.15670	4918.00000
1.15710	4912.00000
1.15740	4881.00000
1.15780	4819.00000
1.15810	4855.00000
1.15850	4856.00000
1.15880	4815.00000
1.15920	4843.00000
1.15950	4871.00000
1.15990	4958.00000
1.16020	4879.00000
1.16060	4786.00000
1.16090	4881.00000
1.16130	4880.00000
1.16160	4919.00000
1.16200	4979.00000
1.16230	4862.00000
1.16270	4910.00000
1.16300	4868.00000
1.16340	4933.00000
1.16370	4937.00000
1.16410	5011.00000
1.16440	5017.00000
1.16480	5069.00000
1.16510	5031.00000
1.16550	5144.00000
1.16580	5202.00000
1.16620	5072.00000
1.16650	5244.00000
1.16680	5186.00000
1.16720	5188.00000
1.16750	5295.00000
1.16790	5343.00000
1.16820	5372.00000
1.16860	5392.00000
1.16890	5422.00000
1.16930	5562.00000
1.16960	5617.00000
1.17000	5615.00000
1.17030	5604.00000
1.17070	5611.00000
1.17100	5733.00000
1.17140	5708.00000
1.17170	5667.00000
1.17210	5727.00000
1.17240	5650.00000
1.17280	5726.00000
1.17310	5635.00000
1.17350	5559.00000
1.17380	5523.00000
1.17420	5453.00000
1.17450	5359.00000
1.17490	5384.00000
1.17520	5317.00000
1.17560	5333.00000
1.17590	5164.00000
1.17630	5131.00000
1.17660	5119.00000
1.17700	5103.00000
1.17730	5185.00000
1.17770	5065.00000
1.17800	4957.00000
1.17840	5076.00000
1.17870	4979.00000
1.17910	5044.00000
1.17940	4942.00000
1.17980	4910.00000
1.18010	4904.00000
1.18050	4979.00000
1.18080	4975.00000
1.18120	4979.00000
1.18150	4994.00000
1.18190	4990.00000
1.18220	4945.00000
1.18260	4963.00000
1.18290	4863.00000
1.18330	4882.00000
1.18360	4845.00000
1.18400	4920.00000
1.18430	4996.00000
1.18470	4994.00000
1.18500	4939.00000
1.18540	4841.00000
1.18570	4898.00000
1.18600	4835.00000
1.18640	4835.00000
1.18670	4912.00000
1.18710	4979.00000
1.18740	4953.00000
1.18780	4973.00000
1.18810	4964.00000
1.18850	4999.00000
1.18880	4937.00000
1.18920	4988.00000
1.18950	4945.00000
1.18990	5019.00000
1.19020	5000.00000
1.19060	4985.00000
1.19090	4942.00000
1.19130	5120.00000
1.19160	5141.00000
1.19200	5143.00000
1.19230	5083.00000
1.19270	5044.00000
1.19300	5064.00000
1.19340	5058.00000
1.19370	4976.00000
1.19410	5039.00000
1.19440	5104.00000
1.19480	5037.00000
1.19510	5131.00000
1.19550	5029.00000
1.19580	4895.00000
1.19620	4965.00000
1.19650	4996.00000
1.19690	5065.00000
1.19720	5032.00000
1.19760	4987.00000
1.19790	4971.00000
1.19830	5063.00000
1.19860	4909.00000
1.19900	4834.00000
1.19930	4938.00000
1.19970	4927.00000
1.20000	4921.00000
1.20040	5014.00000
1.20070	5093.00000
1.20110	4903.00000
1.20140	4844.00000
1.20180	4901.00000
1.20210	4989.00000
1.20250	4880.00000
1.20280	4954.00000
1.20320	4936.00000
1.20350	4916.00000
1.20390	4864.00000
1.20420	4825.00000
1.20450	4748.00000
1.20490	4888.00000
1.20520	4904.00000
1.20560	4858.00000
1.20590	4859.00000
1.20630	4857.00000
1.20660	4862.00000
1.20700	4875.00000
1.20730	4898.00000
1.20770	4856.00000
1.20800	4804.00000
1.20840	4811.00000
1.20870	4826.00000
1.20910	4906.00000
1.20940	4892.00000
1.20980	4954.00000
1.21010	4975.00000
1.21050	4930.00000
1.21080	4941.00000
1.21120	4888.00000
1.21150	4904.00000
1.21190	5045.00000
1.21220	5065.00000
1.21260	4989.00000
1.21290	4998.00000
1.21330	5006.00000
1.21360	5032.00000
1.21400	5082.00000
1.21430	5041.00000
1.21470	4925.00000
1.21500	4920.00000
1.21540	4944.00000
1.21570	4999.00000
1.21610	5113.00000
1.21640	4971.00000
1.21680	4855.00000
1.21710	4954.00000
1.21750	4942.00000
1.21780	4927.00000
1.21820	4955.00000
1.21850	4954.00000
1.21890	4934.00000
1.21920	4933.00000
1.21960	4927.00000
1.21990	4839.00000
1.22030	4922.00000
1.22060	4900.00000
1.22100	4837.00000
1.22130	4864.00000
1.22170	4909.00000
1.22200	4818.00000
1.22240	4768.00000
1.22270	4833.00000
1.22300	4840.00000
1.22340	4945.00000
1.22370	4846.00000
1.22410	4889.00000
1.22440	4969.00000
1.22480	4900.00000
1.22510	4914.00000
1.22550	4877.00000
1.22580	4860.00000
1.22620	4837.00000
1.22650	4863.00000
1.22690	4952.00000
1.22720	4839.00000
1.22760	4831.00000
1.22790	4825.00000
1.22830	4942.00000
1.22860	4796.00000
1.22900	4911.00000
1.22930	4871.00000
1.22970	4907.00000
1.23000	4925.00000
1.23040	4943.00000
1.23070	4814.00000
1.23110	4947.00000
1.23140	4901.00000
1.23180	4932.00000
1.23210	4885.00000
1.23250	4847.00000
1.23280	4946.00000
1.23320	4941.00000
1.23350	5051.00000
1.23390	5112.00000
1.23420	4983.00000
1.23460	4897.00000
1.23490	4956.00000
1.23530	4982.00000
1.23560	5053.00000
1.23600	5167.00000
1.23630	5052.00000
1.23670	5043.00000
1.23700	4990.00000
1.23740	5175.00000
1.23770	4969.00000
1.23810	5043.00000
1.23840	5015.00000
1.23880	5007.00000
1.23910	5046.00000
1.23950	4972.00000
1.23980	5074.00000
1.24020	5119.00000
1.24050	4926.00000
1.24090	4946.00000
1.24120	4938.00000
1.24150	5010.00000
1.24190	4920.00000
1.24220	4855.00000
1.24260	4972.00000
1.24290	4935.00000
1.24330	4985.00000
1.24360	4955.00000
1.24400	4983.00000
1.24430	5041.00000
1.24470	4938.00000
1.24500	4921.00000
1.24540	4905.00000
1.24570	4910.00000
1.24610	4846.00000
1.24640	4882.00000
1.24680	4919.00000
1.24710	4911.00000
1.24750	4950.00000
1.24780	4920.00000
1.24820	4970.00000
1.24850	4900.00000
1.24890	4828.00000
1.24920	4868.00000
1.24960	4841.00000
1.24990	4866.00000
1.25030	4822.00000
1.25060	4811.00000
1.25100	4858.00000
1.25130	4774.00000
1.25170	4833.00000
1.25200	4957.00000
1.25240	4857.00000
1.25270	4821.00000
1.25310	4823.00000
1.25340	4771.00000
1.25380	4856.00000
1.25410	4865.00000
1.25450	4861.00000
1.25480	4917.00000
1.25520	4890.00000
1.25550	4893.00000
1.25590	4889.00000
1.25620	4836.00000
1.25660	4917.00000
1.25690	4837.00000
1.25730	4886.00000
1.25760	4877.00000
1.25800	4933.00000
1.25830	4827.00000
1.25870	4931.00000
1.25900	4893.00000
1.25940	4903.00000
1.25970	4824.00000
1.26010	4972.00000
1.26040	4879.00000
1.26070	4830.00000
1.26110	4883.00000
1.26140	4928.00000
1.26180	4910.00000
1.26210	4868.00000
1.26250	4952.00000
1.26280	4931.00000
1.26320	4995.00000
1.26350	4954.00000
1.26390	5011.00000
1.26420	5005.00000
1.26460	5040.00000
1.26490	5113.00000
1.26530	4965.00000
1.26560	4977.00000
1.26600	4991.00000
1.26630	4935.00000
1.26670	4993.00000
1.26700	4892.00000
1.26740	4992.00000
1.26770	5013.00000
1.26810	4920.00000
1.26840	4966.00000
1.26880	5005.00000
1.26910	4880.00000
1.26950	4899.00000
1.26980	4823.00000
1.27020	4823.00000
1.27050	4851.00000
1.27090	4904.00000
1.27120	4769.00000
1.27160	4910.00000
1.27190	4903.00000
1.27230	4947.00000
1.27260	4813.00000
1.27300	4876.00000
1.27330	4809.00000
1.27370	4846.00000
1.27400	4856.00000
1.27440	4820.00000
1.27470	4919.00000
1.27510	4922.00000
1.27540	4835.00000
1.27580	4908.00000
1.27610	4990.00000
1.27650	4879.00000
1.27680	4989.00000
1.27720	4910.00000
1.27750	4893.00000
1.27790	4873.00000
1.27820	4884.00000
1.27860	4847.00000
1.27890	4833.00000
1.27920	4884.00000
1.27960	4883.00000
1.27990	4869.00000
1.28030	4902.00000
1.28060	4809.00000
1.28100	4890.00000
1.28130	4823.00000
1.28170	4819.00000
1.28200	4824.00000
1.28240	4894.00000
1.28270	4802.00000
1.28310	4881.00000
1.28340	4832.00000
1.28380	4773.00000
1.28410	4785.00000
1.28450	4834.00000
1.28480	4837.00000
1.28520	4880.00000
1.28550	4906.00000
1.28590	4864.00000
1.28620	4835.00000
1.28660	4821.00000
1.28690	4915.00000
1.28730	4988.00000
1.28760	4848.00000
1.28800	4908.00000
1.28830	4797.00000
1.28870	4813.00000
1.28900	4792.00000
1.28940	4825.00000
1.28970	4787.00000
1.29010	4799.00000
1.29040	4816.00000
1.29080	4841.00000
1.29110	4732.00000
1.29150	4801.00000
1.29180	4813.00000
1.29220	4876.00000
1.29250	4888.00000
1.29290	4903.00000
1.29320	4882.00000
1.29360	4937.00000
1.29390	4857.00000
1.29430	4849.00000
1.29460	4799.00000
1.29500	4816.00000
1.29530	4784.00000
1.29570	4845.00000
1.29600	4899.00000
1.29640	4888.00000
1.29670	4983.00000
1.29710	4970.00000
1.29740	5063.00000
1.29770	4900.00000
1.29810	4929.00000
1.29840	5016.00000
1.29880	4901.00000
1.29910	4881.00000
1.29950	5052.00000
1.29980	4963.00000
1.30020	4947.00000
1.30050	4964.00000
1.30090	4992.00000
1.30120	4917.00000
1.30160	4870.00000
1.30190	4923.00000
1.30230	4908.00000
1.30260	4838.00000
1.30300	4863.00000
1.30330	4868.00000
1.30370	4836.00000
1.30400	4818.00000
1.30440	4902.00000
1.30470	4869.00000
1.30510	4900.00000
1.30540	4906.00000
1.30580	4853.00000
1.30610	4882.00000
1.30650	4859.00000
1.30680	4918.00000
1.30720	4851.00000
1.30750	4819.00000
1.30790	4890.00000
1.30820	4911.00000
1.30860	4938.00000
1.30890	4842.00000
1.30930	4835.00000
1.30960	4860.00000
1.31000	4884.00000
1.31030	4805.00000
1.31070	4870.00000
1.31100	4834.00000
1.31140	4829.00000
1.31170	4791.00000
1.31210	5010.00000
1.31240	4868.00000
1.31280	4849.00000
1.31310	4936.00000
1.31350	4841.00000
1.31380	4842.00000
1.31420	4891.00000
1.31450	4831.00000
1.31490	4885.00000
1.31520	4880.00000
1.31560	4916.00000
1.31590	5017.00000
1.31620	4935.00000
1.31660	4990.00000
1.31690	4989.00000
1.31730	5070.00000
1.31760	5004.00000
1.31800	5172.00000
1.31830	5034.00000
1.31870	5142.00000
1.31900	5075.00000
1.31940	5154.00000
1.31970	5069.00000
1.32010	5127.00000
1.32040	5039.00000
1.32080	5056.00000
1.32110	5221.00000
1.32150	5121.00000
1.32180	5252.00000
1.32220	5050.00000
1.32250	5133.00000
1.32290	5068.00000
1.32320	5100.00000
1.32360	5296.00000
1.32390	5167.00000
1.32430	5086.00000
1.32460	5139.00000
1.32500	5154.00000
1.32530	5199.00000
1.32570	5182.00000
1.32600	5311.00000
1.32640	5258.00000
1.32670	5248.00000
1.32710	5254.00000
1.32740	5090.00000
1.32780	5170.00000
1.32810	5158.00000
1.32850	5126.00000
1.32880	5072.00000
1.32920	5084.00000
1.32950	4993.00000
1.32990	5026.00000
1.33020	5086.00000
1.33060	4982.00000
1.33090	5019.00000
1.33130	4960.00000
1.33160	4955.00000
1.33200	4936.00000
1.33230	5058.00000
1.33270	5072.00000
1.33300	5004.00000
1.33340	4970.00000
1.33370	4928.00000
1.33410	5002.00000
1.33440	5040.00000
1.33480	4993.00000
1.33510	4994.00000
1.33540	4943.00000
1.33580	5094.00000
1.33610	5036.00000
1.33650	5055.00000
1.33680	5049.00000
1.33720	4979.00000
1.33750	4998.00000
1.33790	5067.00000
1.33820	5079.00000
1.33860	5035.00000
1.33890	5091.00000
1.33930	5103.00000
1.33960	5041.00000
1.34000	5219.00000
1.34030	5170.00000
1.34070	5105.00000
1.34100	5138.00000
1.34140	5167.00000
1.34170	5295.00000
1.34210	5234.00000
1.34240	5198.00000
1.34280	5174.00000
1.34310	5262.00000
1.34350	5261.00000
1.34380	5281.00000
1.34420	5281.00000
1.34450	5382.00000
1.34490	5397.00000
1.34520	5448.00000
1.34560	5408.00000
1.34590	5396.00000
1.34630	5370.00000
1.34660	5463.00000
1.34700	5375.00000
1.34730	5287.00000
1.34770	5330.00000
1.34800	5172.00000
1.34840	5302.00000
1.34870	5340.00000
1.34910	5248.00000
1.34940	5273.00000
1.34980	5128.00000
1.35010	5181.00000
1.35050	5152.00000
1.35080	5206.00000
1.35120	5094.00000
1.35150	5065.00000
1.35190	5056.00000
1.35220	5026.00000
1.35260	5039.00000
1.35290	5045.00000
1.35330	4969.00000
1.35360	5058.00000
1.35390	4997.00000
1.35430	5044.00000
1.35460	5073.00000
1.35500	5151.00000
1.35530	5073.00000
1.35570	5138.00000
1.35600	5066.00000
1.35640	5022.00000
1.35670	5011.00000
1.35710	5029.00000
1.35740	5033.00000
1.35780	4985.00000
1.35810	4968.00000
1.35850	4968.00000
1.35880	5000.00000
1.35920	5019.00000
1.35950	5011.00000
1.35990	5020.00000
1.36020	5053.00000
1.36060	5027.00000
1.36090	4969.00000
1.36130	5041.00000
1.36160	5056.00000
1.36200	4932.00000
1.36230	4954.00000
1.36270	5021.00000
1.36300	4940.00000
1.36340	5037.00000
1.36370	5012.00000
1.36410	5050.00000
1.36440	5066.00000
1.36480	5000.00000
1.36510	4897.00000
1.36550	5013.00000
1.36580	4966.00000
1.36620	5067.00000
1.36650	5019.00000
1.36690	4997.00000
1.36720	4952.00000
1.36760	5078.00000
1.36790	5078.00000
1.36830	5038.00000
1.36860	4910.00000
1.36900	4920.00000
1.36930	4947.00000
1.36970	4986.00000
1.37000	4911.00000
1.37040	4919.00000
1.37070	4894.00000
1.37110	4925.00000
1.37140	4956.00000
1.37180	4963.00000
1.37210	4948.00000
1.37240	4966.00000
1.37280	4914.00000
1.37310	4777.00000
1.37350	4937.00000
1.37380	4905.00000
1.37420	4906.00000
1.37450	5043.00000
1.37490	4901.00000
1.37520	4866.00000
1.37560	4973.00000
1.37590	5118.00000
1.37630	5010.00000
1.37660	4967.00000
1.37700	4915.00000
1.37730	5048.00000
1.37770	4983.00000
1.37800	5069.00000
1.37840	5045.00000
1.37870	5140.00000
1.37910	5211.00000
1.37940	5062.00000
1.37980	5103.00000
1.38010	5127.00000
1.38050	5160.00000
1.38080	5168.00000
1.38120	5082.00000
1.38150	5124.00000
1.38190	5147.00000
1.38220	5174.00000
1.38260	5121.00000
1.38290	5011.00000
1.38330	5023.00000
1.38360	4955.00000
1.38400	5015.00000
1.38430	5025.00000
1.38470	4981.00000
1.38500	4995.00000
1.38540	4952.00000
1.38570	4965.00000
1.38610	4940.00000
1.38640	4914.00000
1.38680	4875.00000
1.38710	4931.00000
1.38750	4919.00000
1.38780	4885.00000
1.38820	5006.00000
1.38850	4983.00000
1.38890	5070.00000
1.38920	4882.00000
1.38960	4864.00000
1.38990	4926.00000
1.39030	4853.00000
1.39060	4916.00000
1.39090	4858.00000
1.39130	4887.00000
1.39160	5032.00000
1.39200	4969.00000
1.39230	4931.00000
1.39270	4801.00000
1.39300	4857.00000
1.39340	4815.00000
1.39370	4823.00000
1.39410	4941.00000
1.39440	4921.00000
1.39480	4923.00000
1.39510	4953.00000
1.39550	4842.00000
1.39580	4857.00000
1.39620	4957.00000
1.39650	5008.00000
1.39690	4927.00000
1.39720	4855.00000
1.39760	4855.00000
1.39790	4922.00000
1.39830	4916.00000
1.39860	4883.00000
1.39900	4929.00000
1.39930	4905.00000
1.39970	4921.00000
1.40000	4856.00000
1.40040	4954.00000
1.40070	4885.00000
1.40110	4891.00000
1.40140	4844.00000
1.40180	4775.00000
1.40210	4885.00000
1.40250	4971.00000
1.40280	4963.00000
1.40320	4909.00000
1.40350	4784.00000
1.40390	4825.00000
1.40420	4917.00000
1.40460	4900.00000
1.40490	4842.00000
1.40530	4885.00000
1.40560	4869.00000
1.40600	4931.00000
1.40630	4819.00000
1.40670	4876.00000
1.40700	4851.00000
1.40740	4829.00000
1.40770	4811.00000
1.40810	4917.00000
1.40840	4946.00000
1.40880	4825.00000
1.40910	4936.00000
1.40950	4941.00000
1.40980	4924.00000
1.41010	4871.00000
1.41050	4863.00000
1.41080	4894.00000
1.41120	4950.00000
1.41150	4922.00000
1.41190	4895.00000
1.41220	4872.00000
1.41260	4902.00000
1.41290	4826.00000
1.41330	4946.00000
1.41360	4949.00000
1.41400	4983.00000
1.41430	5010.00000
1.41470	5004.00000
1.41500	4942.00000
1.41540	4852.00000
1.41570	4923.00000
1.41610	5000.00000
1.41640	4935.00000
1.41680	4944.00000
1.41710	5076.00000
1.41750	5089.00000
1.41780	5021.00000
1.41820	5029.00000
1.41850	5068.00000
1.41890	5128.00000
1.41920	5103.00000
1.41960	5105.00000
1.41990	5049.00000
1.42030	5028.00000
1.42060	5095.00000
1.42100	5093.00000
1.42130	5031.00000
1.42170	5141.00000
1.42200	5032.00000
1.42240	5219.00000
1.42270	5098.00000
1.42310	5073.00000
1.42340	5074.00000
1.42380	5111.00000
1.42410	5089.00000
1.42450	5076.00000
1.42480	5137.00000
1.42520	5152.00000
1.42550	5008.00000
1.42590	5065.00000
1.42620	5088.00000
1.42660	5111.00000
1.42690	5127.00000
1.42730	5175.00000
1.42760	5169.00000
1.42800	5055.00000
1.42830	5028.00000
1.42860	4964.00000
1.42900	5112.00000
1.42930	5088.00000
1.42970	4892.00000
1.43000	5040.00000
1.43040	4988.00000
1.43070	4980.00000
1.43110	5003.00000
1.43140	5006.00000
1.43180	4976.00000
1.43210	4979.00000
1.43250	4980.00000
1.43280	4998.00000
1.43320	5013.00000
1.43350	4940.00000
1.43390	4988.00000
1.43420	4947.00000
1.43460	5001.00000
1.43490	4872.00000
1.43530	4956.00000
1.43560	4939.00000
1.43600	4869.00000
1.43630	4828.00000
1.43670	4903.00000
1.43700	4934.00000
1.43740	4861.00000
1.43770	4804.00000
1.43810	4880.00000
1.43840	4907.00000
1.43880	4953.00000
1.43910	4971.00000
1.43950	4875.00000
1.43980	4859.00000
1.44020	4853.00000
1.44050	4908.00000
1.44090	4949.00000
1.44120	4942.00000
1.44160	4851.00000
1.44190	4850.00000
1.44230	4905.00000
1.44260	4880.00000
1.44300	4900.00000
1.44330	4869.00000
1.44370	4997.00000
1.44400	4915.00000
1.44440	4862.00000
1.44470	4943.00000
1.44510	4900.00000
1.44540	4884.00000
1.44580	4965.00000
1.44610	5026.00000
1.44650	4936.00000
1.44680	4881.00000
1.44710	4917.00000
1.44750	4884.00000
1.44780	4855.00000
1.44820	4858.00000
1.44850	4786.00000
1.44890	4844.00000
1.44920	4848.00000
1.44960	4829.00000
1.44990	4874.00000
1.45030	4823.00000
1.45060	4996.00000
1.45100	4980.00000
1.45130	4901.00000
1.45170	4868.00000
1.45200	4897.00000
1.45240	4960.00000
1.45270	4922.00000
1.45310	4871.00000
1.45340	4888.00000
1.45380	4885.00000
1.45410	4919.00000
1.45450	4893.00000
1.45480	4904.00000
1.45520	4966.00000
1.45550	5005.00000
1.45590	5012.00000
1.45620	4987.00000
1.45660	5008.00000
1.45690	5110.00000
1.45730	5045.00000
1.45760	4987.00000
1.45800	4993.00000
1.45830	4924.00000
1.45870	4939.00000
1.45900	4982.00000
1.45940	4997.00000
1.45970	5018.00000
1.46010	4999.00000
1.46040	5022.00000
1.46080	4995.00000
1.46110	4972.00000
1.46150	4919.00000
1.46180	4879.00000
1.46220	4908.00000
1.46250	4960.00000
1.46290	5013.00000
1.46320	5093.00000
1.46360	4964.00000
1.46390	4857.00000
1.46430	4916.00000
1.46460	4931.00000
1.46500	4972.00000
1.46530	4874.00000
1.46560	4859.00000
1.46600	4893.00000
1.46630	4971.00000
1.46670	4867.00000
1.46700	4951.00000
1.46740	4959.00000
1.46770	4996.00000
1.46810	4933.00000
1.46840	4843.00000
1.46880	4905.00000
1.46910	4922.00000
1.46950	4852.00000
1.46980	4831.00000
1.47020	4934.00000
1.47050	4979.00000
1.47090	4988.00000
1.47120	4870.00000
1.47160	4839.00000
1.47190	4915.00000
1.47230	4838.00000
1.47260	4835.00000
1.47300	4815.00000
1.47330	4871.00000
1.47370	4919.00000
1.47400	4879.00000
1.47440	4974.00000
1.47470	4833.00000
1.47510	4861.00000
1.47540	4925.00000
1.47580	4878.00000
1.47610	4956.00000
1.47650	4911.00000
1.47680	4896.00000
1.47720	4937.00000
1.47750	5019.00000
1.47790	4979.00000
1.47820	4968.00000
1.47860	5004.00000
1.47890	5024.00000
1.47930	5059.00000
1.47960	5067.00000
1.48000	5086.00000
1.48030	5073.00000
1.48070	4970.00000
1.48100	4956.00000
1.48140	5075.00000
1.48170	5100.00000
1.48210	5078.00000
1.48240	5087.00000
1.48280	4999.00000
1.48310	5039.00000
1.48350	5093.00000
1.48380	5006.00000
1.48420	5026.00000
1.48450	4991.00000
1.48480	4994.00000
1.48520	4916.00000
1.48550	5003.00000
1.48590	4849.00000
1.48620	4797.00000
1.48660	4898.00000
1.48690	4967.00000
1.48730	4867.00000
1.48760	4898.00000
1.48800	4874.00000
1.48830	4871.00000
1.48870	4870.00000
1.48900	4919.00000
1.48940	4875.00000
1.48970	4853.00000
1.49010	4802.00000
1.49040	4764.00000
1.49080	4870.00000
1.49110	4885.00000
1.49150	4896.00000
1.49180	4928.00000
1.49220	4926.00000
1.49250	4891.00000
1.49290	4881.00000
1.49320	4849.00000
1.49360	4778.00000
1.49390	4816.00000
1.49430	4931.00000
1.49460	4878.00000
1.49500	4897.00000
1.49530	4896.00000
1.49570	4941.00000
1.49600	4879.00000
1.49640	4914.00000
1.49670	4846.00000
1.49710	4954.00000
1.49740	4873.00000
1.49780	4973.00000
1.49810	4845.00000
1.49850	4835.00000
1.49880	4857.00000
1.49920	4893.00000
1.49950	4841.00000
1.49990	4853.00000
1.50020	4902.00000
1.50060	4869.00000
1.50090	4817.00000
1.50130	4816.00000
1.50160	4913.00000
1.50200	4822.00000
1.50230	4857.00000
1.50270	4887.00000
1.50300	4944.00000
1.50330	4919.00000
1.50370	4940.00000
1.50400	4995.00000
1.50440	4991.00000
1.50470	4843.00000
1.50510	4941.00000
1.50540	4929.00000
1.50580	4967.00000
1.50610	5012.00000
1.50650	4977.00000
1.50680	4942.00000
1.50720	4989.00000
1.50750	4970.00000
1.50790	4976.00000
1.50820	5112.00000
1.50860	5045.00000
1.50890	4952.00000
1.50930	4962.00000
1.50960	4974.00000
1.51000	5079.00000
1.51030	4997.00000
1.51070	4920.00000
1.51100	5045.00000
1.51140	4954.00000
1.51170	5059.00000
1.51210	5073.00000
1.51240	5060.00000
1.51280	5031.00000
1.51310	5114.00000
1.51350	5087.00000
1.51380	5001.00000
1.51420	5047.00000
1.51450	5017.00000
1.51490	5004.00000
1.51520	5097.00000
1.51560	4979.00000
1.51590	5028.00000
1.51630	4917.00000
1.51660	5021.00000
1.51700	5028.00000
1.51730	5009.00000
1.51770	5022.00000
1.51800	5064.00000
1.51840	5015.00000
1.51870	4951.00000
1.51910	5083.00000
1.51940	5114.00000
1.51980	5029.00000
1.52010	5041.00000
1.52050	5040.00000
1.52080	5010.00000
1.52120	4987.00000
1.52150	5002.00000
1.52180	5001.00000
1.52220	5008.00000
1.52250	4994.00000
1.52290	5007.00000
1.52320	4991.00000
1.52360	5010.00000
1.52390	4959.00000
1.52430	5052.00000
1.52460	5125.00000
1.52500	4952.00000
1.52530	4918.00000
1.52570	4974.00000
1.52600	4998.00000
1.52640	5024.00000
1.52670	4983.00000
1.52710	4987.00000
1.52740	5008.00000
1.52780	5074.00000
1.52810	4972.00000
1.52850	5103.00000
1.52880	5060.00000
1.52920	5031.00000
1.52950	5023.00000
1.52990	5018.00000
1.53020	5043.00000
1.53060	4974.00000
1.53090	4976.00000
1.53130	4940.00000
1.53160	5019.00000
1.53200	4939.00000
1.53230	4996.00000
1.53270	4926.00000
1.53300	5040.00000
1.53340	5032.00000
1.53370	5004.00000
1.53410	4904.00000
1.53440	4947.00000
1.53480	5041.00000
1.53510	4959.00000
1.53550	4850.00000
1.53580	4966.00000
1.53620	4850.00000
1.53650	4858.00000
1.53690	4907.00000
1.53720	4892.00000
1.53760	4941.00000
1.53790	4922.00000
1.53830	4934.00000
1.53860	4912.00000
1.53900	4909.00000
1.53930	4885.00000
1.53970	4858.00000
1.54000	4853.00000
1.54030	4883.00000
1.54070	4962.00000
1.54100	4861.00000
1.54140	4870.00000
1.54170	4826.00000
1.54210	4826.00000
1.54240	4852.00000
1.54280	4798.00000
1.54310	4844.00000
1.54350	4830.00000
1.54380	4858.00000
1.54420	4908.00000
1.54450	4916.00000
1.54490	4837.00000
1.54520	4818.00000
1.54560	4932.00000
1.54590	4823.00000
1.54630	4908.00000
1.54660	4818.00000
1.54700	4892.00000
1.54730	4892.00000
1.54770	4846.00000
1.54800	4820.00000
1.54840	4786.00000
1.54870	4766.00000
1.54910	4848.00000
1.54940	4835.00000
1.54980	4842.00000
1.55010	4852.00000
1.55050	4952.00000
1.55080	4840.00000
1.55120	4865.00000
1.55150	4859.00000
1.55190	4863.00000
1.55220	4841.00000
1.55260	4907.00000
1.55290	4883.00000
1.55330	4928.00000
1.55360	4859.00000
1.55400	4823.00000
1.55430	4865.00000
1.55470	4853.00000
1.55500	4836.00000
1.55540	4790.00000
1.55570	4815.00000
1.55610	4916.00000
1.55640	4814.00000
1.55680	4864.00000
1.55710	4832.00000
1.55750	4861.00000
1.55780	4845.00000
1.55820	4811.00000
1.55850	4848.00000
1.55890	4808.00000
1.55920	4862.00000
1.55950	4851.00000
1.55990	4846.00000
1.56020	4737.00000
1.56060	4739.00000
1.56090	4779.00000
1.56130	4838.00000
1.56160	4822.00000
1.56200	4802.00000
1.56230	4928.00000
1.56270	4887.00000
1.56300	4894.00000
1.56340	4929.00000
1.56370	4826.00000
1.56410	4843.00000
1.56440	4834.00000
1.56480	4927.00000
1.56510	4856.00000
1.56550	4847.00000
1.56580	4899.00000
1.56620	4859.00000
1.56650	4912.00000
1.56690	4814.00000
1.56720	4864.00000
1.56760	4815.00000
1.56790	4869.00000
1.56830	4965.00000
1.56860	4914.00000
1.56900	4863.00000
1.56930	4847.00000
1.56970	4846.00000
1.57000	4836.00000
1.57040	4836.00000
1.57070	4862.00000
1.57110	4801.00000
1.57140	4905.00000
1.57180	4882.00000
1.57210	4935.00000
1.57250	4846.00000
1.57280	4779.00000
1.57320	4859.00000
1.57350	4875.00000
1.57390	4856.00000
1.57420	4822.00000
1.57460	4803.00000
1.57490	4803.00000
1.57530	4847.00000
1.57560	4820.00000
1.57600	4892.00000
1.57630	4893.00000
1.57670	4814.00000
1.57700	4804.00000
1.57740	4935.00000
1.57770	4859.00000
1.57800	4766.00000
1.57840	4888.00000
1.57870	4836.00000
1.57910	4810.00000
1.57940	4819.00000
1.57980	4864.00000
1.58010	4873.00000
1.58050	4918.00000
1.58080	4808.00000
1.58120	4851.00000
1.58150	4856.00000
1.58190	4817.00000
1.58220	4845.00000
1.58260	4861.00000
1.58290	4923.00000
1.58330	4932.00000
1.58360	4898.00000
1.58400	4825.00000
1.58430	4785.00000
1.58470	4783.00000
1.58500	4897.00000
1.58540	4733.00000
1.58570	4800.00000
1.58610	4841.00000
1.58640	4862.00000
1.58680	4962.00000
1.58710	4854.00000
1.58750	4849.00000
1.58780	4847.00000
1.58820	4845.00000
1.58850	4869.00000
1.58890	4942.00000
1.58920	4863.00000
1.58960	4806.00000
1.58990	4902.00000
1.59030	4968.00000
1.59060	4883.00000
1.59100	4808.00000
1.59130	4803.00000
1.59170	4753.00000
1.59200	4827.00000
1.59240	4845.00000
1.59270	4885.00000
1.59310	4831.00000
1.59340	4858.00000
1.59380	4854.00000
1.59410	4849.00000
1.59450	4874.00000
1.59480	4980.00000
1.59520	4863.00000
1.59550	4835.00000
1.59590	4872.00000
1.59620	4968.00000
1.59650	4942.00000
1.59690	4818.00000
1.59720	4751.00000
1.59760	4859.00000
1.59790	4838.00000
1.59830	4864.00000
1.59860	4825.00000
1.59900	4905.00000
1.59930	4912.00000
1.59970	4882.00000
1.60000	4911.00000
1.60040	4932.00000
1.60070	4773.00000
1.60110	4781.00000
1.60140	4777.00000
1.60180	4783.00000
1.60210	4771.00000
1.60250	4763.00000
1.60280	4730.00000
1.60320	4803.00000
1.60350	4795.00000
1.60390	4821.00000
1.60420	4799.00000
1.60460	4868.00000
1.60490	4866.00000
1.60530	4931.00000
1.60560	4822.00000
1.60600	4752.00000
1.60630	4868.00000
1.60670	4785.00000
1.60700	4961.00000
1.60740	4887.00000
1.60770	4848.00000
1.60810	4852.00000
1.60840	4848.00000
1.60880	4941.00000
1.60910	4937.00000
1.60950	4856.00000
1.60980	4824.00000
1.61020	4776.00000
1.61050	4848.00000
1.61090	4898.00000
1.61120	4947.00000
1.61160	4922.00000
1.61190	4878.00000
1.61230	4898.00000
1.61260	4992.00000
1.61300	4876.00000
1.61330	4860.00000
1.61370	4875.00000
1.61400	4809.00000
1.61440	4844.00000
1.61470	4954.00000
1.61510	5019.00000
1.61540	4981.00000
1.61570	4997.00000
1.61610	4913.00000
1.61640	4872.00000
1.61680	4998.00000
1.61710	4892.00000
1.61750	4882.00000
1.61780	4943.00000
1.61820	4999.00000
1.61850	4960.00000
1.61890	4939.00000
1.61920	4964.00000
1.61960	4983.00000
1.61990	4925.00000
1.62030	4945.00000
1.62060	4974.00000
1.62100	5019.00000
1.62130	4969.00000
1.62170	5090.00000
1.62200	5035.00000
1.62240	4918.00000
1.62270	4896.00000
1.62310	4852.00000
1.62340	4799.00000
1.62380	4927.00000
1.62410	4995.00000
1.62450	4945.00000
1.62480	4816.00000
1.62520	4864.00000
1.62550	4840.00000
1.62590	4849.00000
1.62620	4796.00000
1.62660	4799.00000
1.62690	4856.00000
1.62730	4906.00000
1.62760	4876.00000
1.62800	4889.00000
1.62830	4938.00000
1.62870	4858.00000
1.62900	4790.00000
1.62940	4861.00000
1.62970	4886.00000
1.63010	4945.00000
1.63040	4969.00000
1.63080	4972.00000
1.63110	5023.00000
1.63150	4890.00000
1.63180	4867.00000
1.63220	4919.00000
1.63250	4904.00000
1.63290	4917.00000
1.63320	4960.00000
1.63360	4885.00000
1.63390	4955.00000
1.63420	4883.00000
1.63460	4935.00000
1.63490	4920.00000
1.63530	5004.00000
1.63560	4941.00000
1.63600	5045.00000
1.63630	4942.00000
1.63670	4978.00000
1.63700	5020.00000
1.63740	4981.00000
1.63770	5080.00000
1.63810	5010.00000
1.63840	4967.00000
1.63880	4967.00000
1.63910	4978.00000
1.63950	4951.00000
1.63980	5046.00000
1.64020	4904.00000
1.64050	4932.00000
1.64090	4936.00000
1.64120	4919.00000
1.64160	4892.00000
1.64190	4920.00000
1.64230	4991.00000
1.64260	4861.00000
1.64300	4911.00000
1.64330	4854.00000
1.64370	4890.00000
1.64400	4898.00000
1.64440	4907.00000
1.64470	4944.00000
1.64510	4902.00000
1.64540	4917.00000
1.64580	4917.00000
1.64610	4897.00000
1.64650	4758.00000
1.64680	4761.00000
1.64720	4906.00000
1.64750	4935.00000
1.64790	4852.00000
1.64820	4836.00000
1.64860	4811.00000
1.64890	4860.00000
1.64930	4887.00000
1.64960	4814.00000
1.65000	4819.00000
1.65030	4881.00000
1.65070	4918.00000
1.65100	4893.00000
1.65140	4922.00000
1.65170	4879.00000
1.65210	4817.00000
1.65240	4892.00000
1.65270	4853.00000
1.65310	4909.00000
1.65340	4951.00000
1.65380	4850.00000
1.65410	4876.00000
1.65450	4846.00000
1.65480	4956.00000
1.65520	4886.00000
1.65550	4950.00000
1.65590	4951.00000
1.65620	4880.00000
1.65660	4954.00000
1.65690	4934.00000
1.65730	4827.00000
1.65760	4858.00000
1.65800	4896.00000
1.65830	4909.00000
1.65870	4860.00000
1.65900	4890.00000
1.65940	4942.00000
1.65970	5061.00000
1.66010	4956.00000
1.66040	4995.00000
1.66080	4933.00000
1.66110	4950.00000
1.66150	5049.00000
1.66180	4971.00000
1.66220	5003.00000
1.66250	5115.00000
1.66290	5107.00000
1.66320	5139.00000
1.66360	5086.00000
1.66390	5068.00000
1.66430	5068.00000
1.66460	5209.00000
1.66500	5101.00000
1.66530	5052.00000
1.66570	5090.00000
1.66600	5113.00000
1.66640	5026.00000
1.66670	5128.00000
1.66710	5111.00000
1.66740	5145.00000
1.66780	5261.00000
1.66810	5118.00000
1.66850	5114.00000
1.66880	5133.00000
1.66920	5115.00000
1.66950	5146.00000
1.66990	5192.00000
1.67020	5104.00000
1.67060	5062.00000
1.67090	5168.00000
1.67120	5159.00000
1.67160	5111.00000
1.67190	5130.00000
1.67230	5102.00000
1.67260	5212.00000
1.67300	5141.00000
1.67330	5053.00000
1.67370	5099.00000
1.67400	5067.00000
1.67440	5053.00000
1.67470	5069.00000
1.67510	4957.00000
1.67540	5033.00000
1.67580	5036.00000
1.67610	5179.00000
1.67650	5145.00000
1.67680	5092.00000
1.67720	5077.00000
1.67750	5086.00000
1.67790	4987.00000
1.67820	5037.00000
1.67860	5108.00000
1.67890	5122.00000
1.67930	5087.00000
1.67960	5119.00000
1.68000	5023.00000
1.68030	5102.00000
1.68070	5073.00000
1.68100	5039.00000
1.68140	5087.00000
1.68170	5122.00000
1.68210	5074.00000
1.68240	5038.00000
1.68280	5003.00000
1.68310	5074.00000
1.68350	5037.00000
1.68380	5102.00000
1.68420	5103.00000
1.68450	5012.00000
1.68490	5069.00000
1.68520	5051.00000
1.68560	4976.00000
1.68590	5059.00000
1.68630	4981.00000
1.68660	5072.00000
1.68700	5010.00000
1.68730	5036.00000
1.68770	5060.00000
1.68800	5035.00000
1.68840	4980.00000
1.68870	4995.00000
1.68910	5032.00000
1.68940	4963.00000
1.68980	4980.00000
1.69010	5104.00000
1.69040	4970.00000
1.69080	4933.00000
1.69110	4961.00000
1.69150	4958.00000
1.69180	4895.00000
1.69220	4933.00000
1.69250	4912.00000
1.69290	4829.00000
1.69320	4916.00000
1.69360	4900.00000
1.69390	4816.00000
1.69430	4905.00000
1.69460	4904.00000
1.69500	4941.00000
1.69530	4784.00000
1.69570	4845.00000
1.69600	4818.00000
1.69640	4800.00000
1.69670	4893.00000
1.69710	4834.00000
1.69740	4765.00000
1.69780	4855.00000
1.69810	4875.00000
1.69850	4744.00000
1.69880	4705.00000
1.69920	4762.00000
1.69950	4748.00000
1.69990	4813.00000
1.70020	4791.00000
1.70060	4808.00000
1.70090	4745.00000
1.70130	4771.00000
1.70160	4720.00000
1.70200	4845.00000
1.70230	4761.00000
1.70270	4744.00000
1.70300	4781.00000
1.70340	4783.00000
1.70370	4795.00000
1.70410	4764.00000
1.70440	4798.00000
1.70480	4743.00000
1.70510	4747.00000
1.70550	4784.00000
1.70580	4782.00000
1.70620	4793.00000
1.70650	4737.00000
1.70690	4799.00000
1.70720	4727.00000
1.70760	4780.00000
1.70790	4767.00000
1.70830	4716.00000
1.70860	4720.00000
1.70890	4807.00000
1.70930	4781.00000
1.70960	4793.00000
1.71000	4788.00000
1.71030	4747.00000
1.71070	4770.00000
1.71100	4677.00000
1.71140	4675.00000
1.71170	4727.00000
1.71210	4692.00000
1.71240	4859.00000
1.71280	4794.00000
1.71310	4843.00000
1.71350	4888.00000
1.71380	4794.00000
1.71420	4703.00000
1.71450	4741.00000
1.71490	4857.00000
1.71520	4767.00000
1.71560	4778.00000
1.71590	4774.00000
1.71630	4803.00000
1.71660	4878.00000
1.71700	4741.00000
1.71730	4679.00000
1.71770	4665.00000
1.71800	4755.00000
1.71840	4764.00000
1.71870	4671.00000
1.71910	4744.00000
1.71940	4728.00000
1.71980	4746.00000
1.72010	4745.00000
1.72050	4795.00000
1.72080	4717.00000
1.72120	4727.00000
1.72150	4762.00000
1.72190	4773.00000
1.72220	4689.00000
1.72260	4699.00000
1.72290	4666.00000
1.72330	4626.00000
1.72360	4672.00000
1.72400	4678.00000
1.72430	4720.00000
1.72470	4799.00000
1.72500	4778.00000
1.72540	4691.00000
1.72570	4676.00000
1.72610	4741.00000
1.72640	4727.00000
1.72680	4752.00000
1.72710	4825.00000
1.72740	4744.00000
1.72780	4714.00000
1.72810	4674.00000
1.72850	4731.00000
1.72880	4676.00000
1.72920	4728.00000
1.72950	4720.00000
1.72990	4726.00000
