1.00040	2274.00000
1.01740	2220.00000
1.03440	2356.00000
1.05140	2401.00000
1.06840	2420.00000
1.08540	2499.00000
1.10240	2376.00000
1.11940	2397.00000
1.13640	2399.00000
1.15340	2447.00000
1.17040	2550.00000
1.18740	2548.00000
1.20440	2489.00000
1.22140	2581.00000
1.23840	2617.00000
1.25540	2678.00000
1.27240	2759.00000
1.28940	2903.00000
1.30640	3071.00000
1.32340	3286.00000
1.34040	3558.00000
1.35740	3905.00000
1.37440	4405.00000
1.39140	4873.00000
1.40840	5380.00000
1.42540	6099.00000
1.44240	7135.00000
1.45940	8344.00000
1.47640	9545.00000
1.49340	11090.00000
1.51040	13214.00000
1.52740	15809.00000
1.54440	19208.00000
1.56140	23433.00000
1.57840	28616.00000
1.59540	35698.00000
1.61240	45442.00000
1.62940	58807.00000
1.64640	76716.00000
1.66340	97464.00000
1.68040	114422.00000
1.69740	115026.00000
1.71440	93383.00000
1.73140	60757.00000
1.74840	33744.00000
1.76540	18209.00000
1.78240	11265.00000
1.79940	7819.00000
1.81640	5838.00000
1.83340	4709.00000
1.85040	3957.00000
1.86740	3498.00000
1.88440	3049.00000
1.90140	2750.00000
1.91840	2414.00000
1.93540	2181.00000
1.95240	1968.00000
1.96940	1883.00000
1.98640	1768.00000
2.00340	1571.00000
2.02040	1528.00000
2.03740	1446.00000
2.05440	1418.00000
2.07140	1327.00000
2.08840	1297.00000
2.10540	1230.00000
2.12240	1221.00000
2.13940	1211.00000
2.15640	1135.00000
2.17340	1168.00000
2.19040	1117.00000
2.20740	1077.00000
2.22440	1071.00000
2.24140	1064.00000
2.25840	1087.00000
2.27540	1094.00000
2.29240	1078.00000
2.30940	1085.00000
2.32640	1073.00000
2.34340	1055.00000
2.36040	1032.00000
2.37740	1049.00000
2.39440	1063.00000
2.41140	1020.00000
2.42840	998.00000
2.44540	995.00000
2.46240	998.00000
2.47940	1009.00000
2.49640	1013.00000
2.51340	1008.00000
2.53040	1019.00000
2.54740	1030.00000
2.56440	995.00000
2.58140	965.00000
2.59840	1011.00000
2.61540	1002.00000
2.63240	1007.00000
2.64940	1009.00000
2.66640	1036.00000
2.68340	1010.00000
2.70040	976.00000
2.71740	994.00000
2.73440	1016.00000
2.75140	1003.00000
2.76840	1006.00000
2.78540	1042.00000
2.80240	954.00000
2.81940	971.00000
2.83640	987.00000
2.85340	1036.00000
2.87040	1011.00000
2.88740	990.00000
2.90440	1010.00000
2.92140	996.00000
2.93840	998.00000
2.95540	1024.00000
2.97240	1017.00000
2.98940	1002.00000
3.00640	968.00000
3.02340	1012.00000
3.04040	1043.00000
3.05740	979.00000
3.07440	1018.00000
3.09140	975.00000
3.10840	1035.00000
3.12540	1002.00000
3.14240	1040.00000
3.15940	971.00000
3.17640	991.00000
3.19340	1001.00000
3.21040	1018.00000
3.22740	1062.00000
3.24440	1058.00000
3.26140	1090.00000
3.27840	1118.00000
3.29540	1237.00000
3.31240	1276.00000
3.32940	1290.00000
3.34640	1410.00000
3.36340	1560.00000
3.38040	1661.00000
3.39740	1671.00000
3.41440	1579.00000
3.43140	1400.00000
3.44840	1325.00000
3.46540	1214.00000
3.48240	1130.00000
3.49940	1081.00000
3.51640	1067.00000
3.53340	1051.00000
3.55040	1017.00000
3.56740	999.00000
3.58440	973.00000
3.60140	1006.00000
3.61840	986.00000
3.63540	1004.00000
3.65240	1021.00000
3.66940	993.00000
3.68640	974.00000
3.70340	993.00000
3.72040	996.00000
3.73740	994.00000
3.75440	982.00000
3.77140	990.00000
3.78840	980.00000
3.80540	988.00000
3.82240	1000.00000
3.83940	969.00000
3.85640	977.00000
3.87340	933.00000
3.89040	982.00000
3.90740	983.00000
3.92440	947.00000
3.94140	974.00000
3.95840	994.00000
3.97540	941.00000
3.99240	994.00000
4.00940	950.00000
4.02640	999.00000
4.04340	908.00000
4.06040	972.00000
4.07740	999.00000
4.09440	932.00000
4.11140	957.00000
4.12840	942.00000
4.14540	1011.00000
4.16240	977.00000
4.17940	943.00000
4.19640	902.00000
4.21340	983.00000
4.23040	949.00000
4.24740	976.00000
4.26440	1010.00000
4.28140	995.00000
4.29840	953.00000
4.31540	934.00000
4.33240	943.00000
4.34940	950.00000
4.36640	928.00000
4.38340	907.00000
4.40040	928.00000
4.41740	964.00000
4.43440	960.00000
4.45140	932.00000
4.46840	952.00000
4.48540	920.00000
4.50240	932.00000
4.51940	972.00000
4.53640	924.00000
4.55340	961.00000
4.57040	961.00000
4.58740	970.00000
4.60440	999.00000
4.62140	976.00000
4.63840	945.00000
4.65540	928.00000
4.67240	970.00000
4.68940	980.00000
4.70640	936.00000
4.72340	928.00000
4.74040	935.00000
4.75740	901.00000
4.77440	930.00000
4.79140	978.00000
4.80840	957.00000
4.82540	947.00000
4.84240	980.00000
4.85940	951.00000
4.87640	970.00000
4.89340	976.00000
4.91040	996.00000
4.92740	1061.00000
4.94440	1106.00000
4.96140	1184.00000
4.97840	1290.00000
4.99540	1455.00000
5.01240	1671.00000
5.02940	2002.00000
5.04640	2423.00000
5.06340	2814.00000
5.08040	3071.00000
5.09740	3085.00000
5.11440	2842.00000
5.13140	2579.00000
5.14840	2262.00000
5.16540	1876.00000
5.18240	1756.00000
5.19940	1574.00000
5.21640	1426.00000
5.23340	1331.00000
5.25040	1222.00000
5.26740	1170.00000
5.28440	1092.00000
5.30140	1102.00000
5.31840	1053.00000
5.33540	1024.00000
5.35240	1047.00000
5.36940	1019.00000
5.38640	987.00000
5.40340	997.00000
5.42040	1026.00000
5.43740	1016.00000
5.45440	1027.00000
5.47140	995.00000
5.48840	1009.00000
5.50540	1002.00000
5.52240	965.00000
5.53940	1008.00000
5.55640	1029.00000
5.57340	1007.00000
5.59040	991.00000
5.60740	954.00000
5.62440	941.00000
5.64140	957.00000
5.65840	983.00000
5.67540	952.00000
5.69240	953.00000
5.70940	973.00000
5.72640	973.00000
5.74340	937.00000
5.76040	990.00000
5.77740	974.00000
5.79440	966.00000
5.81140	933.00000
5.82840	972.00000
5.84540	939.00000
5.86240	930.00000
5.87940	906.00000
5.89640	983.00000
5.91340	1029.00000
5.93040	1011.00000
5.94740	901.00000
5.96440	908.00000
5.98140	907.00000
5.99840	945.00000
6.01540	955.00000
6.03240	955.00000
6.04940	986.00000
6.06640	955.00000
6.08340	909.00000
6.10040	922.00000
6.11740	949.00000
6.13440	935.00000
6.15140	912.00000
6.16840	907.00000
6.18540	945.00000
6.20240	928.00000
6.21940	963.00000
6.23640	997.00000
6.25340	959.00000
6.27040	917.00000
6.28740	900.00000
6.30440	937.00000
6.32140	958.00000
6.33840	971.00000
6.35540	966.00000
6.37240	972.00000
6.38940	994.00000
6.40640	963.00000
6.42340	964.00000
6.44040	925.00000
6.45740	917.00000
6.47440	954.00000
6.49140	975.00000
6.50840	948.00000
6.52540	951.00000
6.54240	909.00000
6.55940	939.00000
6.57640	997.00000
6.59340	977.00000
6.61040	958.00000
6.62740	978.00000
6.64440	1010.00000
6.66140	1075.00000
6.67840	1116.00000
6.69540	1245.00000
6.71240	1332.00000
6.72940	1459.00000
6.74640	1648.00000
6.76340	1800.00000
6.78040	1914.00000
6.79740	1887.00000
6.81440	1790.00000
6.83140	1698.00000
6.84840	1588.00000
6.86540	1453.00000
6.88240	1434.00000
6.89940	1320.00000
6.91640	1304.00000
6.93340	1235.00000
6.95040	1194.00000
6.96740	1206.00000
6.98440	1174.00000
7.00140	1106.00000
7.01840	1046.00000
7.03540	1025.00000
7.05240	1011.00000
7.06940	1017.00000
7.08640	1023.00000
7.10340	989.00000
7.12040	956.00000
7.13740	1020.00000
7.15440	1019.00000
7.17140	974.00000
7.18840	973.00000
7.20540	999.00000
7.22240	993.00000
7.23940	981.00000
7.25640	1016.00000
7.27340	996.00000
7.29040	973.00000
7.30740	941.00000
7.32440	999.00000
7.34140	1006.00000
7.35840	982.00000
7.37540	982.00000
7.39240	983.00000
7.40940	985.00000
7.42640	951.00000
7.44340	976.00000
7.46040	1024.00000
7.47740	979.00000
7.49440	983.00000
7.51140	940.00000
7.52840	941.00000
7.54540	973.00000
7.56240	975.00000
7.57940	953.00000
7.59640	978.00000
7.61340	992.00000
7.63040	961.00000
7.64740	930.00000
7.66440	919.00000
7.68140	984.00000
7.69840	986.00000
7.71540	976.00000
7.73240	942.00000
7.74940	951.00000
7.76640	964.00000
7.78340	887.00000
7.80040	956.00000
7.81740	966.00000
7.83440	940.00000
7.85140	957.00000
7.86840	977.00000
7.88540	953.00000
7.90240	1008.00000
7.91940	917.00000
7.93640	987.00000
7.95340	973.00000
7.97040	968.00000
7.98740	933.00000
8.00440	978.00000
8.02140	959.00000
8.03840	920.00000
8.05540	964.00000
8.07240	1002.00000
8.08940	992.00000
8.10640	947.00000
8.12340	971.00000
8.14040	959.00000
8.15740	943.00000
8.17440	950.00000
8.19140	960.00000
8.20840	966.00000
8.22540	987.00000
8.24240	1023.00000
8.25940	970.00000
8.27640	915.00000
8.29340	944.00000
8.31040	945.00000
8.32740	980.00000
8.34440	932.00000
8.36140	915.00000
8.37840	954.00000
8.39540	963.00000
8.41240	958.00000
8.42940	948.00000
8.44640	947.00000
8.46340	961.00000
8.48040	955.00000
8.49740	959.00000
8.51440	949.00000
8.53140	964.00000
8.54840	954.00000
8.56540	944.00000
8.58240	965.00000
8.59940	933.00000
8.61640	937.00000
8.63340	976.00000
8.65040	989.00000
8.66740	950.00000
8.68440	902.00000
8.70140	918.00000
8.71840	975.00000
8.73540	921.00000
8.75240	922.00000
8.76940	921.00000
8.78640	890.00000
8.80340	933.00000
8.82040	981.00000
8.83740	905.00000
8.85440	996.00000
8.87140	914.00000
8.88840	966.00000
8.90540	944.00000
8.92240	905.00000
8.93940	970.00000
8.95640	930.00000
8.97340	910.00000
8.99040	941.00000
9.00740	937.00000
9.02440	909.00000
9.04140	948.00000
9.05840	924.00000
9.07540	900.00000
9.09240	905.00000
9.10940	948.00000
9.12640	921.00000
9.14340	914.00000
9.16040	885.00000
9.17740	932.00000
9.19440	967.00000
9.21140	968.00000
9.22840	972.00000
9.24540	974.00000
9.26240	953.00000
9.27940	953.00000
9.29640	907.00000
9.31340	928.00000
9.33040	943.00000
9.34740	958.00000
9.36440	981.00000
9.38140	988.00000
9.39840	951.00000
9.41540	921.00000
9.43240	936.00000
9.44940	955.00000
9.46640	930.00000
9.48340	914.00000
9.50040	898.00000
9.51740	885.00000
9.53440	909.00000
9.55140	923.00000
9.56840	885.00000
9.58540	900.00000
9.60240	923.00000
9.61940	887.00000
9.63640	919.00000
9.65340	934.00000
9.67040	925.00000
9.68740	897.00000
9.70440	924.00000
9.72140	943.00000
9.73840	958.00000
9.75540	922.00000
9.77240	928.00000
9.78940	916.00000
9.80640	889.00000
9.82340	908.00000
9.84040	926.00000
9.85740	890.00000
9.87440	902.00000
9.89140	979.00000
9.90840	900.00000
9.92540	906.00000
9.94240	899.00000
9.95940	913.00000
9.97640	915.00000
9.99340	967.00000
10.01040	991.00000
10.02740	940.00000
10.04440	951.00000
10.06140	991.00000
10.07840	962.00000
10.09540	991.00000
10.11240	1042.00000
10.12940	1026.00000
10.14640	1081.00000
10.16340	1099.00000
10.18040	1154.00000
10.19740	1101.00000
10.21440	1072.00000
10.23140	1078.00000
10.24840	1097.00000
10.26540	1066.00000
10.28240	989.00000
10.29940	990.00000
10.31640	999.00000
10.33340	1004.00000
10.35040	978.00000
10.36740	976.00000
10.38440	975.00000
10.40140	970.00000
10.41840	961.00000
10.43540	950.00000
10.45240	933.00000
10.46940	905.00000
10.48640	920.00000
10.50340	943.00000
10.52040	932.00000
10.53740	910.00000
10.55440	905.00000
10.57140	866.00000
10.58840	928.00000
10.60540	918.00000
10.62240	915.00000
10.63940	929.00000
10.65640	874.00000
10.67340	935.00000
10.69040	903.00000
10.70740	872.00000
10.72440	867.00000
10.74140	881.00000
10.75840	899.00000
10.77540	914.00000
10.79240	896.00000
10.80940	852.00000
10.82640	967.00000
10.84340	921.00000
10.86040	942.00000
10.87740	870.00000
10.89440	904.00000
10.91140	877.00000
10.92840	945.00000
10.94540	866.00000
10.96240	808.00000
10.97940	909.00000
10.99640	863.00000
11.01340	875.00000
11.03040	936.00000
11.04740	944.00000
11.06440	927.00000
11.08140	926.00000
11.09840	937.00000
11.11540	922.00000
11.13240	893.00000
11.14940	920.00000
11.16640	914.00000
11.18340	904.00000
11.20040	886.00000
11.21740	834.00000
11.23440	893.00000
11.25140	897.00000
11.26840	872.00000
11.28540	911.00000
11.30240	920.00000
11.31940	927.00000
11.33640	899.00000
11.35340	871.00000
11.37040	895.00000
11.38740	908.00000
11.40440	895.00000
11.42140	876.00000
11.43840	858.00000
11.45540	889.00000
11.47240	874.00000
11.48940	901.00000
11.50640	919.00000
11.52340	882.00000
11.54040	903.00000
11.55740	890.00000
11.57440	879.00000
11.59140	906.00000
11.60840	874.00000
11.62540	895.00000
11.64240	905.00000
11.65940	893.00000
11.67640	890.00000
11.69340	887.00000
11.71040	882.00000
11.72740	856.00000
11.74440	880.00000
11.76140	845.00000
11.77840	893.00000
11.79540	886.00000
11.81240	906.00000
11.82940	847.00000
11.84640	900.00000
11.86340	862.00000
11.88040	940.00000
11.89740	864.00000
11.91440	856.00000
11.93140	923.00000
11.94840	867.00000
11.96540	887.00000
11.98240	846.00000
11.99940	874.00000
12.01640	910.00000
12.03340	889.00000
12.05040	858.00000
12.06740	816.00000
12.08440	882.00000
12.10140	875.00000
12.11840	858.00000
12.13540	881.00000
12.15240	896.00000
12.16940	923.00000
12.18640	913.00000
12.20340	910.00000
12.22040	906.00000
12.23740	900.00000
12.25440	906.00000
12.27140	900.00000
12.28840	932.00000
12.30540	927.00000
12.32240	890.00000
12.33940	892.00000
12.35640	901.00000
12.37340	908.00000
12.39040	918.00000
12.40740	893.00000
12.42440	904.00000
12.44140	919.00000
12.45840	862.00000
12.47540	854.00000
12.49240	900.00000
12.50940	920.00000
12.52640	909.00000
12.54340	897.00000
12.56040	890.00000
12.57740	878.00000
12.59440	927.00000
12.61140	941.00000
12.62840	919.00000
12.64540	900.00000
12.66240	902.00000
12.67940	879.00000
12.69640	916.00000
12.71340	904.00000
12.73040	891.00000
12.74740	917.00000
12.76440	938.00000
12.78140	879.00000
12.79840	944.00000
12.81540	857.00000
12.83240	853.00000
12.84940	881.00000
12.86640	924.00000
12.88340	933.00000
12.90040	851.00000
12.91740	846.00000
12.93440	868.00000
12.95140	920.00000
12.96840	877.00000
12.98540	907.00000
13.00240	876.00000
13.01940	892.00000
13.03640	916.00000
13.05340	911.00000
13.07040	854.00000
13.08740	841.00000
13.10440	873.00000
13.12140	911.00000
13.13840	858.00000
13.15540	903.00000
13.17240	906.00000
13.18940	914.00000
13.20640	915.00000
13.22340	898.00000
13.24040	889.00000
13.25740	884.00000
13.27440	878.00000
13.29140	890.00000
13.30840	889.00000
13.32540	892.00000
13.34240	892.00000
13.35940	857.00000
13.37640	903.00000
13.39340	948.00000
13.41040	927.00000
13.42740	921.00000
13.44440	922.00000
13.46140	916.00000
13.47840	915.00000
13.49540	919.00000
13.51240	935.00000
13.52940	931.00000
13.54640	932.00000
13.56340	866.00000
13.58040	918.00000
13.59740	897.00000
13.61440	917.00000
13.63140	879.00000
13.64840	983.00000
13.66540	889.00000
13.68240	879.00000
13.69940	895.00000
13.71640	883.00000
13.73340	916.00000
13.75040	899.00000
13.76740	908.00000
13.78440	915.00000
13.80140	832.00000
13.81840	932.00000
13.83540	920.00000
13.85240	924.00000
13.86940	869.00000
13.88640	858.00000
13.90340	920.00000
13.92040	935.00000
13.93740	871.00000
13.95440	902.00000
13.97140	925.00000
13.98840	938.00000
14.00540	915.00000
14.02240	920.00000
14.03940	938.00000
14.05640	898.00000
14.07340	908.00000
14.09040	911.00000
14.10740	945.00000
14.12440	945.00000
14.14140	925.00000
14.15840	898.00000
14.17540	893.00000
14.19240	876.00000
14.20940	883.00000
14.22640	922.00000
14.24340	921.00000
14.26040	909.00000
14.27740	915.00000
14.29440	939.00000
14.31140	917.00000
14.32840	907.00000
14.34540	921.00000
14.36240	932.00000
14.37940	898.00000
14.39640	890.00000
14.41340	911.00000
14.43040	932.00000
14.44740	916.00000
14.46440	911.00000
14.48140	904.00000
14.49840	900.00000
14.51540	901.00000
14.53240	868.00000
14.54940	912.00000
14.56640	928.00000
14.58340	897.00000
14.60040	905.00000
14.61740	897.00000
14.63440	964.00000
14.65140	940.00000
14.66840	885.00000
14.68540	937.00000
14.70240	887.00000
14.71940	977.00000
14.73640	953.00000
14.75340	876.00000
14.77040	946.00000
14.78740	900.00000
14.80440	910.00000
14.82140	926.00000
14.83840	931.00000
14.85540	921.00000
14.87240	989.00000
14.88940	904.00000
14.90640	926.00000
14.92340	935.00000
14.94040	934.00000
14.95740	952.00000
14.97440	976.00000
14.99140	894.00000
15.00840	923.00000
15.02540	955.00000
15.04240	951.00000
15.05940	927.00000
15.07640	923.00000
15.09340	955.00000
15.11040	912.00000
15.12740	893.00000
15.14440	905.00000
15.16140	929.00000
15.17840	946.00000
15.19540	930.00000
15.21240	965.00000
15.22940	980.00000
15.24640	945.00000
15.26340	961.00000
15.28040	975.00000
15.29740	947.00000
15.31440	991.00000
15.33140	1005.00000
15.34840	994.00000
15.36540	1000.00000
15.38240	980.00000
15.39940	952.00000
15.41640	967.00000
15.43340	986.00000
15.45040	999.00000
15.46740	1028.00000
15.48440	938.00000
15.50140	943.00000
15.51840	992.00000
15.53540	940.00000
15.55240	959.00000
15.56940	994.00000
15.58640	982.00000
15.60340	991.00000
15.62040	987.00000
15.63740	933.00000
15.65440	907.00000
15.67140	979.00000
15.68840	1032.00000
15.70540	999.00000
15.72240	985.00000
15.73940	956.00000
15.75640	977.00000
15.77340	1023.00000
15.79040	954.00000
15.80740	983.00000
15.82440	997.00000
15.84140	1011.00000
15.85840	990.00000
15.87540	992.00000
15.89240	1041.00000
15.90940	1012.00000
15.92640	982.00000
15.94340	989.00000
15.96040	1032.00000
15.97740	968.00000
15.99440	977.00000
16.01140	1014.00000
16.02840	1020.00000
16.04540	975.00000
16.06240	1024.00000
16.07940	1011.00000
16.09640	990.00000
16.11340	1013.00000
16.13040	997.00000
16.14740	1054.00000
16.16440	1035.00000
16.18140	1003.00000
16.19840	999.00000
16.21540	1037.00000
16.23240	1051.00000
16.24940	1060.00000
16.26640	1016.00000
16.28340	1012.00000
16.30040	1003.00000
16.31740	1007.00000
16.33440	1008.00000
16.35140	1011.00000
16.36840	1034.00000
16.38540	1051.00000
16.40240	1047.00000
16.41940	1012.00000
16.43640	1044.00000
16.45340	1072.00000
16.47040	1108.00000
16.48740	1065.00000
16.50440	1047.00000
16.52140	1071.00000
16.53840	1109.00000
16.55540	1051.00000
16.57240	1072.00000
16.58940	1050.00000
16.60640	1023.00000
16.62340	1086.00000
16.64040	1018.00000
16.65740	1102.00000
16.67440	1112.00000
16.69140	1053.00000
16.70840	1085.00000
16.72540	1064.00000
16.74240	1036.00000
16.75940	1120.00000
16.77640	1060.00000
16.79340	992.00000
16.81040	1098.00000
16.82740	1067.00000
16.84440	1082.00000
16.86140	1016.00000
16.87840	1128.00000
16.89540	1097.00000
16.91240	1114.00000
16.92940	1110.00000
16.94640	1112.00000
16.96340	1116.00000
16.98040	1075.00000
16.99740	1083.00000
17.01440	1114.00000
17.03140	1108.00000
17.04840	1064.00000
17.06540	1078.00000
17.08240	1120.00000
17.09940	1134.00000
17.11640	1143.00000
17.13340	1170.00000
17.15040	1149.00000
17.16740	1118.00000
17.18440	1105.00000
17.20140	1126.00000
17.21840	1172.00000
17.23540	1149.00000
17.25240	1156.00000
17.26940	1157.00000
17.28640	1158.00000
17.30340	1165.00000
17.32040	1150.00000
17.33740	1140.00000
17.35440	1165.00000
17.37140	1170.00000
17.38840	1159.00000
17.40540	1131.00000
17.42240	1171.00000
17.43940	1207.00000
17.45640	1165.00000
17.47340	1150.00000
17.49040	1126.00000
17.50740	1180.00000
17.52440	1167.00000
17.54140	1162.00000
17.55840	1178.00000
17.57540	1186.00000
17.59240	1129.00000
17.60940	1168.00000
17.62640	1242.00000
17.64340	1195.00000
17.66040	1140.00000
17.67740	1184.00000
17.69440	1170.00000
17.71140	1169.00000
17.72840	1185.00000
17.74540	1232.00000
17.76240	1121.00000
17.77940	1140.00000
17.79640	1241.00000
17.81340	1184.00000
17.83040	1233.00000
17.84740	1246.00000
17.86440	1235.00000
17.88140	1212.00000
17.89840	1237.00000
17.91540	1214.00000
17.93240	1223.00000
17.94940	1224.00000
17.96640	1310.00000
17.98340	1315.00000
18.00040	1229.00000
18.01740	1228.00000
18.03440	1255.00000
18.05140	1280.00000
18.06840	1210.00000
18.08540	1245.00000
18.10240	1214.00000
18.11940	1220.00000
18.13640	1206.00000
18.15340	1248.00000
18.17040	1303.00000
18.18740	1278.00000
18.20440	1271.00000
18.22140	1286.00000
18.23840	1244.00000
18.25540	1275.00000
18.27240	1274.00000
18.28940	1275.00000
18.30640	1253.00000
18.32340	1265.00000
18.34040	1251.00000
18.35740	1306.00000
18.37440	1357.00000
18.39140	1294.00000
18.40840	1271.00000
18.42540	1294.00000
18.44240	1304.00000
18.45940	1294.00000
18.47640	1278.00000
18.49340	1322.00000
18.51040	1276.00000
18.52740	1336.00000
18.54440	1338.00000
18.56140	1315.00000
18.57840	1302.00000
18.59540	1291.00000
18.61240	1268.00000
18.62940	1325.00000
18.64640	1325.00000
18.66340	1329.00000
18.68040	1346.00000
18.69740	1351.00000
18.71440	1266.00000
18.73140	1330.00000
18.74840	1279.00000
18.76540	1341.00000
18.78240	1373.00000
18.79940	1394.00000
18.81640	1389.00000
18.83340	1345.00000
18.85040	1328.00000
18.86740	1377.00000
18.88440	1308.00000
18.90140	1298.00000
18.91840	1322.00000
18.93540	1315.00000
18.95240	1334.00000
18.96940	1330.00000
18.98640	1321.00000
19.00340	1345.00000
19.02040	1369.00000
19.03740	1324.00000
19.05440	1336.00000
19.07140	1389.00000
19.08840	1367.00000
19.10540	1330.00000
19.12240	1304.00000
19.13940	1329.00000
19.15640	1324.00000
19.17340	1320.00000
19.19040	1356.00000
19.20740	1373.00000
19.22440	1421.00000
19.24140	1378.00000
19.25840	1400.00000
19.27540	1414.00000
19.29240	1376.00000
19.30940	1353.00000
19.32640	1396.00000
19.34340	1375.00000
19.36040	1341.00000
19.37740	1336.00000
19.39440	1395.00000
19.41140	1403.00000
19.42840	1404.00000
19.44540	1417.00000
19.46240	1395.00000
19.47940	1400.00000
19.49640	1441.00000
19.51340	1423.00000
19.53040	1435.00000
19.54740	1445.00000
19.56440	1485.00000
19.58140	1430.00000
19.59840	1441.00000
19.61540	1426.00000
19.63240	1421.00000
19.64940	1391.00000
19.66640	1447.00000
19.68340	1406.00000
19.70040	1391.00000
19.71740	1375.00000
19.73440	1472.00000
19.75140	1405.00000
19.76840	1436.00000
19.78540	1433.00000
19.80240	1361.00000
19.81940	1382.00000
19.83640	1426.00000
19.85340	1423.00000
19.87040	1413.00000
19.88740	1398.00000
19.90440	1392.00000
19.92140	1450.00000
19.93840	1436.00000
19.95540	1461.00000
19.97240	1445.00000
19.98940	1471.00000
20.00640	1428.00000
20.02340	1367.00000
20.04040	1428.00000
20.05740	1464.00000
20.07440	1448.00000
20.09140	1438.00000
20.10840	1410.00000
20.12540	1410.00000
20.14240	1456.00000
20.15940	1503.00000
20.17640	1486.00000
20.19340	1432.00000
20.21040	1423.00000
20.22740	1461.00000
20.24440	1443.00000
20.26140	1469.00000
20.27840	1462.00000
20.29540	1443.00000
20.31240	1456.00000
20.32940	1481.00000
20.34640	1492.00000
20.36340	1534.00000
20.38040	1480.00000
20.39740	1523.00000
20.41440	1531.00000
20.43140	1469.00000
20.44840	1490.00000
20.46540	1518.00000
20.48240	1535.00000
20.49940	1537.00000
20.51640	1515.00000
20.53340	1526.00000
20.55040	1555.00000
20.56740	1529.00000
20.58440	1510.00000
20.60140	1536.00000
20.61840	1613.00000
20.63540	1581.00000
20.65240	1540.00000
20.66940	1591.00000
20.68640	1602.00000
20.70340	1577.00000
20.72040	1621.00000
20.73740	1535.00000
20.75440	1560.00000
20.77140	1606.00000
20.78840	1665.00000
20.80540	1606.00000
20.82240	1597.00000
20.83940	1619.00000
20.85640	1576.00000
20.87340	1628.00000
20.89040	1724.00000
20.90740	1729.00000
20.92440	1737.00000
20.94140	1718.00000
20.95840	1741.00000
20.97540	1777.00000
20.99240	1803.00000
21.00940	1882.00000
21.02640	1977.00000
21.04340	2000.00000
21.06040	2014.00000
21.07740	2180.00000
21.09440	2353.00000
21.11140	2515.00000
21.12840	2718.00000
21.14540	3049.00000
21.16240	3530.00000
21.17940	4146.00000
21.19640	4940.00000
21.21340	5985.00000
21.23040	7365.00000
21.24740	9266.00000
21.26440	11300.00000
21.28140	13407.00000
21.29840	15319.00000
21.31540	16643.00000
21.33240	17286.00000
21.34940	17459.00000
21.36640	17016.00000
21.38340	16887.00000
21.40040	17082.00000
21.41740	17463.00000
21.43440	18255.00000
21.45140	18611.00000
21.46840	18148.00000
21.48540	17278.00000
21.50240	15289.00000
21.51940	12870.00000
21.53640	10422.00000
21.55340	8297.00000
21.57040	6597.00000
21.58740	5378.00000
21.60440	5102.00000
21.62140	5005.00000
21.63840	4985.00000
21.65540	5457.00000
21.67240	5887.00000
21.68940	6639.00000
21.70640	7168.00000
21.72340	7811.00000
21.74040	8269.00000
21.75740	8442.00000
21.77440	8092.00000
21.79140	7328.00000
21.80840	6585.00000
21.82540	5704.00000
21.84240	4938.00000
21.85940	4078.00000
21.87640	3418.00000
21.89340	3029.00000
21.91040	2620.00000
21.92740	2401.00000
21.94440	2288.00000
21.96140	2142.00000
21.97840	1962.00000
21.99540	1968.00000
22.01240	1890.00000
22.02940	1841.00000
22.04640	1838.00000
22.06340	1834.00000
22.08040	1773.00000
22.09740	1739.00000
22.11440	1744.00000
22.13140	1717.00000
22.14840	1678.00000
22.16540	1666.00000
22.18240	1629.00000
22.19940	1612.00000
22.21640	1627.00000
22.23340	1580.00000
22.25040	1530.00000
22.26740	1577.00000
22.28440	1582.00000
22.30140	1521.00000
22.31840	1506.00000
22.33540	1500.00000
22.35240	1482.00000
22.36940	1397.00000
22.38640	1521.00000
22.40340	1507.00000
22.42040	1499.00000
22.43740	1432.00000
22.45440	1463.00000
22.47140	1455.00000
22.48840	1421.00000
22.50540	1459.00000
22.52240	1471.00000
22.53940	1420.00000
22.55640	1449.00000
22.57340	1413.00000
22.59040	1377.00000
22.60740	1441.00000
22.62440	1436.00000
22.64140	1416.00000
22.65840	1445.00000
22.67540	1450.00000
22.69240	1408.00000
22.70940	1362.00000
22.72640	1390.00000
22.74340	1401.00000
22.76040	1415.00000
22.77740	1425.00000
22.79440	1411.00000
22.81140	1360.00000
22.82840	1358.00000
22.84540	1402.00000
22.86240	1375.00000
22.87940	1299.00000
22.89640	1309.00000
22.91340	1310.00000
22.93040	1263.00000
22.94740	1264.00000
22.96440	1281.00000
22.98140	1256.00000
22.99840	1243.00000
23.01540	1306.00000
23.03240	1315.00000
23.04940	1257.00000
23.06640	1257.00000
23.08340	1252.00000
23.10040	1222.00000
23.11740	1228.00000
23.13440	1259.00000
23.15140	1273.00000
23.16840	1289.00000
23.18540	1283.00000
23.20240	1262.00000
23.21940	1263.00000
23.23640	1286.00000
23.25340	1299.00000
23.27040	1225.00000
23.28740	1245.00000
23.30440	1221.00000
23.32140	1212.00000
23.33840	1265.00000
23.35540	1267.00000
23.37240	1226.00000
23.38940	1268.00000
23.40640	1273.00000
23.42340	1241.00000
23.44040	1281.00000
23.45740	1300.00000
23.47440	1225.00000
23.49140	1262.00000
23.50840	1349.00000
23.52540	1272.00000
23.54240	1383.00000
23.55940	1332.00000
23.57640	1362.00000
23.59340	1373.00000
23.61040	1380.00000
23.62740	1435.00000
23.64440	1483.00000
23.66140	1470.00000
23.67840	1519.00000
23.69540	1580.00000
23.71240	1595.00000
23.72940	1633.00000
23.74640	1684.00000
23.76340	1739.00000
23.78040	1869.00000
23.79740	1988.00000
23.81440	2092.00000
23.83140	2222.00000
23.84840	2386.00000
23.86540	2555.00000
23.88240	2774.00000
23.89940	3116.00000
23.91640	3717.00000
23.93340	4282.00000
23.95040	5051.00000
23.96740	5924.00000
23.98440	6802.00000
24.00140	7750.00000
24.01840	8657.00000
24.03540	9362.00000
24.05240	9794.00000
24.06940	9988.00000
24.08640	9801.00000
24.10340	9171.00000
24.12040	8310.00000
24.13740	7342.00000
24.15440	6280.00000
24.17140	5205.00000
24.18840	4310.00000
24.20540	3619.00000
24.22240	3079.00000
24.23940	2638.00000
24.25640	2293.00000
24.27340	2054.00000
24.29040	1855.00000
24.30740	1720.00000
24.32440	1570.00000
24.34140	1544.00000
24.35840	1474.00000
24.37540	1402.00000
24.39240	1398.00000
24.40940	1393.00000
24.42640	1300.00000
24.44340	1310.00000
24.46040	1358.00000
24.47740	1312.00000
24.49440	1264.00000
24.51140	1265.00000
24.52840	1225.00000
24.54540	1189.00000
24.56240	1160.00000
24.57940	1238.00000
24.59640	1215.00000
24.61340	1203.00000
24.63040	1211.00000
24.64740	1133.00000
24.66440	1224.00000
24.68140	1081.00000
24.69840	1200.00000
24.71540	1109.00000
24.73240	1107.00000
24.74940	1090.00000
24.76640	1140.00000
24.78340	1098.00000
24.80040	1101.00000
24.81740	1100.00000
24.83440	1064.00000
24.85140	1033.00000
24.86840	1053.00000
24.88540	1093.00000
24.90240	1074.00000
24.91940	1013.00000
24.93640	1086.00000
24.95340	1079.00000
24.97040	1064.00000
24.98740	1044.00000
25.00440	1056.00000
25.02140	1049.00000
25.03840	996.00000
25.05540	986.00000
25.07240	997.00000
25.08940	1009.00000
25.10640	1013.00000
25.12340	1013.00000
25.14040	1006.00000
25.15740	970.00000
25.17440	995.00000
25.19140	980.00000
25.20840	959.00000
25.22540	957.00000
25.24240	942.00000
25.25940	971.00000
25.27640	997.00000
25.29340	991.00000
25.31040	962.00000
25.32740	957.00000
25.34440	957.00000
25.36140	919.00000
25.37840	974.00000
25.39540	959.00000
25.41240	921.00000
25.42940	910.00000
25.44640	916.00000
25.46340	919.00000
25.48040	896.00000
25.49740	907.00000
25.51440	948.00000
25.53140	966.00000
25.54840	897.00000
25.56540	904.00000
25.58240	868.00000
25.59940	870.00000
25.61640	939.00000
25.63340	867.00000
25.65040	945.00000
25.66740	922.00000
25.68440	940.00000
25.70140	920.00000
25.71840	855.00000
25.73540	875.00000
25.75240	918.00000
25.76940	938.00000
25.78640	858.00000
25.80340	846.00000
25.82040	927.00000
25.83740	935.00000
25.85440	910.00000
25.87140	916.00000
25.88840	911.00000
25.90540	906.00000
25.92240	897.00000
25.93940	891.00000
25.95640	917.00000
25.97340	905.00000
25.99040	877.00000
26.00740	892.00000
26.02440	908.00000
26.04140	880.00000
26.05840	855.00000
26.07540	874.00000
26.09240	898.00000
26.10940	871.00000
26.12640	870.00000
26.14340	870.00000
26.16040	845.00000
26.17740	873.00000
26.19440	880.00000
26.21140	868.00000
26.22840	886.00000
26.24540	877.00000
26.26240	885.00000
26.27940	839.00000
26.29640	826.00000
26.31340	848.00000
26.33040	882.00000
26.34740	837.00000
26.36440	848.00000
26.38140	807.00000
26.39840	820.00000
26.41540	810.00000
26.43240	852.00000
26.44940	785.00000
26.46640	813.00000
26.48340	809.00000
26.50040	868.00000
26.51740	843.00000
26.53440	799.00000
26.55140	822.00000
26.56840	838.00000
26.58540	853.00000
26.60240	830.00000
26.61940	856.00000
26.63640	865.00000
26.65340	843.00000
26.67040	785.00000
26.68740	812.00000
26.70440	813.00000
26.72140	807.00000
26.73840	821.00000
26.75540	828.00000
26.77240	793.00000
26.78940	774.00000
26.80640	804.00000
26.82340	858.00000
26.84040	821.00000
26.85740	833.00000
26.87440	816.00000
26.89140	779.00000
26.90840	779.00000
26.92540	791.00000
26.94240	778.00000
26.95940	757.00000
26.97640	760.00000
26.99340	783.00000
27.01040	783.00000
27.02740	752.00000
27.04440	764.00000
27.06140	785.00000
27.07840	794.00000
27.09540	769.00000
27.11240	783.00000
27.12940	827.00000
27.14640	806.00000
27.16340	771.00000
27.18040	794.00000
27.19740	760.00000
27.21440	779.00000
27.23140	814.00000
27.24840	794.00000
27.26540	802.00000
27.28240	767.00000
27.29940	801.00000
27.31640	787.00000
27.33340	760.00000
27.35040	781.00000
27.36740	787.00000
27.38440	785.00000
27.40140	762.00000
27.41840	777.00000
27.43540	802.00000
27.45240	774.00000
27.46940	793.00000
27.48640	746.00000
27.50340	746.00000
27.52040	765.00000
27.53740	780.00000
27.55440	730.00000
27.57140	783.00000
27.58840	797.00000
27.60540	849.00000
27.62240	716.00000
27.63940	749.00000
27.65640	752.00000
27.67340	729.00000
27.69040	755.00000
27.70740	736.00000
27.72440	687.00000
27.74140	764.00000
27.75840	693.00000
27.77540	775.00000
27.79240	759.00000
27.80940	766.00000
27.82640	767.00000
27.84340	764.00000
27.86040	755.00000
27.87740	731.00000
27.89440	734.00000
27.91140	751.00000
27.92840	757.00000
27.94540	810.00000
27.96240	789.00000
27.97940	746.00000
27.99640	734.00000
28.01340	726.00000
28.03040	727.00000
28.04740	747.00000
28.06440	767.00000
28.08140	756.00000
28.09840	724.00000
28.11540	748.00000
28.13240	747.00000
28.14940	724.00000
28.16640	736.00000
28.18340	719.00000
28.20040	732.00000
28.21740	746.00000
28.23440	727.00000
28.25140	711.00000
28.26840	719.00000
28.28540	731.00000
28.30240	755.00000
28.31940	730.00000
28.33640	694.00000
28.35340	695.00000
28.37040	736.00000
28.38740	713.00000
28.40440	727.00000
28.42140	733.00000
28.43840	714.00000
28.45540	780.00000
28.47240	706.00000
28.48940	716.00000
28.50640	736.00000
28.52340	716.00000
28.54040	719.00000
28.55740	751.00000
28.57440	688.00000
28.59140	733.00000
28.60840	722.00000
28.62540	759.00000
28.64240	712.00000
28.65940	715.00000
28.67640	696.00000
28.69340	708.00000
28.71040	728.00000
28.72740	674.00000
28.74440	656.00000
28.76140	685.00000
28.77840	678.00000
28.79540	687.00000
28.81240	722.00000
28.82940	751.00000
28.84640	716.00000
28.86340	676.00000
28.88040	698.00000
28.89740	692.00000
28.91440	685.00000
28.93140	692.00000
28.94840	671.00000
28.96540	681.00000
28.98240	695.00000
28.99940	696.00000
29.01640	716.00000
29.03340	716.00000
29.05040	685.00000
29.06740	693.00000
29.08440	724.00000
29.10140	694.00000
29.11840	658.00000
29.13540	674.00000
29.15240	669.00000
29.16940	678.00000
29.18640	701.00000
29.20340	705.00000
29.22040	720.00000
29.23740	710.00000
29.25440	706.00000
29.27140	670.00000
29.28840	679.00000
29.30540	696.00000
29.32240	719.00000
29.33940	715.00000
29.35640	695.00000
29.37340	689.00000
29.39040	700.00000
29.40740	683.00000
29.42440	702.00000
29.44140	702.00000
29.45840	731.00000
29.47540	695.00000
29.49240	675.00000
29.50940	679.00000
29.52640	694.00000
29.54340	664.00000
29.56040	702.00000
29.57740	686.00000
29.59440	716.00000
29.61140	656.00000
29.62840	685.00000
29.64540	712.00000
29.66240	706.00000
29.67940	725.00000
29.69640	678.00000
29.71340	709.00000
29.73040	723.00000
29.74740	732.00000
29.76440	742.00000
29.78140	746.00000
29.79840	762.00000
29.81540	769.00000
29.83240	812.00000
29.84940	852.00000
29.86640	872.00000
29.88340	937.00000
29.90040	999.00000
29.91740	1006.00000
29.93440	1050.00000
29.95140	1107.00000
29.96840	1147.00000
29.98540	1165.00000
30.00240	1216.00000
30.01940	1238.00000
30.03640	1130.00000
30.05340	1100.00000
30.07040	1100.00000
30.08740	1063.00000
30.10440	990.00000
30.12140	954.00000
30.13840	927.00000
30.15540	866.00000
30.17240	818.00000
30.18940	782.00000
30.20640	769.00000
30.22340	774.00000
30.24040	751.00000
30.25740	747.00000
30.27440	730.00000
30.29140	730.00000
30.30840	737.00000
30.32540	733.00000
30.34240	672.00000
30.35940	685.00000
30.37640	701.00000
30.39340	701.00000
30.41040	732.00000
30.42740	770.00000
30.44440	717.00000
30.46140	746.00000
30.47840	707.00000
30.49540	693.00000
30.51240	664.00000
30.52940	732.00000
30.54640	635.00000
30.56340	689.00000
30.58040	649.00000
30.59740	687.00000
30.61440	695.00000
30.63140	689.00000
30.64840	624.00000
30.66540	631.00000
30.68240	630.00000
30.69940	661.00000
30.71640	659.00000
30.73340	641.00000
30.75040	636.00000
30.76740	607.00000
30.78440	624.00000
30.80140	646.00000
30.81840	649.00000
30.83540	657.00000
30.85240	683.00000
30.86940	661.00000
30.88640	657.00000
30.90340	668.00000
30.92040	662.00000
30.93740	651.00000
30.95440	628.00000
30.97140	650.00000
30.98840	665.00000
31.00540	661.00000
31.02240	623.00000
31.03940	609.00000
31.05640	614.00000
31.07340	628.00000
31.09040	629.00000
31.10740	624.00000
31.12440	608.00000
31.14140	618.00000
31.15840	645.00000
31.17540	628.00000
31.19240	597.00000
31.20940	643.00000
31.22640	612.00000
31.24340	617.00000
31.26040	628.00000
31.27740	632.00000
31.29440	605.00000
31.31140	657.00000
31.32840	626.00000
31.34540	587.00000
31.36240	585.00000
31.37940	622.00000
31.39640	607.00000
31.41340	668.00000
31.43040	669.00000
31.44740	609.00000
31.46440	620.00000
31.48140	646.00000
31.49840	632.00000
31.51540	584.00000
31.53240	576.00000
31.54940	621.00000
31.56640	583.00000
31.58340	574.00000
31.60040	601.00000
31.61740	631.00000
31.63440	618.00000
31.65140	604.00000
31.66840	610.00000
31.68540	607.00000
31.70240	616.00000
31.71940	602.00000
31.73640	569.00000
31.75340	601.00000
31.77040	608.00000
31.78740	599.00000
31.80440	594.00000
31.82140	633.00000
31.83840	632.00000
31.85540	578.00000
31.87240	557.00000
31.88940	571.00000
31.90640	570.00000
31.92340	583.00000
31.94040	579.00000
31.95740	574.00000
31.97440	595.00000
31.99140	608.00000
32.00840	582.00000
32.02540	573.00000
32.04240	552.00000
32.05940	580.00000
32.07640	580.00000
32.09340	593.00000
32.11040	599.00000
32.12740	564.00000
32.14440	564.00000
32.16140	587.00000
32.17840	596.00000
32.19540	596.00000
32.21240	592.00000
32.22940	587.00000
32.24640	559.00000
32.26340	547.00000
32.28040	577.00000
32.29740	581.00000
32.31440	626.00000
32.33140	586.00000
32.34840	607.00000
32.36540	560.00000
32.38240	573.00000
32.39940	598.00000
32.41640	577.00000
32.43340	556.00000
32.45040	581.00000
32.46740	543.00000
32.48440	564.00000
32.50140	538.00000
32.51840	564.00000
32.53540	537.00000
32.55240	551.00000
32.56940	563.00000
32.58640	581.00000
32.60340	558.00000
32.62040	532.00000
32.63740	570.00000
32.65440	557.00000
32.67140	570.00000
32.68840	580.00000
32.70540	580.00000
32.72240	568.00000
32.73940	572.00000
32.75640	577.00000
32.77340	555.00000
32.79040	549.00000
32.80740	539.00000
32.82440	558.00000
32.84140	543.00000
32.85840	570.00000
32.87540	574.00000
32.89240	565.00000
32.90940	580.00000
32.92640	576.00000
32.94340	567.00000
32.96040	565.00000
32.97740	578.00000
32.99440	567.00000
33.01140	543.00000
33.02840	534.00000
33.04540	537.00000
33.06240	525.00000
33.07940	547.00000
33.09640	565.00000
33.11340	542.00000
33.13040	554.00000
33.14740	571.00000
33.16440	562.00000
33.18140	562.00000
33.19840	546.00000
33.21540	561.00000
33.23240	547.00000
33.24940	540.00000
33.26640	565.00000
33.28340	532.00000
33.30040	543.00000
33.31740	568.00000
33.33440	540.00000
33.35140	585.00000
33.36840	622.00000
33.38540	523.00000
33.40240	531.00000
33.41940	541.00000
33.43640	499.00000
33.45340	551.00000
33.47040	503.00000
33.48740	580.00000
33.50440	573.00000
33.52140	555.00000
33.53840	541.00000
33.55540	517.00000
33.57240	533.00000
33.58940	541.00000
33.60640	541.00000
33.62340	552.00000
33.64040	569.00000
33.65740	532.00000
33.67440	545.00000
33.69140	536.00000
33.70840	509.00000
33.72540	529.00000
33.74240	512.00000
33.75940	513.00000
33.77640	505.00000
33.79340	526.00000
33.81040	554.00000
33.82740	552.00000
33.84440	562.00000
33.86140	527.00000
33.87840	530.00000
33.89540	523.00000
33.91240	546.00000
33.92940	567.00000
33.94640	556.00000
33.96340	539.00000
33.98040	513.00000
33.99740	531.00000
34.01440	559.00000
34.03140	551.00000
34.04840	536.00000
34.06540	537.00000
34.08240	509.00000
34.09940	510.00000
34.11640	506.00000
34.13340	525.00000
34.15040	556.00000
34.16740	537.00000
34.18440	520.00000
34.20140	537.00000
34.21840	522.00000
34.23540	538.00000
34.25240	514.00000
34.26940	508.00000
34.28640	543.00000
34.30340	554.00000
34.32040	570.00000
34.33740	544.00000
34.35440	545.00000
34.37140	556.00000
34.38840	555.00000
34.40540	529.00000
34.42240	542.00000
34.43940	548.00000
34.45640	520.00000
34.47340	547.00000
34.49040	563.00000
34.50740	542.00000
34.52440	576.00000
34.54140	553.00000
34.55840	542.00000
34.57540	548.00000
34.59240	554.00000
34.60940	524.00000
34.62640	539.00000
34.64340	499.00000
34.66040	506.00000
34.67740	553.00000
34.69440	547.00000
34.71140	543.00000
34.72840	552.00000
34.74540	536.00000
34.76240	521.00000
34.77940	544.00000
34.79640	535.00000
34.81340	511.00000
34.83040	507.00000
34.84740	525.00000
34.86440	509.00000
34.88140	514.00000
34.89840	499.00000
34.91540	510.00000
34.93240	536.00000
34.94940	542.00000
34.96640	520.00000
34.98340	519.00000
35.00040	502.00000
35.01740	521.00000
35.03440	535.00000
35.05140	516.00000
35.06840	508.00000
35.08540	529.00000
35.10240	502.00000
35.11940	482.00000
35.13640	509.00000
35.15340	518.00000
35.17040	518.00000
35.18740	528.00000
35.20440	537.00000
35.22140	493.00000
35.23840	518.00000
35.25540	512.00000
35.27240	507.00000
35.28940	492.00000
35.30640	511.00000
35.32340	505.00000
35.34040	526.00000
35.35740	562.00000
35.37440	516.00000
35.39140	529.00000
35.40840	527.00000
35.42540	547.00000
35.44240	524.00000
35.45940	576.00000
35.47640	564.00000
35.49340	581.00000
35.51040	595.00000
35.52740	588.00000
35.54440	603.00000
35.56140	621.00000
35.57840	660.00000
35.59540	707.00000
35.61240	727.00000
35.62940	770.00000
35.64640	803.00000
35.66340	864.00000
35.68040	929.00000
35.69740	950.00000
35.71440	1001.00000
35.73140	1045.00000
35.74840	1042.00000
35.76540	993.00000
35.78240	967.00000
35.79940	938.00000
35.81640	894.00000
35.83340	853.00000
35.85040	811.00000
35.86740	774.00000
35.88440	753.00000
35.90140	722.00000
35.91840	680.00000
35.93540	672.00000
35.95240	663.00000
35.96940	644.00000
35.98640	628.00000
36.00340	607.00000
36.02040	590.00000
36.03740	600.00000
36.05440	600.00000
36.07140	574.00000
36.08840	581.00000
36.10540	594.00000
36.12240	582.00000
36.13940	580.00000
36.15640	577.00000
36.17340	612.00000
36.19040	618.00000
36.20740	633.00000
36.22440	624.00000
36.24140	680.00000
36.25840	631.00000
36.27540	626.00000
36.29240	666.00000
36.30940	588.00000
36.32640	621.00000
36.34340	600.00000
36.36040	639.00000
36.37740	607.00000
36.39440	559.00000
36.41140	572.00000
36.42840	554.00000
36.44540	580.00000
36.46240	566.00000
36.47940	536.00000
36.49640	540.00000
36.51340	565.00000
36.53040	519.00000
36.54740	571.00000
36.56440	524.00000
36.58140	511.00000
36.59840	491.00000
36.61540	506.00000
36.63240	539.00000
36.64940	515.00000
36.66640	492.00000
36.68340	538.00000
36.70040	535.00000
36.71740	525.00000
36.73440	518.00000
36.75140	519.00000
36.76840	524.00000
36.78540	502.00000
36.80240	514.00000
36.81940	523.00000
36.83640	517.00000
36.85340	534.00000
36.87040	532.00000
36.88740	515.00000
36.90440	489.00000
36.92140	495.00000
36.93840	518.00000
36.95540	499.00000
36.97240	499.00000
36.98940	523.00000
37.00640	520.00000
37.02340	525.00000
37.04040	486.00000
37.05740	450.00000
37.07440	487.00000
37.09140	508.00000
37.10840	514.00000
37.12540	511.00000
37.14240	502.00000
37.15940	502.00000
37.17640	465.00000
37.19340	502.00000
37.21040	512.00000
37.22740	497.00000
37.24440	494.00000
37.26140	520.00000
37.27840	459.00000
37.29540	502.00000
37.31240	473.00000
37.32940	482.00000
37.34640	477.00000
37.36340	471.00000
37.38040	503.00000
37.39740	460.00000
37.41440	501.00000
37.43140	476.00000
37.44840	476.00000
37.46540	518.00000
37.48240	486.00000
37.49940	475.00000
37.51640	448.00000
37.53340	486.00000
37.55040	499.00000
37.56740	510.00000
37.58440	541.00000
37.60140	472.00000
37.61840	504.00000
37.63540	517.00000
37.65240	490.00000
37.66940	457.00000
37.68640	520.00000
37.70340	531.00000
37.72040	515.00000
37.73740	511.00000
37.75440	503.00000
37.77140	492.00000
37.78840	518.00000
37.80540	502.00000
37.82240	508.00000
37.83940	516.00000
37.85640	523.00000
37.87340	535.00000
37.89040	538.00000
37.90740	521.00000
37.92440	503.00000
37.94140	517.00000
37.95840	554.00000
37.97540	555.00000
37.99240	515.00000
38.00940	510.00000
38.02640	550.00000
38.04340	580.00000
38.06040	556.00000
38.07740	526.00000
38.09440	562.00000
38.11140	567.00000
38.12840	597.00000
38.14540	589.00000
38.16240	538.00000
38.17940	551.00000
38.19640	561.00000
38.21340	533.00000
38.23040	560.00000
38.24740	592.00000
38.26440	513.00000
38.28140	499.00000
38.29840	500.00000
38.31540	534.00000
38.33240	529.00000
38.34940	497.00000
38.36640	519.00000
38.38340	518.00000
38.40040	496.00000
38.41740	492.00000
38.43440	511.00000
38.45140	536.00000
38.46840	570.00000
38.48540	556.00000
38.50240	539.00000
38.51940	607.00000
38.53640	641.00000
38.55340	638.00000
38.57040	621.00000
38.58740	672.00000
38.60440	684.00000
38.62140	657.00000
38.63840	643.00000
38.65540	669.00000
38.67240	683.00000
38.68940	647.00000
38.70640	647.00000
38.72340	646.00000
38.74040	648.00000
38.75740	638.00000
38.77440	634.00000
38.79140	681.00000
38.80840	726.00000
38.82540	697.00000
38.84240	698.00000
38.85940	728.00000
38.87640	753.00000
38.89340	751.00000
38.91040	709.00000
38.92740	712.00000
38.94440	688.00000
38.96140	678.00000
38.97840	665.00000
38.99540	613.00000
39.01240	619.00000
39.02940	604.00000
39.04640	614.00000
39.06340	591.00000
39.08040	546.00000
39.09740	553.00000
39.11440	571.00000
39.13140	575.00000
39.14840	502.00000
39.16540	532.00000
39.18240	477.00000
39.19940	505.00000
39.21640	496.00000
39.23340	507.00000
39.25040	516.00000
39.26740	478.00000
39.28440	499.00000
39.30140	484.00000
39.31840	503.00000
39.33540	483.00000
39.35240	554.00000
39.36940	505.00000
39.38640	459.00000
39.40340	512.00000
39.42040	517.00000
39.43740	501.00000
39.45440	533.00000
39.47140	494.00000
39.48840	513.00000
39.50540	502.00000
39.52240	525.00000
39.53940	496.00000
39.55640	498.00000
39.57340	510.00000
39.59040	492.00000
39.60740	515.00000
39.62440	470.00000
39.64140	503.00000
39.65840	515.00000
39.67540	500.00000
39.69240	511.00000
39.70940	510.00000
39.72640	524.00000
39.74340	487.00000
39.76040	508.00000
39.77740	499.00000
39.79440	513.00000
39.81140	537.00000
39.82840	529.00000
39.84540	507.00000
39.86240	516.00000
39.87940	536.00000
39.89640	514.00000
39.91340	482.00000
39.93040	502.00000
39.94740	527.00000
39.96440	527.00000
39.98140	515.00000
39.99840	514.00000
40.01540	532.00000
40.03240	530.00000
40.04940	509.00000
40.06640	534.00000
40.08340	545.00000
40.10040	541.00000
40.11740	594.00000
40.13440	600.00000
40.15140	599.00000
40.16840	574.00000
40.18540	598.00000
40.20240	642.00000
40.21940	656.00000
40.23640	700.00000
40.25340	743.00000
40.27040	719.00000
40.28740	789.00000
40.30440	821.00000
40.32140	780.00000
40.33840	882.00000
40.35540	791.00000
40.37240	816.00000
40.38940	777.00000
40.40640	865.00000
40.42340	745.00000
40.44040	782.00000
40.45740	757.00000
40.47440	713.00000
40.49140	683.00000
40.50840	684.00000
40.52540	691.00000
40.54240	691.00000
40.55940	693.00000
40.57640	703.00000
40.59340	774.00000
40.61040	717.00000
40.62740	793.00000
40.64440	787.00000
40.66140	807.00000
40.67840	817.00000
40.69540	862.00000
40.71240	917.00000
40.72940	902.00000
40.74640	900.00000
40.76340	970.00000
40.78040	1037.00000
40.79740	1001.00000
40.81440	982.00000
40.83140	980.00000
40.84840	947.00000
40.86540	915.00000
40.88240	913.00000
40.89940	905.00000
40.91640	863.00000
40.93340	838.00000
40.95040	776.00000
40.96740	739.00000
40.98440	708.00000
41.00140	710.00000
41.01840	702.00000
41.03540	700.00000
41.05240	668.00000
41.06940	657.00000
41.08640	644.00000
41.10340	619.00000
41.12040	629.00000
41.13740	618.00000
41.15440	646.00000
41.17140	641.00000
41.18840	643.00000
41.20540	645.00000
41.22240	676.00000
41.23940	630.00000
41.25640	661.00000
41.27340	649.00000
41.29040	612.00000
41.30740	659.00000
41.32440	635.00000
41.34140	698.00000
41.35840	708.00000
41.37540	727.00000
41.39240	759.00000
41.40940	689.00000
41.42640	766.00000
41.44340	793.00000
41.46040	703.00000
41.47740	735.00000
41.49440	731.00000
41.51140	688.00000
41.52840	731.00000
41.54540	733.00000
41.56240	716.00000
41.57940	701.00000
41.59640	683.00000
41.61340	656.00000
41.63040	669.00000
41.64740	683.00000
41.66440	659.00000
41.68140	665.00000
41.69840	627.00000
41.71540	628.00000
41.73240	645.00000
41.74940	640.00000
41.76640	668.00000
41.78340	674.00000
41.80040	695.00000
41.81740	717.00000
41.83440	734.00000
41.85140	750.00000
41.86840	738.00000
41.88540	688.00000
41.90240	686.00000
41.91940	674.00000
41.93640	628.00000
41.95340	610.00000
41.97040	605.00000
41.98740	607.00000
42.00440	567.00000
42.02140	551.00000
42.03840	571.00000
42.05540	543.00000
42.07240	504.00000
42.08940	494.00000
42.10640	499.00000
42.12340	491.00000
42.14040	525.00000
42.15740	513.00000
42.17440	528.00000
42.19140	495.00000
42.20840	520.00000
42.22540	476.00000
42.24240	487.00000
42.25940	483.00000
42.27640	476.00000
42.29340	445.00000
42.31040	508.00000
42.32740	514.00000
42.34440	470.00000
42.36140	492.00000
42.37840	473.00000
42.39540	477.00000
42.41240	467.00000
42.42940	507.00000
42.44640	508.00000
42.46340	492.00000
42.48040	493.00000
42.49740	498.00000
42.51440	491.00000
42.53140	480.00000
42.54840	511.00000
42.56540	517.00000
42.58240	480.00000
42.59940	504.00000
42.61640	525.00000
42.63340	511.00000
42.65040	484.00000
42.66740	482.00000
42.68440	497.00000
42.70140	481.00000
42.71840	513.00000
42.73540	537.00000
42.75240	515.00000
42.76940	523.00000
42.78640	515.00000
42.80340	518.00000
42.82040	548.00000
42.83740	543.00000
42.85440	516.00000
42.87140	565.00000
42.88840	549.00000
42.90540	545.00000
42.92240	573.00000
42.93940	584.00000
42.95640	593.00000
42.97340	574.00000
42.99040	557.00000
43.00740	587.00000
43.02440	580.00000
43.04140	579.00000
43.05840	601.00000
43.07540	590.00000
43.09240	575.00000
43.10940	544.00000
43.12640	538.00000
43.14340	541.00000
43.16040	569.00000
43.17740	569.00000
43.19440	548.00000
43.21140	573.00000
43.22840	567.00000
43.24540	552.00000
43.26240	573.00000
43.27940	526.00000
43.29640	555.00000
43.31340	567.00000
43.33040	596.00000
43.34740	594.00000
43.36440	547.00000
43.38140	606.00000
43.39840	598.00000
43.41540	656.00000
43.43240	667.00000
43.44940	654.00000
43.46640	639.00000
43.48340	662.00000
43.50040	669.00000
43.51740	656.00000
43.53440	673.00000
43.55140	700.00000
43.56840	688.00000
43.58540	694.00000
43.60240	634.00000
43.61940	664.00000
43.63640	652.00000
43.65340	640.00000
43.67040	628.00000
43.68740	621.00000
43.70440	580.00000
43.72140	615.00000
43.73840	619.00000
43.75540	591.00000
43.77240	574.00000
43.78940	561.00000
43.80640	558.00000
43.82340	556.00000
43.84040	534.00000
43.85740	513.00000
43.87440	514.00000
43.89140	547.00000
43.90840	539.00000
43.92540	539.00000
43.94240	549.00000
43.95940	524.00000
43.97640	523.00000
43.99340	508.00000
44.01040	547.00000
44.02740	543.00000
44.04440	517.00000
44.06140	523.00000
44.07840	510.00000
44.09540	546.00000
44.11240	539.00000
44.12940	534.00000
44.14640	550.00000
44.16340	539.00000
44.18040	556.00000
44.19740	532.00000
44.21440	522.00000
44.23140	531.00000
44.24840	553.00000
44.26540	561.00000
44.28240	530.00000
44.29940	544.00000
44.31640	612.00000
44.33340	553.00000
44.35040	569.00000
44.36740	603.00000
44.38440	624.00000
44.40140	604.00000
44.41840	607.00000
44.43540	630.00000
44.45240	618.00000
44.46940	622.00000
44.48640	616.00000
44.50340	635.00000
44.52040	633.00000
44.53740	613.00000
44.55440	586.00000
44.57140	577.00000
44.58840	559.00000
44.60540	589.00000
44.62240	546.00000
44.63940	560.00000
44.65640	573.00000
44.67340	566.00000
44.69040	561.00000
44.70740	556.00000
44.72440	529.00000
44.74140	490.00000
44.75840	497.00000
44.77540	512.00000
44.79240	516.00000
44.80940	517.00000
44.82640	505.00000
44.84340	488.00000
44.86040	518.00000
44.87740	542.00000
44.89440	525.00000
44.91140	525.00000
44.92840	510.00000
44.94540	516.00000
44.96240	504.00000
44.97940	500.00000
44.99640	482.00000
45.01340	488.00000
45.03040	521.00000
45.04740	492.00000
45.06440	478.00000
45.08140	482.00000
45.09840	472.00000
45.11540	490.00000
45.13240	450.00000
45.14940	484.00000
45.16640	423.00000
45.18340	476.00000
45.20040	461.00000
45.21740	426.00000
45.23440	452.00000
45.25140	444.00000
45.26840	397.00000
45.28540	446.00000
45.30240	432.00000
45.31940	440.00000
45.33640	458.00000
45.35340	404.00000
45.37040	431.00000
45.38740	402.00000
45.40440	437.00000
45.42140	460.00000
45.43840	455.00000
45.45540	438.00000
45.47240	451.00000
45.48940	448.00000
45.50640	427.00000
45.52340	432.00000
45.54040	445.00000
45.55740	417.00000
45.57440	424.00000
45.59140	425.00000
45.60840	439.00000
45.62540	445.00000
45.64240	465.00000
45.65940	460.00000
45.67640	438.00000
45.69340	417.00000
45.71040	406.00000
45.72740	419.00000
45.74440	419.00000
45.76140	426.00000
45.77840	445.00000
45.79540	421.00000
45.81240	420.00000
45.82940	464.00000
45.84640	458.00000
45.86340	448.00000
45.88040	471.00000
45.89740	473.00000
45.91440	448.00000
45.93140	448.00000
45.94840	508.00000
45.96540	513.00000
45.98240	477.00000
45.99940	478.00000
46.01640	482.00000
46.03340	484.00000
46.05040	513.00000
46.06740	465.00000
46.08440	487.00000
46.10140	487.00000
46.11840	503.00000
46.13540	525.00000
46.15240	481.00000
46.16940	523.00000
46.18640	471.00000
46.20340	533.00000
46.22040	504.00000
46.23740	553.00000
46.25440	489.00000
46.27140	502.00000
46.28840	532.00000
46.30540	472.00000
46.32240	462.00000
46.33940	484.00000
46.35640	460.00000
46.37340	482.00000
46.39040	486.00000
46.40740	467.00000
46.42440	483.00000
46.44140	472.00000
46.45840	454.00000
46.47540	458.00000
46.49240	464.00000
46.50940	448.00000
46.52640	479.00000
46.54340	462.00000
46.56040	439.00000
46.57740	460.00000
46.59440	438.00000
46.61140	417.00000
46.62840	414.00000
46.64540	426.00000
46.66240	431.00000
46.67940	426.00000
46.69640	421.00000
46.71340	427.00000
46.73040	453.00000
46.74740	441.00000
46.76440	410.00000
46.78140	419.00000
46.79840	414.00000
46.81540	381.00000
46.83240	419.00000
46.84940	426.00000
46.86640	395.00000
46.88340	409.00000
46.90040	417.00000
46.91740	418.00000
46.93440	406.00000
46.95140	395.00000
46.96840	417.00000
46.98540	393.00000
47.00240	398.00000
47.01940	400.00000
47.03640	404.00000
47.05340	401.00000
47.07040	380.00000
47.08740	374.00000
47.10440	415.00000
47.12140	414.00000
47.13840	412.00000
47.15540	374.00000
47.17240	415.00000
47.18940	397.00000
47.20640	442.00000
47.22340	397.00000
47.24040	434.00000
47.25740	443.00000
47.27440	439.00000
47.29140	447.00000
47.30840	455.00000
47.32540	418.00000
47.34240	479.00000
47.35940	483.00000
47.37640	421.00000
47.39340	461.00000
47.41040	497.00000
47.42740	484.00000
47.44440	467.00000
47.46140	512.00000
47.47840	497.00000
47.49540	484.00000
47.51240	496.00000
47.52940	482.00000
47.54640	492.00000
47.56340	489.00000
47.58040	493.00000
47.59740	468.00000
47.61440	465.00000
47.63140	464.00000
47.64840	456.00000
47.66540	438.00000
47.68240	439.00000
47.69940	465.00000
47.71640	446.00000
47.73340	464.00000
47.75040	480.00000
47.76740	443.00000
47.78440	420.00000
47.80140	422.00000
47.81840	417.00000
47.83540	411.00000
47.85240	405.00000
47.86940	402.00000
47.88640	443.00000
47.90340	424.00000
47.92040	400.00000
47.93740	378.00000
47.95440	409.00000
47.97140	383.00000
47.98840	383.00000
48.00540	382.00000
48.02240	382.00000
48.03940	369.00000
48.05640	392.00000
48.07340	370.00000
48.09040	396.00000
48.10740	413.00000
48.12440	366.00000
48.14140	404.00000
48.15840	422.00000
48.17540	375.00000
48.19240	421.00000
48.20940	394.00000
48.22640	416.00000
48.24340	391.00000
48.26040	369.00000
48.27740	412.00000
48.29440	414.00000
48.31140	379.00000
48.32840	367.00000
48.34540	403.00000
48.36240	411.00000
48.37940	394.00000
48.39640	387.00000
48.41340	392.00000
48.43040	373.00000
48.44740	375.00000
48.46440	374.00000
48.48140	370.00000
48.49840	361.00000
48.51540	396.00000
48.53240	401.00000
48.54940	402.00000
48.56640	397.00000
48.58340	388.00000
48.60040	409.00000
48.61740	403.00000
48.63440	381.00000
48.65140	387.00000
48.66840	398.00000
48.68540	411.00000
48.70240	434.00000
48.71940	433.00000
48.73640	427.00000
48.75340	433.00000
48.77040	455.00000
48.78740	457.00000
48.80440	443.00000
48.82140	451.00000
48.83840	443.00000
48.85540	429.00000
48.87240	415.00000
48.88940	444.00000
48.90640	444.00000
48.92340	461.00000
48.94040	438.00000
48.95740	433.00000
48.97440	459.00000
48.99140	444.00000
49.00840	426.00000
49.02540	438.00000
49.04240	430.00000
49.05940	423.00000
49.07640	419.00000
49.09340	441.00000
49.11040	423.00000
49.12740	423.00000
49.14440	410.00000
49.16140	435.00000
49.17840	442.00000
49.19540	401.00000
49.21240	466.00000
49.22940	441.00000
49.24640	451.00000
49.26340	453.00000
49.28040	453.00000
49.29740	440.00000
49.31440	444.00000
49.33140	429.00000
49.34840	438.00000
49.36540	441.00000
49.38240	454.00000
49.39940	475.00000
49.41640	434.00000
49.43340	422.00000
49.45040	422.00000
49.46740	468.00000
49.48440	420.00000
49.50140	419.00000
49.51840	424.00000
49.53540	415.00000
49.55240	430.00000
49.56940	400.00000
49.58640	403.00000
49.60340	399.00000
49.62040	364.00000
49.63740	364.00000
49.65440	381.00000
49.67140	388.00000
49.68840	374.00000
49.70540	356.00000
49.72240	349.00000
49.73940	353.00000
49.75640	365.00000
49.77340	360.00000
49.79040	357.00000
49.80740	346.00000
49.82440	341.00000
49.84140	371.00000
49.85840	354.00000
49.87540	350.00000
49.89240	346.00000
49.90940	369.00000
49.92640	389.00000
49.94340	386.00000
49.96040	370.00000
49.97740	358.00000
49.99440	357.00000
50.01140	354.00000
50.02840	317.00000
50.04540	358.00000
50.06240	370.00000
50.07940	344.00000
50.09640	342.00000
50.11340	375.00000
50.13040	347.00000
50.14740	373.00000
50.16440	384.00000
50.18140	384.00000
50.19840	384.00000
50.21540	367.00000
50.23240	350.00000
50.24940	380.00000
50.26640	344.00000
50.28340	358.00000
50.30040	420.00000
50.31740	352.00000
50.33440	328.00000
50.35140	366.00000
50.36840	364.00000
50.38540	352.00000
50.40240	340.00000
50.41940	377.00000
50.43640	353.00000
50.45340	338.00000
50.47040	358.00000
50.48740	367.00000
50.50440	394.00000
50.52140	374.00000
50.53840	349.00000
50.55540	364.00000
50.57240	344.00000
50.58940	352.00000
50.60640	389.00000
50.62340	390.00000
50.64040	367.00000
50.65740	376.00000
50.67440	361.00000
50.69140	356.00000
50.70840	362.00000
50.72540	337.00000
50.74240	330.00000
50.75940	344.00000
50.77640	361.00000
50.79340	372.00000
50.81040	373.00000
50.82740	369.00000
50.84440	359.00000
50.86140	342.00000
50.87840	368.00000
50.89540	352.00000
50.91240	371.00000
50.92940	346.00000
50.94640	343.00000
50.96340	387.00000
50.98040	368.00000
50.99740	362.00000
51.01440	347.00000
51.03140	336.00000
51.04840	328.00000
51.06540	351.00000
51.08240	338.00000
51.09940	344.00000
51.11640	338.00000
51.13340	341.00000
51.15040	365.00000
51.16740	355.00000
51.18440	347.00000
51.20140	375.00000
51.21840	346.00000
51.23540	342.00000
51.25240	344.00000
51.26940	381.00000
51.28640	367.00000
51.30340	334.00000
51.32040	343.00000
51.33740	372.00000
51.35440	373.00000
51.37140	376.00000
51.38840	379.00000
51.40540	423.00000
51.42240	388.00000
51.43940	364.00000
51.45640	349.00000
51.47340	395.00000
51.49040	393.00000
51.50740	385.00000
51.52440	377.00000
51.54140	347.00000
51.55840	355.00000
51.57540	376.00000
51.59240	402.00000
51.60940	410.00000
51.62640	427.00000
51.64340	427.00000
51.66040	423.00000
51.67740	446.00000
51.69440	464.00000
51.71140	491.00000
51.72840	493.00000
51.74540	472.00000
51.76240	472.00000
51.77940	491.00000
51.79640	497.00000
51.81340	490.00000
51.83040	478.00000
51.84740	470.00000
51.86440	470.00000
51.88140	493.00000
51.89840	518.00000
51.91540	498.00000
51.93240	497.00000
51.94940	452.00000
51.96640	442.00000
51.98340	488.00000
52.00040	422.00000
52.01740	456.00000
52.03440	446.00000
52.05140	458.00000
52.06840	451.00000
52.08540	440.00000
52.10240	447.00000
52.11940	432.00000
52.13640	457.00000
52.15340	453.00000
52.17040	398.00000
52.18740	425.00000
52.20440	403.00000
52.22140	419.00000
52.23840	427.00000
52.25540	477.00000
52.27240	430.00000
52.28940	431.00000
52.30640	414.00000
52.32340	418.00000
52.34040	392.00000
52.35740	382.00000
52.37440	417.00000
52.39140	403.00000
52.40840	386.00000
52.42540	376.00000
52.44240	391.00000
52.45940	389.00000
52.47640	404.00000
52.49340	382.00000
52.51040	374.00000
52.52740	394.00000
52.54440	393.00000
52.56140	389.00000
52.57840	392.00000
52.59540	385.00000
52.61240	354.00000
52.62940	366.00000
52.64640	391.00000
52.66340	378.00000
52.68040	376.00000
52.69740	378.00000
52.71440	372.00000
52.73140	371.00000
52.74840	370.00000
52.76540	355.00000
52.78240	368.00000
52.79940	394.00000
52.81640	374.00000
52.83340	384.00000
52.85040	401.00000
52.86740	356.00000
52.88440	364.00000
52.90140	380.00000
52.91840	384.00000
52.93540	349.00000
52.95240	374.00000
52.96940	352.00000
52.98640	368.00000
53.00340	377.00000
53.02040	390.00000
53.03740	381.00000
53.05440	358.00000
53.07140	379.00000
53.08840	358.00000
53.10540	350.00000
53.12240	349.00000
53.13940	368.00000
53.15640	368.00000
53.17340	393.00000
53.19040	374.00000
53.20740	378.00000
53.22440	410.00000
53.24140	379.00000
53.25840	397.00000
53.27540	373.00000
53.29240	373.00000
53.30940	401.00000
53.32640	408.00000
53.34340	414.00000
53.36040	386.00000
53.37740	413.00000
53.39440	371.00000
53.41140	394.00000
53.42840	406.00000
53.44540	390.00000
53.46240	367.00000
53.47940	394.00000
53.49640	377.00000
53.51340	358.00000
53.53040	343.00000
53.54740	367.00000
53.56440	392.00000
53.58140	377.00000
53.59840	360.00000
53.61540	356.00000
53.63240	337.00000
53.64940	341.00000
53.66640	353.00000
53.68340	358.00000
53.70040	355.00000
53.71740	350.00000
53.73440	339.00000
53.75140	330.00000
53.76840	351.00000
53.78540	343.00000
53.80240	349.00000
53.81940	347.00000
53.83640	329.00000
53.85340	342.00000
53.87040	345.00000
53.88740	369.00000
53.90440	352.00000
53.92140	333.00000
53.93840	327.00000
53.95540	333.00000
53.97240	352.00000
53.98940	322.00000
54.00640	338.00000
54.02340	362.00000
54.04040	336.00000
54.05740	327.00000
54.07440	328.00000
54.09140	335.00000
54.10840	342.00000
54.12540	334.00000
54.14240	360.00000
54.15940	349.00000
54.17640	370.00000
54.19340	395.00000
54.21040	353.00000
54.22740	347.00000
54.24440	373.00000
54.26140	363.00000
54.27840	373.00000
54.29540	344.00000
54.31240	328.00000
54.32940	337.00000
54.34640	354.00000
54.36340	349.00000
54.38040	383.00000
54.39740	373.00000
54.41440	379.00000
54.43140	381.00000
54.44840	377.00000
54.46540	369.00000
54.48240	384.00000
54.49940	368.00000
54.51640	377.00000
54.53340	376.00000
54.55040	374.00000
54.56740	380.00000
54.58440	396.00000
54.60140	398.00000
54.61840	383.00000
54.63540	416.00000
54.65240	440.00000
54.66940	436.00000
54.68640	417.00000
54.70340	392.00000
54.72040	396.00000
54.73740	386.00000
54.75440	390.00000
54.77140	420.00000
54.78840	420.00000
54.80540	430.00000
54.82240	426.00000
54.83940	409.00000
54.85640	419.00000
54.87340	421.00000
54.89040	403.00000
54.90740	381.00000
54.92440	399.00000
54.94140	372.00000
54.95840	409.00000
54.97540	424.00000
54.99240	387.00000
55.00940	381.00000
55.02640	351.00000
55.04340	350.00000
55.06040	402.00000
55.07740	375.00000
55.09440	356.00000
55.11140	340.00000
55.12840	332.00000
55.14540	359.00000
55.16240	357.00000
55.17940	329.00000
55.19640	344.00000
55.21340	327.00000
55.23040	347.00000
55.24740	355.00000
55.26440	319.00000
55.28140	336.00000
55.29840	323.00000
55.31540	316.00000
55.33240	312.00000
55.34940	298.00000
55.36640	304.00000
55.38340	319.00000
55.40040	330.00000
55.41740	330.00000
55.43440	316.00000
55.45140	312.00000
55.46840	318.00000
55.48540	319.00000
55.50240	318.00000
55.51940	318.00000
55.53640	346.00000
55.55340	345.00000
55.57040	315.00000
55.58740	314.00000
55.60440	332.00000
55.62140	334.00000
55.63840	334.00000
55.65540	337.00000
55.67240	342.00000
55.68940	336.00000
55.70640	335.00000
55.72340	320.00000
55.74040	315.00000
55.75740	332.00000
55.77440	336.00000
55.79140	346.00000
55.80840	331.00000
55.82540	328.00000
55.84240	337.00000
55.85940	318.00000
55.87640	357.00000
55.89340	354.00000
55.91040	331.00000
55.92740	296.00000
55.94440	325.00000
55.96140	321.00000
55.97840	353.00000
55.99540	345.00000
56.01240	334.00000
56.02940	330.00000
56.04640	356.00000
56.06340	349.00000
56.08040	355.00000
56.09740	361.00000
56.11440	384.00000
56.13140	317.00000
56.14840	321.00000
56.16540	380.00000
56.18240	384.00000
56.19940	311.00000
56.21640	335.00000
56.23340	364.00000
56.25040	353.00000
56.26740	378.00000
56.28440	363.00000
56.30140	346.00000
56.31840	331.00000
56.33540	336.00000
56.35240	350.00000
56.36940	327.00000
56.38640	330.00000
56.40340	330.00000
56.42040	356.00000
56.43740	330.00000
56.45440	320.00000
56.47140	340.00000
56.48840	345.00000
56.50540	341.00000
56.52240	335.00000
56.53940	331.00000
56.55640	321.00000
56.57340	332.00000
56.59040	340.00000
56.60740	321.00000
56.62440	326.00000
56.64140	352.00000
56.65840	346.00000
56.67540	331.00000
56.69240	323.00000
56.70940	334.00000
56.72640	343.00000
56.74340	351.00000
56.76040	338.00000
56.77740	350.00000
56.79440	346.00000
56.81140	332.00000
56.82840	330.00000
56.84540	343.00000
56.86240	315.00000
56.87940	332.00000
56.89640	314.00000
56.91340	308.00000
56.93040	305.00000
56.94740	301.00000
56.96440	311.00000
56.98140	307.00000
56.99840	324.00000
57.01540	352.00000
57.03240	323.00000
57.04940	342.00000
57.06640	291.00000
57.08340	310.00000
57.10040	315.00000
57.11740	299.00000
57.13440	305.00000
57.15140	331.00000
57.16840	305.00000
57.18540	275.00000
57.20240	321.00000
57.21940	302.00000
57.23640	324.00000
57.25340	331.00000
57.27040	293.00000
57.28740	362.00000
57.30440	298.00000
57.32140	323.00000
57.33840	323.00000
57.35540	311.00000
57.37240	301.00000
57.38940	294.00000
57.40640	303.00000
57.42340	309.00000
57.44040	318.00000
57.45740	310.00000
57.47440	329.00000
57.49140	330.00000
57.50840	304.00000
57.52540	306.00000
57.54240	322.00000
57.55940	308.00000
57.57640	294.00000
57.59340	310.00000
57.61040	307.00000
57.62740	309.00000
57.64440	292.00000
57.66140	280.00000
57.67840	277.00000
57.69540	273.00000
57.71240	293.00000
57.72940	308.00000
57.74640	302.00000
57.76340	292.00000
57.78040	283.00000
57.79740	302.00000
57.81440	295.00000
57.83140	292.00000
57.84840	284.00000
57.86540	289.00000
57.88240	284.00000
57.89940	260.00000
57.91640	271.00000
57.93340	287.00000
57.95040	285.00000
57.96740	300.00000
57.98440	300.00000
58.00140	276.00000
58.01840	308.00000
58.03540	294.00000
58.05240	278.00000
58.06940	296.00000
58.08640	278.00000
58.10340	289.00000
58.12040	288.00000
58.13740	312.00000
58.15440	278.00000
58.17140	295.00000
58.18840	280.00000
58.20540	287.00000
58.22240	285.00000
58.23940	259.00000
58.25640	268.00000
58.27340	269.00000
58.29040	270.00000
58.30740	293.00000
58.32440	294.00000
58.34140	296.00000
58.35840	292.00000
58.37540	301.00000
58.39240	296.00000
58.40940	274.00000
58.42640	268.00000
58.44340	285.00000
58.46040	288.00000
58.47740	286.00000
58.49440	285.00000
58.51140	296.00000
58.52840	289.00000
58.54540	279.00000
58.56240	262.00000
58.57940	253.00000
58.59640	269.00000
58.61340	281.00000
58.63040	287.00000
58.64740	285.00000
58.66440	265.00000
58.68140	260.00000
58.69840	276.00000
58.71540	297.00000
58.73240	287.00000
58.74940	273.00000
58.76640	286.00000
58.78340	299.00000
58.80040	294.00000
58.81740	270.00000
58.83440	288.00000
58.85140	292.00000
58.86840	271.00000
58.88540	267.00000
58.90240	281.00000
58.91940	266.00000
58.93640	279.00000
58.95340	254.00000
58.97040	285.00000
58.98740	283.00000
59.00440	256.00000
59.02140	284.00000
59.03840	259.00000
59.05540	276.00000
59.07240	285.00000
59.08940	280.00000
59.10640	271.00000
59.12340	276.00000
59.14040	254.00000
59.15740	275.00000
59.17440	280.00000
59.19140	296.00000
59.20840	301.00000
59.22540	250.00000
59.24240	257.00000
59.25940	286.00000
59.27640	266.00000
59.29340	285.00000
59.31040	258.00000
59.32740	259.00000
59.34440	285.00000
59.36140	270.00000
59.37840	264.00000
59.39540	273.00000
59.41240	265.00000
59.42940	283.00000
59.44640	296.00000
59.46340	280.00000
59.48040	272.00000
59.49740	290.00000
59.51440	290.00000
59.53140	277.00000
59.54840	278.00000
59.56540	283.00000
59.58240	283.00000
59.59940	270.00000
59.61640	263.00000
59.63340	258.00000
59.65040	255.00000
59.66740	263.00000
59.68440	270.00000
59.70140	270.00000
59.71840	281.00000
59.73540	288.00000
59.75240	300.00000
59.76940	289.00000
59.78640	287.00000
59.80340	285.00000
59.82040	273.00000
59.83740	271.00000
59.85440	298.00000
59.87140	255.00000
59.88840	274.00000
59.90540	276.00000
59.92240	270.00000
59.93940	269.00000
59.95640	253.00000
59.97340	280.00000
59.99040	275.00000
