10.02000	1443.00000
10.04000	1462.00000
10.06000	1412.00000
10.08000	1448.00000
10.10000	1486.00000
10.12000	1447.00000
10.14000	1459.00000
10.16000	1431.00000
10.18000	1453.00000
10.20000	1460.00000
10.22000	1494.00000
10.24000	1444.00000
10.26000	1431.00000
10.28000	1458.00000
10.30000	1424.00000
10.32000	1543.00000
10.34000	1500.00000
10.36000	1420.00000
10.38000	1460.00000
10.40000	1436.00000
10.42000	1510.00000
10.44000	1554.00000
10.46000	1517.00000
10.48000	1550.00000
10.50000	1480.00000
10.52000	1462.00000
10.54000	1522.00000
10.56000	1491.00000
10.58000	1460.00000
10.60000	1473.00000
10.62000	1506.00000
10.64000	1502.00000
10.66000	1516.00000
10.68000	1522.00000
10.70000	1491.00000
10.72000	1501.00000
10.74000	1525.00000
10.76000	1531.00000
10.78000	1566.00000
10.80000	1579.00000
10.82000	1663.00000
10.84000	1679.00000
10.86000	1677.00000
10.88000	1696.00000
10.90000	1682.00000
10.92000	1624.00000
10.94000	1733.00000
10.96000	1830.00000
10.98000	1872.00000
11.00000	1918.00000
11.02000	2093.00000
11.04000	2365.00000
11.06000	2608.00000
11.08000	3002.00000
11.10000	3607.00000
11.12000	4191.00000
11.14000	5225.00000
11.16000	6461.00000
11.18000	8198.00000
11.20000	10559.00000
11.22000	13691.00000
11.24000	17972.00000
11.26000	23345.00000
11.28000	30655.00000
11.30000	40580.00000
11.32000	53022.00000
11.34000	68206.00000
11.36000	82022.00000
11.38000	85424.00000
11.40000	72429.00000
11.42000	49192.00000
11.44000	28333.00000
11.46000	14394.00000
11.48000	7286.00000
11.50000	3997.00000
11.52000	2689.00000
11.54000	2247.00000
11.56000	2108.00000
11.58000	1925.00000
11.60000	1790.00000
11.62000	1794.00000
11.64000	1805.00000
11.66000	1742.00000
11.68000	1727.00000
11.70000	1717.00000
11.72000	1663.00000
11.74000	1586.00000
11.76000	1569.00000
11.78000	1676.00000
11.80000	1638.00000
11.82000	1608.00000
11.84000	1551.00000
11.86000	1558.00000
11.88000	1514.00000
11.90000	1590.00000
11.92000	1581.00000
11.94000	1599.00000
11.96000	1591.00000
11.98000	1560.00000
12.00000	1550.00000
12.02000	1530.00000
12.04000	1490.00000
12.06000	1512.00000
12.08000	1467.00000
12.10000	1456.00000
12.12000	1474.00000
12.14000	1429.00000
12.16000	1433.00000
12.18000	1505.00000
12.20000	1457.00000
12.22000	1423.00000
12.24000	1416.00000
12.26000	1408.00000
12.28000	1463.00000
12.30000	1464.00000
12.32000	1392.00000
12.34000	1411.00000
12.36000	1484.00000
12.38000	1519.00000
12.40000	1454.00000
12.42000	1439.00000
12.44000	1393.00000
12.46000	1494.00000
12.48000	1460.00000
12.50000	1411.00000
12.52000	1364.00000
12.54000	1385.00000
12.56000	1435.00000
12.58000	1475.00000
12.60000	1447.00000
12.62000	1489.00000
12.64000	1344.00000
12.66000	1427.00000
12.68000	1457.00000
12.70000	1437.00000
12.72000	1426.00000
12.74000	1444.00000
12.76000	1457.00000
12.78000	1435.00000
12.80000	1491.00000
12.82000	1430.00000
12.84000	1381.00000
12.86000	1395.00000
12.88000	1419.00000
12.90000	1364.00000
12.92000	1330.00000
12.94000	1377.00000
12.96000	1455.00000
12.98000	1467.00000
13.00000	1469.00000
13.02000	1442.00000
13.04000	1423.00000
13.06000	1423.00000
13.08000	1395.00000
13.10000	1369.00000
13.12000	1391.00000
13.14000	1424.00000
13.16000	1429.00000
13.18000	1454.00000
13.20000	1443.00000
13.22000	1410.00000
13.24000	1393.00000
13.26000	1429.00000
13.28000	1423.00000
13.30000	1433.00000
13.32000	1370.00000
13.34000	1436.00000
13.36000	1383.00000
13.38000	1391.00000
13.40000	1437.00000
13.42000	1415.00000
13.44000	1425.00000
13.46000	1386.00000
13.48000	1455.00000
13.50000	1433.00000
13.52000	1374.00000
13.54000	1435.00000
13.56000	1370.00000
13.58000	1414.00000
13.60000	1382.00000
13.62000	1392.00000
13.64000	1352.00000
13.66000	1357.00000
13.68000	1379.00000
13.70000	1377.00000
13.72000	1412.00000
13.74000	1418.00000
13.76000	1453.00000
13.78000	1408.00000
13.80000	1420.00000
13.82000	1451.00000
13.84000	1463.00000
13.86000	1454.00000
13.88000	1518.00000
13.90000	1501.00000
13.92000	1567.00000
13.94000	1611.00000
13.96000	1694.00000
13.98000	1901.00000
14.00000	2185.00000
14.02000	2493.00000
14.04000	2985.00000
14.06000	3569.00000
14.08000	4552.00000
14.10000	5982.00000
14.12000	7717.00000
14.14000	10455.00000
14.16000	13501.00000
14.18000	16645.00000
14.20000	17612.00000
14.22000	14969.00000
14.24000	10111.00000
14.26000	5761.00000
14.28000	3369.00000
14.30000	2232.00000
14.32000	1867.00000
14.34000	1544.00000
14.36000	1608.00000
14.38000	1445.00000
14.40000	1490.00000
14.42000	1458.00000
14.44000	1465.00000
14.46000	1426.00000
14.48000	1470.00000
14.50000	1454.00000
14.52000	1401.00000
14.54000	1415.00000
14.56000	1383.00000
14.58000	1418.00000
14.60000	1438.00000
14.62000	1430.00000
14.64000	1394.00000
14.66000	1400.00000
14.68000	1414.00000
14.70000	1464.00000
14.72000	1443.00000
14.74000	1401.00000
14.76000	1447.00000
14.78000	1409.00000
14.80000	1441.00000
14.82000	1399.00000
14.84000	1422.00000
14.86000	1372.00000
14.88000	1395.00000
14.90000	1426.00000
14.92000	1391.00000
14.94000	1348.00000
14.96000	1389.00000
14.98000	1383.00000
15.00000	1381.00000
15.02000	1346.00000
15.04000	1386.00000
15.06000	1461.00000
15.08000	1413.00000
15.10000	1454.00000
15.12000	1483.00000
15.14000	1511.00000
15.16000	1524.00000
15.18000	1568.00000
15.20000	1589.00000
15.22000	1697.00000
15.24000	1719.00000
15.26000	1606.00000
15.28000	1503.00000
15.30000	1482.00000
15.32000	1452.00000
15.34000	1345.00000
15.36000	1437.00000
15.38000	1442.00000
15.40000	1376.00000
15.42000	1351.00000
15.44000	1434.00000
15.46000	1361.00000
15.48000	1356.00000
15.50000	1363.00000
15.52000	1322.00000
15.54000	1508.00000
15.56000	1452.00000
15.58000	1439.00000
15.60000	1418.00000
15.62000	1426.00000
15.64000	1453.00000
15.66000	1416.00000
15.68000	1448.00000
15.70000	1439.00000
15.72000	1413.00000
15.74000	1361.00000
15.76000	1399.00000
15.78000	1384.00000
15.80000	1413.00000
15.82000	1411.00000
15.84000	1379.00000
15.86000	1398.00000
15.88000	1451.00000
15.90000	1506.00000
15.92000	1401.00000
15.94000	1431.00000
15.96000	1508.00000
15.98000	1431.00000
16.00000	1487.00000
16.02000	1434.00000
16.04000	1396.00000
16.06000	1410.00000
16.08000	1479.00000
16.10000	1405.00000
16.12000	1442.00000
16.14000	1448.00000
16.16000	1423.00000
16.18000	1393.00000
16.20000	1432.00000
16.22000	1509.00000
16.24000	1510.00000
16.26000	1468.00000
16.28000	1455.00000
16.30000	1416.00000
16.32000	1408.00000
16.34000	1481.00000
16.36000	1449.00000
16.38000	1529.00000
16.40000	1415.00000
16.42000	1412.00000
16.44000	1440.00000
16.46000	1514.00000
16.48000	1459.00000
16.50000	1493.00000
16.52000	1507.00000
16.54000	1512.00000
16.56000	1457.00000
16.58000	1550.00000
16.60000	1490.00000
16.62000	1462.00000
16.64000	1497.00000
16.66000	1481.00000
16.68000	1532.00000
16.70000	1616.00000
16.72000	1568.00000
16.74000	1642.00000
16.76000	1669.00000
16.78000	1791.00000
16.80000	1904.00000
16.82000	2262.00000
16.84000	2525.00000
16.86000	3077.00000
16.88000	4102.00000
16.90000	5467.00000
16.92000	7440.00000
16.94000	10272.00000
16.96000	13946.00000
16.98000	17382.00000
17.00000	18116.00000
17.02000	14865.00000
17.04000	10292.00000
17.06000	6084.00000
17.08000	3600.00000
17.10000	2464.00000
17.12000	1949.00000
17.14000	1850.00000
17.16000	1794.00000
17.18000	1886.00000
17.20000	2053.00000
17.22000	2235.00000
17.24000	2439.00000
17.26000	2864.00000
17.28000	3767.00000
17.30000	4925.00000
17.32000	6827.00000
17.34000	9323.00000
17.36000	13350.00000
17.38000	18886.00000
17.40000	26067.00000
17.42000	33914.00000
17.44000	38794.00000
17.46000	36760.00000
17.48000	27582.00000
17.50000	17258.00000
17.52000	9426.00000
17.54000	5157.00000
17.56000	3160.00000
17.58000	2252.00000
17.60000	1977.00000
17.62000	1870.00000
17.64000	1752.00000
17.66000	1739.00000
17.68000	1655.00000
17.70000	1703.00000
17.72000	1623.00000
17.74000	1629.00000
17.76000	1653.00000
17.78000	1582.00000
17.80000	1589.00000
17.82000	1576.00000
17.84000	1583.00000
17.86000	1607.00000
17.88000	1623.00000
17.90000	1590.00000
17.92000	1651.00000
17.94000	1575.00000
17.96000	1639.00000
17.98000	1566.00000
18.00000	1562.00000
18.02000	1533.00000
18.04000	1602.00000
18.06000	1617.00000
18.08000	1589.00000
18.10000	1565.00000
18.12000	1631.00000
18.14000	1605.00000
18.16000	1577.00000
18.18000	1589.00000
18.20000	1626.00000
18.22000	1659.00000
18.24000	1607.00000
18.26000	1642.00000
18.28000	1632.00000
18.30000	1697.00000
18.32000	1739.00000
18.34000	1728.00000
18.36000	1697.00000
18.38000	1800.00000
18.40000	1808.00000
18.42000	2001.00000
18.44000	2182.00000
18.46000	2384.00000
18.48000	2951.00000
18.50000	3795.00000
18.52000	4922.00000
18.54000	6408.00000
18.56000	8412.00000
18.58000	10347.00000
18.60000	11359.00000
18.62000	10958.00000
18.64000	9800.00000
18.66000	7623.00000
18.68000	5341.00000
18.70000	3478.00000
18.72000	2596.00000
18.74000	2067.00000
18.76000	1863.00000
18.78000	1780.00000
18.80000	1904.00000
18.82000	2033.00000
18.84000	2153.00000
18.86000	2388.00000
18.88000	2839.00000
18.90000	3504.00000
18.92000	4628.00000
18.94000	5908.00000
18.96000	7538.00000
18.98000	9321.00000
19.00000	10265.00000
19.02000	9752.00000
19.04000	7328.00000
19.06000	4987.00000
19.08000	3200.00000
19.10000	2455.00000
19.12000	2010.00000
19.14000	1857.00000
19.16000	1843.00000
19.18000	1957.00000
19.20000	2020.00000
19.22000	2236.00000
19.24000	2507.00000
19.26000	3148.00000
19.28000	4034.00000
19.30000	5458.00000
19.32000	7426.00000
19.34000	10668.00000
19.36000	14945.00000
19.38000	20686.00000
19.40000	26308.00000
19.42000	29267.00000
19.44000	25889.00000
19.46000	18437.00000
19.48000	10774.00000
19.50000	5916.00000
19.52000	3581.00000
19.54000	2439.00000
19.56000	2098.00000
19.58000	1893.00000
19.60000	1801.00000
19.62000	1827.00000
19.64000	1801.00000
19.66000	1728.00000
19.68000	1734.00000
19.70000	1779.00000
19.72000	1659.00000
19.74000	1674.00000
19.76000	1726.00000
19.78000	1754.00000
19.80000	1731.00000
19.82000	1652.00000
19.84000	1697.00000
19.86000	1719.00000
19.88000	1690.00000
19.90000	1716.00000
19.92000	1647.00000
19.94000	1673.00000
19.96000	1701.00000
19.98000	1727.00000
20.00000	1690.00000
20.02000	1721.00000
20.04000	1678.00000
20.06000	1629.00000
20.08000	1655.00000
20.10000	1697.00000
20.12000	1756.00000
20.14000	1801.00000
20.16000	1746.00000
20.18000	1796.00000
20.20000	1827.00000
20.22000	1804.00000
20.24000	1864.00000
20.26000	1988.00000
20.28000	2245.00000
20.30000	2540.00000
20.32000	3135.00000
20.34000	3859.00000
20.36000	5306.00000
20.38000	7299.00000
20.40000	10266.00000
20.42000	14431.00000
20.44000	19516.00000
20.46000	23033.00000
20.48000	22951.00000
20.50000	19255.00000
20.52000	13490.00000
20.54000	8644.00000
20.56000	4922.00000
20.58000	3126.00000
20.60000	2404.00000
20.62000	2045.00000
20.64000	1944.00000
20.66000	1869.00000
20.68000	1757.00000
20.70000	1823.00000
20.72000	1761.00000
20.74000	1703.00000
20.76000	1744.00000
20.78000	1705.00000
20.80000	1778.00000
20.82000	1778.00000
20.84000	1718.00000
20.86000	1690.00000
20.88000	1689.00000
20.90000	1702.00000
20.92000	1631.00000
20.94000	1653.00000
20.96000	1692.00000
20.98000	1676.00000
21.00000	1640.00000
21.02000	1740.00000
21.04000	1733.00000
21.06000	1692.00000
21.08000	1629.00000
21.10000	1656.00000
21.12000	1720.00000
21.14000	1650.00000
21.16000	1691.00000
21.18000	1749.00000
21.20000	1742.00000
21.22000	1736.00000
21.24000	1681.00000
21.26000	1762.00000
21.28000	1674.00000
21.30000	1740.00000
21.32000	1657.00000
21.34000	1740.00000
21.36000	1659.00000
21.38000	1681.00000
21.40000	1702.00000
21.42000	1683.00000
21.44000	1683.00000
21.46000	1672.00000
21.48000	1679.00000
21.50000	1636.00000
21.52000	1678.00000
21.54000	1699.00000
21.56000	1618.00000
21.58000	1694.00000
21.60000	1709.00000
21.62000	1709.00000
21.64000	1670.00000
21.66000	1611.00000
21.68000	1717.00000
21.70000	1741.00000
21.72000	1776.00000
21.74000	1669.00000
21.76000	1700.00000
21.78000	1721.00000
21.80000	1681.00000
21.82000	1715.00000
21.84000	1700.00000
21.86000	1690.00000
21.88000	1652.00000
21.90000	1694.00000
21.92000	1709.00000
21.94000	1685.00000
21.96000	1648.00000
21.98000	1677.00000
22.00000	1664.00000
22.02000	1712.00000
22.04000	1706.00000
22.06000	1656.00000
22.08000	1676.00000
22.10000	1667.00000
22.12000	1654.00000
22.14000	1722.00000
22.16000	1660.00000
22.18000	1794.00000
22.20000	1687.00000
22.22000	1715.00000
22.24000	1788.00000
22.26000	1696.00000
22.28000	1761.00000
22.30000	1802.00000
22.32000	1702.00000
22.34000	1638.00000
22.36000	1699.00000
22.38000	1798.00000
22.40000	1709.00000
22.42000	1750.00000
22.44000	1734.00000
22.46000	1665.00000
22.48000	1706.00000
22.50000	1827.00000
22.52000	1732.00000
22.54000	1735.00000
22.56000	1780.00000
22.58000	1727.00000
22.60000	1840.00000
22.62000	1759.00000
22.64000	1875.00000
22.66000	1976.00000
22.68000	2191.00000
22.70000	2334.00000
22.72000	2731.00000
22.74000	3522.00000
22.76000	4696.00000
22.78000	6626.00000
22.80000	9611.00000
22.82000	13601.00000
22.84000	17619.00000
22.86000	19570.00000
22.88000	18006.00000
22.90000	13630.00000
22.92000	9080.00000
22.94000	5640.00000
22.96000	3569.00000
22.98000	2627.00000
23.00000	2121.00000
23.02000	1920.00000
23.04000	1819.00000
23.06000	1809.00000
23.08000	1805.00000
23.10000	1813.00000
23.12000	1805.00000
23.14000	1764.00000
23.16000	1745.00000
23.18000	1749.00000
23.20000	1681.00000
23.22000	1684.00000
23.24000	1779.00000
23.26000	1753.00000
23.28000	1743.00000
23.30000	1725.00000
23.32000	1751.00000
23.34000	1789.00000
23.36000	1781.00000
23.38000	1780.00000
23.40000	1716.00000
23.42000	1761.00000
23.44000	1743.00000
23.46000	1754.00000
23.48000	1705.00000
23.50000	1701.00000
23.52000	1725.00000
23.54000	1729.00000
23.56000	1713.00000
23.58000	1816.00000
23.60000	1863.00000
23.62000	1729.00000
23.64000	1692.00000
23.66000	1724.00000
23.68000	1736.00000
23.70000	1754.00000
23.72000	1730.00000
23.74000	1691.00000
23.76000	1737.00000
23.78000	1744.00000
23.80000	1644.00000
23.82000	1754.00000
23.84000	1708.00000
23.86000	1749.00000
23.88000	1747.00000
23.90000	1747.00000
23.92000	1794.00000
23.94000	1824.00000
23.96000	1782.00000
23.98000	1785.00000
24.00000	1825.00000
24.02000	1939.00000
24.04000	1997.00000
24.06000	2192.00000
24.08000	2322.00000
24.10000	2252.00000
24.12000	2227.00000
24.14000	2080.00000
24.16000	1970.00000
24.18000	1967.00000
24.20000	1959.00000
24.22000	2045.00000
24.24000	2229.00000
24.26000	2667.00000
24.28000	3219.00000
24.30000	4425.00000
24.32000	6206.00000
24.34000	9271.00000
24.36000	14222.00000
24.38000	20902.00000
24.40000	28490.00000
24.42000	34221.00000
24.44000	35076.00000
24.46000	30007.00000
24.48000	21158.00000
24.50000	12973.00000
24.52000	7354.00000
24.54000	4314.00000
24.56000	2872.00000
24.58000	2278.00000
24.60000	2097.00000
24.62000	1961.00000
24.64000	1807.00000
24.66000	1823.00000
24.68000	1767.00000
24.70000	1852.00000
24.72000	1822.00000
24.74000	1793.00000
24.76000	1703.00000
24.78000	1731.00000
24.80000	1741.00000
24.82000	1724.00000
24.84000	1649.00000
24.86000	1708.00000
24.88000	1754.00000
24.90000	1721.00000
24.92000	1681.00000
24.94000	1727.00000
24.96000	1702.00000
24.98000	1626.00000
25.00000	1644.00000
25.02000	1677.00000
25.04000	1654.00000
25.06000	1639.00000
25.08000	1604.00000
25.10000	1647.00000
25.12000	1691.00000
25.14000	1655.00000
25.16000	1721.00000
25.18000	1773.00000
25.20000	1753.00000
25.22000	1852.00000
25.24000	2054.00000
25.26000	2200.00000
25.28000	2480.00000
25.30000	2509.00000
25.32000	2432.00000
25.34000	2127.00000
25.36000	1904.00000
25.38000	1750.00000
25.40000	1707.00000
25.42000	1627.00000
25.44000	1688.00000
25.46000	1583.00000
25.48000	1661.00000
25.50000	1676.00000
25.52000	1688.00000
25.54000	1747.00000
25.56000	1628.00000
25.58000	1609.00000
25.60000	1630.00000
25.62000	1641.00000
25.64000	1667.00000
25.66000	1662.00000
25.68000	1671.00000
25.70000	1685.00000
25.72000	1684.00000
25.74000	1758.00000
25.76000	1838.00000
25.78000	1906.00000
25.80000	2146.00000
25.82000	2475.00000
25.84000	3128.00000
25.86000	4181.00000
25.88000	5739.00000
25.90000	8000.00000
25.92000	10761.00000
25.94000	12874.00000
25.96000	12721.00000
25.98000	10166.00000
26.00000	6844.00000
26.02000	4370.00000
26.04000	2916.00000
26.06000	2200.00000
26.08000	1920.00000
26.10000	1773.00000
26.12000	1726.00000
26.14000	1660.00000
26.16000	1657.00000
26.18000	1689.00000
26.20000	1626.00000
26.22000	1610.00000
26.24000	1632.00000
26.26000	1639.00000
26.28000	1638.00000
26.30000	1582.00000
26.32000	1641.00000
26.34000	1678.00000
26.36000	1661.00000
26.38000	1588.00000
26.40000	1669.00000
26.42000	1658.00000
26.44000	1667.00000
26.46000	1727.00000
26.48000	1758.00000
26.50000	1755.00000
26.52000	1846.00000
26.54000	1850.00000
26.56000	2061.00000
26.58000	2371.00000
26.60000	2936.00000
26.62000	3883.00000
26.64000	5243.00000
26.66000	7302.00000
26.68000	10000.00000
26.70000	13401.00000
26.72000	18074.00000
26.74000	22468.00000
26.76000	24532.00000
26.78000	21658.00000
26.80000	15583.00000
26.82000	9515.00000
26.84000	5574.00000
26.86000	3484.00000
26.88000	2739.00000
26.90000	2852.00000
26.92000	3362.00000
26.94000	4511.00000
26.96000	6328.00000
26.98000	8782.00000
27.00000	11678.00000
27.02000	13121.00000
27.04000	12364.00000
27.06000	9271.00000
27.08000	5818.00000
27.10000	3634.00000
27.12000	2529.00000
27.14000	1898.00000
27.16000	1756.00000
27.18000	1710.00000
27.20000	1674.00000
27.22000	1598.00000
27.24000	1668.00000
27.26000	1577.00000
27.28000	1546.00000
27.30000	1588.00000
27.32000	1562.00000
27.34000	1554.00000
27.36000	1603.00000
27.38000	1568.00000
27.40000	1615.00000
27.42000	1537.00000
27.44000	1606.00000
27.46000	1573.00000
27.48000	1512.00000
27.50000	1553.00000
27.52000	1534.00000
27.54000	1529.00000
27.56000	1579.00000
27.58000	1558.00000
27.60000	1543.00000
27.62000	1575.00000
27.64000	1598.00000
27.66000	1524.00000
27.68000	1565.00000
27.70000	1586.00000
27.72000	1628.00000
27.74000	1598.00000
27.76000	1550.00000
27.78000	1613.00000
27.80000	1649.00000
27.82000	1665.00000
27.84000	1630.00000
27.86000	1716.00000
27.88000	1796.00000
27.90000	1981.00000
27.92000	2360.00000
27.94000	3038.00000
27.96000	4183.00000
27.98000	5919.00000
28.00000	8254.00000
28.02000	10838.00000
28.04000	12789.00000
28.06000	12686.00000
28.08000	10844.00000
28.10000	8992.00000
28.12000	7083.00000
28.14000	5188.00000
28.16000	3537.00000
28.18000	2617.00000
28.20000	2078.00000
28.22000	1795.00000
28.24000	1727.00000
28.26000	1652.00000
28.28000	1556.00000
28.30000	1548.00000
28.32000	1602.00000
28.34000	1634.00000
28.36000	1592.00000
28.38000	1569.00000
28.40000	1657.00000
28.42000	1630.00000
28.44000	1731.00000
28.46000	1914.00000
28.48000	2174.00000
28.50000	2529.00000
28.52000	3278.00000
28.54000	4547.00000
28.56000	6769.00000
28.58000	10148.00000
28.60000	13973.00000
28.62000	17080.00000
28.64000	17405.00000
28.66000	14538.00000
28.68000	10420.00000
28.70000	6975.00000
28.72000	4539.00000
28.74000	3081.00000
28.76000	2234.00000
28.78000	1939.00000
28.80000	1718.00000
28.82000	1629.00000
28.84000	1568.00000
28.86000	1494.00000
28.88000	1508.00000
28.90000	1598.00000
28.92000	1544.00000
28.94000	1533.00000
28.96000	1480.00000
28.98000	1472.00000
29.00000	1490.00000
29.02000	1538.00000
29.04000	1464.00000
29.06000	1485.00000
29.08000	1550.00000
29.10000	1544.00000
29.12000	1495.00000
29.14000	1508.00000
29.16000	1510.00000
29.18000	1467.00000
29.20000	1481.00000
29.22000	1476.00000
29.24000	1459.00000
29.26000	1470.00000
29.28000	1459.00000
29.30000	1473.00000
29.32000	1421.00000
29.34000	1452.00000
29.36000	1482.00000
29.38000	1490.00000
29.40000	1469.00000
29.42000	1544.00000
29.44000	1466.00000
29.46000	1469.00000
29.48000	1484.00000
29.50000	1446.00000
29.52000	1464.00000
29.54000	1514.00000
29.56000	1479.00000
29.58000	1490.00000
29.60000	1482.00000
29.62000	1474.00000
29.64000	1506.00000
29.66000	1462.00000
29.68000	1592.00000
29.70000	1553.00000
29.72000	1635.00000
29.74000	1783.00000
29.76000	1975.00000
29.78000	2313.00000
29.80000	3034.00000
29.82000	4081.00000
29.84000	5723.00000
29.86000	8430.00000
29.88000	11273.00000
29.90000	15125.00000
29.92000	19396.00000
29.94000	21695.00000
29.96000	20614.00000
29.98000	16257.00000
30.00000	10649.00000
30.02000	6418.00000
30.04000	3684.00000
30.06000	2542.00000
30.08000	1923.00000
30.10000	1759.00000
30.12000	1620.00000
30.14000	1567.00000
30.16000	1545.00000
30.18000	1500.00000
30.20000	1519.00000
30.22000	1482.00000
30.24000	1524.00000
30.26000	1514.00000
30.28000	1429.00000
30.30000	1451.00000
30.32000	1469.00000
30.34000	1495.00000
30.36000	1445.00000
30.38000	1435.00000
30.40000	1356.00000
30.42000	1463.00000
30.44000	1465.00000
30.46000	1459.00000
30.48000	1468.00000
30.50000	1463.00000
30.52000	1479.00000
30.54000	1424.00000
30.56000	1439.00000
30.58000	1402.00000
30.60000	1425.00000
30.62000	1529.00000
30.64000	1507.00000
30.66000	1685.00000
30.68000	1720.00000
30.70000	2008.00000
30.72000	2227.00000
30.74000	2478.00000
30.76000	2610.00000
30.78000	2703.00000
30.80000	3106.00000
30.82000	3552.00000
30.84000	4360.00000
30.86000	5049.00000
30.88000	5218.00000
30.90000	4669.00000
30.92000	3831.00000
30.94000	2883.00000
30.96000	2436.00000
30.98000	2412.00000
31.00000	2930.00000
31.02000	3954.00000
31.04000	5774.00000
31.06000	8162.00000
31.08000	11139.00000
31.10000	13041.00000
31.12000	12851.00000
31.14000	10585.00000
31.16000	7922.00000
31.18000	5747.00000
31.20000	3783.00000
31.22000	2706.00000
31.24000	2019.00000
31.26000	1718.00000
31.28000	1537.00000
31.30000	1429.00000
31.32000	1485.00000
31.34000	1427.00000
31.36000	1449.00000
31.38000	1333.00000
31.40000	1428.00000
31.42000	1439.00000
31.44000	1410.00000
31.46000	1356.00000
31.48000	1409.00000
31.50000	1406.00000
31.52000	1394.00000
31.54000	1397.00000
31.56000	1351.00000
31.58000	1351.00000
31.60000	1395.00000
31.62000	1448.00000
31.64000	1497.00000
31.66000	1605.00000
31.68000	1847.00000
31.70000	2254.00000
31.72000	2975.00000
31.74000	4179.00000
31.76000	5984.00000
31.78000	8445.00000
31.80000	10516.00000
31.82000	11126.00000
31.84000	10063.00000
31.86000	7724.00000
31.88000	5945.00000
31.90000	4712.00000
31.92000	4456.00000
31.94000	4373.00000
31.96000	4067.00000
31.98000	3274.00000
32.00000	2519.00000
32.02000	2002.00000
32.04000	1556.00000
32.06000	1442.00000
32.08000	1407.00000
32.10000	1416.00000
32.12000	1356.00000
32.14000	1315.00000
32.16000	1369.00000
32.18000	1334.00000
32.20000	1282.00000
32.22000	1301.00000
32.24000	1390.00000
32.26000	1238.00000
32.28000	1269.00000
32.30000	1276.00000
32.32000	1302.00000
32.34000	1227.00000
32.36000	1284.00000
32.38000	1219.00000
32.40000	1270.00000
32.42000	1235.00000
32.44000	1256.00000
32.46000	1227.00000
32.48000	1215.00000
32.50000	1236.00000
32.52000	1279.00000
32.54000	1259.00000
32.56000	1313.00000
32.58000	1266.00000
32.60000	1236.00000
32.62000	1270.00000
32.64000	1138.00000
32.66000	1179.00000
32.68000	1169.00000
32.70000	1231.00000
32.72000	1259.00000
32.74000	1196.00000
32.76000	1259.00000
32.78000	1194.00000
32.80000	1197.00000
32.82000	1213.00000
32.84000	1214.00000
32.86000	1236.00000
32.88000	1200.00000
32.90000	1180.00000
32.92000	1208.00000
32.94000	1177.00000
32.96000	1205.00000
32.98000	1143.00000
33.00000	1210.00000
33.02000	1216.00000
33.04000	1185.00000
33.06000	1218.00000
33.08000	1248.00000
33.10000	1200.00000
33.12000	1195.00000
33.14000	1217.00000
33.16000	1215.00000
33.18000	1207.00000
33.20000	1211.00000
33.22000	1191.00000
33.24000	1199.00000
33.26000	1214.00000
33.28000	1238.00000
33.30000	1223.00000
33.32000	1246.00000
33.34000	1242.00000
33.36000	1262.00000
33.38000	1411.00000
33.40000	1603.00000
33.42000	1783.00000
33.44000	2285.00000
33.46000	2904.00000
33.48000	3797.00000
33.50000	4329.00000
33.52000	4276.00000
33.54000	3607.00000
33.56000	2639.00000
33.58000	1918.00000
33.60000	1465.00000
33.62000	1342.00000
33.64000	1245.00000
33.66000	1197.00000
33.68000	1172.00000
33.70000	1203.00000
33.72000	1170.00000
33.74000	1193.00000
33.76000	1156.00000
33.78000	1145.00000
33.80000	1142.00000
33.82000	1180.00000
33.84000	1166.00000
33.86000	1107.00000
33.88000	1165.00000
33.90000	1185.00000
33.92000	1184.00000
33.94000	1150.00000
33.96000	1143.00000
33.98000	1167.00000
34.00000	1099.00000
34.02000	1244.00000
34.04000	1192.00000
34.06000	1172.00000
34.08000	1170.00000
34.10000	1117.00000
34.12000	1083.00000
34.14000	1182.00000
34.16000	1189.00000
34.18000	1161.00000
34.20000	1157.00000
34.22000	1239.00000
34.24000	1287.00000
34.26000	1365.00000
34.28000	1449.00000
34.30000	1726.00000
34.32000	2178.00000
34.34000	2806.00000
34.36000	3609.00000
34.38000	4373.00000
34.40000	4459.00000
34.42000	3822.00000
34.44000	2926.00000
34.46000	2304.00000
34.48000	1949.00000
34.50000	1999.00000
34.52000	2489.00000
34.54000	3272.00000
34.56000	4146.00000
34.58000	4891.00000
34.60000	5033.00000
34.62000	4464.00000
34.64000	3585.00000
34.66000	2667.00000
34.68000	2017.00000
34.70000	1571.00000
34.72000	1365.00000
34.74000	1250.00000
34.76000	1176.00000
34.78000	1166.00000
34.80000	1182.00000
34.82000	1117.00000
34.84000	1150.00000
34.86000	1126.00000
34.88000	1167.00000
34.90000	1182.00000
34.92000	1100.00000
34.94000	1164.00000
34.96000	1157.00000
34.98000	1141.00000
35.00000	1181.00000
35.02000	1255.00000
35.04000	1231.00000
35.06000	1291.00000
35.08000	1393.00000
35.10000	1497.00000
35.12000	1754.00000
35.14000	2012.00000
35.16000	2282.00000
35.18000	2439.00000
35.20000	2657.00000
35.22000	3248.00000
35.24000	4318.00000
35.26000	5510.00000
35.28000	6680.00000
35.30000	7619.00000
35.32000	8430.00000
35.34000	9475.00000
35.36000	10073.00000
35.38000	10268.00000
35.40000	9074.00000
35.42000	7550.00000
35.44000	6413.00000
35.46000	5912.00000
35.48000	5524.00000
35.50000	4785.00000
35.52000	3659.00000
35.54000	2589.00000
35.56000	2043.00000
35.58000	1687.00000
35.60000	1652.00000
35.62000	1887.00000
35.64000	2317.00000
35.66000	2730.00000
35.68000	3004.00000
35.70000	2856.00000
35.72000	2371.00000
35.74000	2139.00000
35.76000	1758.00000
35.78000	1504.00000
35.80000	1303.00000
35.82000	1192.00000
35.84000	1143.00000
35.86000	1120.00000
35.88000	1126.00000
35.90000	1117.00000
35.92000	1081.00000
35.94000	1099.00000
35.96000	1123.00000
35.98000	1091.00000
36.00000	1123.00000
36.02000	1074.00000
36.04000	1070.00000
36.06000	1105.00000
36.08000	1083.00000
36.10000	1042.00000
36.12000	1143.00000
36.14000	1137.00000
36.16000	1145.00000
36.18000	1161.00000
36.20000	1176.00000
36.22000	1341.00000
36.24000	1642.00000
36.26000	2082.00000
36.28000	2916.00000
36.30000	4042.00000
36.32000	5364.00000
36.34000	6605.00000
36.36000	7255.00000
36.38000	7516.00000
36.40000	6923.00000
36.42000	6030.00000
36.44000	4563.00000
36.46000	3701.00000
36.48000	3110.00000
36.50000	2771.00000
36.52000	2279.00000
36.54000	1842.00000
36.56000	1556.00000
36.58000	1296.00000
36.60000	1148.00000
36.62000	1107.00000
36.64000	1075.00000
36.66000	1078.00000
36.68000	1102.00000
36.70000	1077.00000
36.72000	1064.00000
36.74000	1033.00000
36.76000	1024.00000
36.78000	1017.00000
36.80000	1035.00000
36.82000	1001.00000
36.84000	1058.00000
36.86000	1043.00000
36.88000	1016.00000
36.90000	1055.00000
36.92000	953.00000
36.94000	990.00000
36.96000	1025.00000
36.98000	1007.00000
37.00000	1003.00000
37.02000	1047.00000
37.04000	1008.00000
37.06000	997.00000
37.08000	1005.00000
37.10000	997.00000
37.12000	1013.00000
37.14000	1010.00000
37.16000	1021.00000
37.18000	964.00000
37.20000	1029.00000
37.22000	1065.00000
37.24000	1124.00000
37.26000	1213.00000
37.28000	1331.00000
37.30000	1516.00000
37.32000	1588.00000
37.34000	1639.00000
37.36000	1444.00000
37.38000	1321.00000
37.40000	1184.00000
37.42000	1086.00000
37.44000	1030.00000
37.46000	999.00000
37.48000	993.00000
37.50000	914.00000
37.52000	956.00000
37.54000	974.00000
37.56000	1010.00000
37.58000	958.00000
37.60000	1052.00000
37.62000	1053.00000
37.64000	1129.00000
37.66000	1170.00000
37.68000	1290.00000
37.70000	1332.00000
37.72000	1412.00000
37.74000	1502.00000
37.76000	1479.00000
37.78000	1634.00000
37.80000	1709.00000
37.82000	1684.00000
37.84000	1594.00000
37.86000	1379.00000
37.88000	1167.00000
37.90000	1086.00000
37.92000	978.00000
37.94000	959.00000
37.96000	928.00000
37.98000	960.00000
38.00000	1018.00000
38.02000	1009.00000
38.04000	962.00000
38.06000	991.00000
38.08000	1020.00000
38.10000	949.00000
38.12000	995.00000
38.14000	1047.00000
38.16000	1033.00000
38.18000	985.00000
38.20000	950.00000
38.22000	977.00000
38.24000	952.00000
38.26000	993.00000
38.28000	972.00000
38.30000	961.00000
38.32000	972.00000
38.34000	974.00000
38.36000	1022.00000
38.38000	988.00000
38.40000	996.00000
38.42000	950.00000
38.44000	1046.00000
38.46000	1084.00000
38.48000	1064.00000
38.50000	1165.00000
38.52000	1382.00000
38.54000	1466.00000
38.56000	1647.00000
38.58000	1807.00000
38.60000	1839.00000
38.62000	1730.00000
38.64000	1747.00000
38.66000	1992.00000
38.68000	2353.00000
38.70000	3083.00000
38.72000	3865.00000
38.74000	4705.00000
38.76000	5727.00000
38.78000	6807.00000
38.80000	7656.00000
38.82000	7523.00000
38.84000	6144.00000
38.86000	4523.00000
38.88000	2992.00000
38.90000	2006.00000
38.92000	1477.00000
38.94000	1147.00000
38.96000	1101.00000
38.98000	1079.00000
39.00000	1001.00000
39.02000	1034.00000
39.04000	987.00000
39.06000	1023.00000
39.08000	1010.00000
39.10000	979.00000
39.12000	1003.00000
39.14000	1077.00000
39.16000	1034.00000
39.18000	1042.00000
39.20000	1106.00000
39.22000	1256.00000
39.24000	1325.00000
39.26000	1650.00000
39.28000	1925.00000
39.30000	2296.00000
39.32000	2666.00000
39.34000	2871.00000
39.36000	3132.00000
39.38000	3418.00000
39.40000	3326.00000
39.42000	3303.00000
39.44000	2854.00000
39.46000	2374.00000
39.48000	1897.00000
39.50000	1507.00000
39.52000	1263.00000
39.54000	1132.00000
39.56000	1140.00000
39.58000	1215.00000
39.60000	1326.00000
39.62000	1555.00000
39.64000	1952.00000
39.66000	2562.00000
39.68000	2955.00000
39.70000	3086.00000
39.72000	2881.00000
39.74000	2495.00000
39.76000	2096.00000
39.78000	1626.00000
39.80000	1305.00000
39.82000	1135.00000
39.84000	1069.00000
39.86000	1020.00000
39.88000	1007.00000
39.90000	929.00000
39.92000	968.00000
39.94000	991.00000
39.96000	996.00000
39.98000	924.00000
40.00000	941.00000
40.02000	920.00000
40.04000	967.00000
40.06000	936.00000
40.08000	975.00000
40.10000	996.00000
40.12000	906.00000
40.14000	916.00000
40.16000	958.00000
40.18000	956.00000
40.20000	956.00000
40.22000	976.00000
40.24000	1034.00000
40.26000	1064.00000
40.28000	1167.00000
40.30000	1329.00000
40.32000	1610.00000
40.34000	2055.00000
40.36000	2634.00000
40.38000	2859.00000
40.40000	2966.00000
40.42000	2604.00000
40.44000	2155.00000
40.46000	1767.00000
40.48000	1409.00000
40.50000	1181.00000
40.52000	1103.00000
40.54000	974.00000
40.56000	993.00000
40.58000	969.00000
40.60000	1044.00000
40.62000	1089.00000
40.64000	1137.00000
40.66000	1152.00000
40.68000	1107.00000
40.70000	1048.00000
40.72000	1031.00000
40.74000	981.00000
40.76000	988.00000
40.78000	951.00000
40.80000	954.00000
40.82000	924.00000
40.84000	976.00000
40.86000	925.00000
40.88000	902.00000
40.90000	969.00000
40.92000	950.00000
40.94000	890.00000
40.96000	929.00000
40.98000	929.00000
41.00000	936.00000
41.02000	954.00000
41.04000	887.00000
41.06000	955.00000
41.08000	951.00000
41.10000	988.00000
41.12000	960.00000
41.14000	927.00000
41.16000	946.00000
41.18000	991.00000
41.20000	922.00000
41.22000	1066.00000
41.24000	1109.00000
41.26000	1358.00000
41.28000	1704.00000
41.30000	2230.00000
41.32000	2703.00000
41.34000	3072.00000
41.36000	3127.00000
41.38000	2864.00000
41.40000	2421.00000
41.42000	1940.00000
41.44000	1467.00000
41.46000	1231.00000
41.48000	1120.00000
41.50000	1018.00000
41.52000	1097.00000
41.54000	1170.00000
41.56000	1329.00000
41.58000	1670.00000
41.60000	2007.00000
41.62000	2389.00000
41.64000	2604.00000
41.66000	2634.00000
41.68000	2720.00000
41.70000	3154.00000
41.72000	3488.00000
41.74000	3679.00000
41.76000	3538.00000
41.78000	2823.00000
41.80000	2131.00000
41.82000	1601.00000
41.84000	1257.00000
41.86000	1099.00000
41.88000	983.00000
41.90000	980.00000
41.92000	955.00000
41.94000	950.00000
41.96000	949.00000
41.98000	968.00000
42.00000	1018.00000
42.02000	946.00000
42.04000	955.00000
42.06000	926.00000
42.08000	945.00000
42.10000	980.00000
42.12000	882.00000
42.14000	891.00000
42.16000	927.00000
42.18000	944.00000
42.20000	938.00000
42.22000	977.00000
42.24000	965.00000
42.26000	925.00000
42.28000	951.00000
42.30000	950.00000
42.32000	903.00000
42.34000	974.00000
42.36000	998.00000
42.38000	1057.00000
42.40000	1110.00000
42.42000	1194.00000
42.44000	1356.00000
42.46000	1839.00000
42.48000	2514.00000
42.50000	3327.00000
42.52000	4062.00000
42.54000	4556.00000
42.56000	4409.00000
42.58000	3977.00000
42.60000	3215.00000
42.62000	2780.00000
42.64000	2536.00000
42.66000	2425.00000
42.68000	2296.00000
42.70000	1936.00000
42.72000	1699.00000
42.74000	1256.00000
42.76000	1141.00000
42.78000	1016.00000
42.80000	961.00000
42.82000	958.00000
42.84000	994.00000
42.86000	933.00000
42.88000	977.00000
42.90000	933.00000
42.92000	941.00000
42.94000	942.00000
42.96000	912.00000
42.98000	907.00000
43.00000	901.00000
43.02000	858.00000
43.04000	946.00000
43.06000	910.00000
43.08000	978.00000
43.10000	899.00000
43.12000	949.00000
43.14000	940.00000
43.16000	912.00000
43.18000	908.00000
43.20000	933.00000
43.22000	936.00000
43.24000	998.00000
43.26000	1040.00000
43.28000	1047.00000
43.30000	1072.00000
43.32000	1123.00000
43.34000	1229.00000
43.36000	1293.00000
43.38000	1542.00000
43.40000	2003.00000
43.42000	2460.00000
43.44000	2868.00000
43.46000	2911.00000
43.48000	2716.00000
43.50000	2509.00000
43.52000	2406.00000
43.54000	2350.00000
43.56000	2113.00000
43.58000	1855.00000
43.60000	1507.00000
43.62000	1303.00000
43.64000	1210.00000
43.66000	1116.00000
43.68000	1051.00000
43.70000	1084.00000
43.72000	1065.00000
43.74000	1098.00000
43.76000	1138.00000
43.78000	1118.00000
43.80000	1072.00000
43.82000	1073.00000
43.84000	1109.00000
43.86000	1138.00000
43.88000	1176.00000
43.90000	1199.00000
43.92000	1289.00000
43.94000	1426.00000
43.96000	1620.00000
43.98000	2030.00000
44.00000	2399.00000
44.02000	2887.00000
44.04000	3670.00000
44.06000	4745.00000
44.08000	5774.00000
44.10000	6462.00000
44.12000	6492.00000
44.14000	5754.00000
44.16000	4474.00000
44.18000	3320.00000
44.20000	2383.00000
44.22000	1760.00000
44.24000	1551.00000
44.26000	1457.00000
44.28000	1447.00000
44.30000	1392.00000
44.32000	1271.00000
44.34000	1111.00000
44.36000	1055.00000
44.38000	1010.00000
44.40000	967.00000
44.42000	926.00000
44.44000	948.00000
44.46000	916.00000
44.48000	928.00000
44.50000	899.00000
44.52000	904.00000
44.54000	880.00000
44.56000	924.00000
44.58000	898.00000
44.60000	894.00000
44.62000	917.00000
44.64000	905.00000
44.66000	892.00000
44.68000	919.00000
44.70000	999.00000
44.72000	998.00000
44.74000	1026.00000
44.76000	1162.00000
44.78000	1385.00000
44.80000	1722.00000
44.82000	2197.00000
44.84000	2624.00000
44.86000	2908.00000
44.88000	2910.00000
44.90000	2590.00000
44.92000	2311.00000
44.94000	2319.00000
44.96000	2569.00000
44.98000	2863.00000
45.00000	2925.00000
45.02000	2617.00000
45.04000	2094.00000
45.06000	1587.00000
45.08000	1254.00000
45.10000	1026.00000
45.12000	1013.00000
45.14000	952.00000
45.16000	966.00000
45.18000	972.00000
45.20000	1021.00000
45.22000	1136.00000
45.24000	1258.00000
45.26000	1537.00000
45.28000	1658.00000
45.30000	1927.00000
45.32000	1931.00000
45.34000	2020.00000
45.36000	1980.00000
45.38000	1792.00000
45.40000	1507.00000
45.42000	1262.00000
45.44000	1047.00000
45.46000	992.00000
45.48000	875.00000
45.50000	888.00000
45.52000	948.00000
45.54000	969.00000
45.56000	910.00000
45.58000	896.00000
45.60000	925.00000
45.62000	901.00000
45.64000	930.00000
45.66000	950.00000
45.68000	950.00000
45.70000	890.00000
45.72000	905.00000
45.74000	923.00000
45.76000	913.00000
45.78000	904.00000
45.80000	909.00000
45.82000	849.00000
45.84000	910.00000
45.86000	843.00000
45.88000	974.00000
45.90000	892.00000
45.92000	975.00000
45.94000	900.00000
45.96000	1009.00000
45.98000	1072.00000
46.00000	1221.00000
46.02000	1518.00000
46.04000	1966.00000
46.06000	2611.00000
46.08000	3501.00000
46.10000	3965.00000
46.12000	4081.00000
46.14000	3880.00000
46.16000	3533.00000
46.18000	3490.00000
46.20000	3582.00000
46.22000	3873.00000
46.24000	3736.00000
46.26000	3434.00000
46.28000	2695.00000
46.30000	2002.00000
46.32000	1434.00000
46.34000	1160.00000
46.36000	993.00000
46.38000	944.00000
46.40000	955.00000
46.42000	923.00000
46.44000	943.00000
46.46000	861.00000
46.48000	898.00000
46.50000	902.00000
46.52000	846.00000
46.54000	931.00000
46.56000	899.00000
46.58000	913.00000
46.60000	963.00000
46.62000	992.00000
46.64000	1050.00000
46.66000	1181.00000
46.68000	1479.00000
46.70000	1613.00000
46.72000	1746.00000
46.74000	1696.00000
46.76000	1749.00000
46.78000	1706.00000
46.80000	1632.00000
46.82000	1504.00000
46.84000	1314.00000
46.86000	1184.00000
46.88000	1103.00000
46.90000	1045.00000
46.92000	1021.00000
46.94000	1019.00000
46.96000	951.00000
46.98000	1038.00000
47.00000	976.00000
47.02000	1071.00000
47.04000	1171.00000
47.06000	1317.00000
47.08000	1536.00000
47.10000	1513.00000
47.12000	1322.00000
47.14000	1218.00000
47.16000	1059.00000
47.18000	949.00000
47.20000	898.00000
47.22000	876.00000
47.24000	876.00000
47.26000	890.00000
47.28000	881.00000
47.30000	881.00000
47.32000	882.00000
47.34000	903.00000
47.36000	911.00000
47.38000	934.00000
47.40000	947.00000
47.42000	1042.00000
47.44000	1149.00000
47.46000	1294.00000
47.48000	1433.00000
47.50000	1604.00000
47.52000	1911.00000
47.54000	2322.00000
47.56000	2631.00000
47.58000	2971.00000
47.60000	3236.00000
47.62000	3450.00000
47.64000	3516.00000
47.66000	3324.00000
47.68000	2961.00000
47.70000	2600.00000
47.72000	2447.00000
47.74000	2550.00000
47.76000	2906.00000
47.78000	3407.00000
47.80000	3833.00000
47.82000	3889.00000
47.84000	3615.00000
47.86000	2944.00000
47.88000	2234.00000
47.90000	1716.00000
47.92000	1337.00000
47.94000	1088.00000
47.96000	965.00000
47.98000	916.00000
48.00000	943.00000
48.02000	881.00000
48.04000	893.00000
48.06000	897.00000
48.08000	955.00000
48.10000	905.00000
48.12000	829.00000
48.14000	876.00000
48.16000	901.00000
48.18000	873.00000
48.20000	897.00000
48.22000	851.00000
48.24000	886.00000
48.26000	879.00000
48.28000	881.00000
48.30000	957.00000
48.32000	929.00000
48.34000	1018.00000
48.36000	1137.00000
48.38000	1304.00000
48.40000	1644.00000
48.42000	1918.00000
48.44000	2185.00000
48.46000	2260.00000
48.48000	2343.00000
48.50000	2478.00000
48.52000	2876.00000
48.54000	3051.00000
48.56000	3145.00000
48.58000	2808.00000
48.60000	2244.00000
48.62000	1650.00000
48.64000	1280.00000
48.66000	1080.00000
48.68000	945.00000
48.70000	918.00000
48.72000	881.00000
48.74000	885.00000
48.76000	900.00000
48.78000	843.00000
48.80000	906.00000
48.82000	951.00000
48.84000	877.00000
48.86000	823.00000
48.88000	858.00000
48.90000	880.00000
48.92000	849.00000
48.94000	836.00000
48.96000	847.00000
48.98000	884.00000
49.00000	874.00000
49.02000	854.00000
49.04000	842.00000
49.06000	827.00000
49.08000	875.00000
49.10000	873.00000
49.12000	848.00000
49.14000	874.00000
49.16000	822.00000
49.18000	854.00000
49.20000	848.00000
49.22000	853.00000
49.24000	940.00000
49.26000	904.00000
49.28000	937.00000
49.30000	945.00000
49.32000	1049.00000
49.34000	1060.00000
49.36000	1112.00000
49.38000	1169.00000
49.40000	1186.00000
49.42000	1312.00000
49.44000	1508.00000
49.46000	1770.00000
49.48000	2105.00000
49.50000	2342.00000
49.52000	2621.00000
49.54000	3164.00000
49.56000	3796.00000
49.58000	4038.00000
49.60000	4062.00000
49.62000	3658.00000
49.64000	2901.00000
49.66000	2233.00000
49.68000	1533.00000
49.70000	1217.00000
49.72000	1073.00000
49.74000	911.00000
49.76000	873.00000
49.78000	882.00000
49.80000	866.00000
49.82000	868.00000
49.84000	913.00000
49.86000	876.00000
49.88000	905.00000
49.90000	935.00000
49.92000	970.00000
49.94000	1089.00000
49.96000	1222.00000
49.98000	1495.00000
50.00000	1896.00000
50.02000	2230.00000
50.04000	2618.00000
50.06000	2603.00000
50.08000	2694.00000
50.10000	2388.00000
50.12000	2053.00000
50.14000	1949.00000
50.16000	1822.00000
50.18000	1802.00000
50.20000	1762.00000
50.22000	1594.00000
50.24000	1403.00000
50.26000	1259.00000
50.28000	1247.00000
50.30000	1208.00000
50.32000	1260.00000
50.34000	1273.00000
50.36000	1258.00000
50.38000	1391.00000
50.40000	1408.00000
50.42000	1571.00000
50.44000	1653.00000
50.46000	1558.00000
50.48000	1429.00000
50.50000	1154.00000
50.52000	977.00000
50.54000	1018.00000
50.56000	917.00000
50.58000	854.00000
50.60000	824.00000
50.62000	844.00000
50.64000	828.00000
50.66000	857.00000
50.68000	872.00000
50.70000	838.00000
50.72000	818.00000
50.74000	816.00000
50.76000	828.00000
50.78000	812.00000
50.80000	862.00000
50.82000	899.00000
50.84000	1004.00000
50.86000	1008.00000
50.88000	1206.00000
50.90000	1391.00000
50.92000	1611.00000
50.94000	1809.00000
50.96000	1958.00000
50.98000	2054.00000
51.00000	2139.00000
51.02000	2049.00000
51.04000	1792.00000
51.06000	1531.00000
51.08000	1238.00000
51.10000	1102.00000
51.12000	964.00000
51.14000	932.00000
51.16000	860.00000
51.18000	885.00000
51.20000	870.00000
51.22000	857.00000
51.24000	834.00000
51.26000	803.00000
51.28000	838.00000
51.30000	881.00000
51.32000	896.00000
51.34000	843.00000
51.36000	846.00000
51.38000	852.00000
51.40000	886.00000
51.42000	833.00000
51.44000	842.00000
51.46000	823.00000
51.48000	855.00000
51.50000	922.00000
51.52000	961.00000
51.54000	1068.00000
51.56000	1212.00000
51.58000	1352.00000
51.60000	1487.00000
51.62000	1611.00000
51.64000	1765.00000
51.66000	1748.00000
51.68000	1649.00000
51.70000	1524.00000
51.72000	1260.00000
51.74000	1087.00000
51.76000	966.00000
51.78000	876.00000
51.80000	922.00000
51.82000	965.00000
51.84000	979.00000
51.86000	1076.00000
51.88000	1254.00000
51.90000	1567.00000
51.92000	1975.00000
51.94000	2273.00000
51.96000	2333.00000
51.98000	2194.00000
52.00000	1842.00000
52.02000	1545.00000
52.04000	1167.00000
52.06000	1009.00000
52.08000	935.00000
52.10000	876.00000
52.12000	893.00000
52.14000	858.00000
52.16000	829.00000
52.18000	843.00000
52.20000	880.00000
52.22000	822.00000
52.24000	910.00000
52.26000	885.00000
52.28000	826.00000
52.30000	856.00000
52.32000	875.00000
52.34000	840.00000
52.36000	903.00000
52.38000	957.00000
52.40000	947.00000
52.42000	996.00000
52.44000	1060.00000
52.46000	1228.00000
52.48000	1267.00000
52.50000	1172.00000
52.52000	1193.00000
52.54000	1155.00000
52.56000	1247.00000
52.58000	1415.00000
52.60000	1712.00000
52.62000	2016.00000
52.64000	2368.00000
52.66000	2674.00000
52.68000	2894.00000
52.70000	2879.00000
52.72000	2967.00000
52.74000	2918.00000
52.76000	2880.00000
52.78000	2849.00000
52.80000	3025.00000
52.82000	2892.00000
52.84000	2739.00000
52.86000	2276.00000
52.88000	1740.00000
52.90000	1407.00000
52.92000	1199.00000
52.94000	1041.00000
52.96000	1004.00000
52.98000	965.00000
53.00000	960.00000
53.02000	944.00000
53.04000	941.00000
53.06000	1091.00000
53.08000	1128.00000
53.10000	1177.00000
53.12000	1261.00000
53.14000	1216.00000
53.16000	1295.00000
53.18000	1364.00000
53.20000	1486.00000
53.22000	1778.00000
53.24000	2059.00000
53.26000	2253.00000
53.28000	2161.00000
53.30000	2010.00000
53.32000	1736.00000
53.34000	1583.00000
53.36000	1577.00000
53.38000	1570.00000
53.40000	1832.00000
53.42000	2096.00000
53.44000	2084.00000
53.46000	2091.00000
53.48000	2037.00000
53.50000	1917.00000
53.52000	1943.00000
53.54000	1744.00000
53.56000	1698.00000
53.58000	1601.00000
53.60000	1432.00000
53.62000	1244.00000
53.64000	1075.00000
53.66000	921.00000
53.68000	923.00000
53.70000	874.00000
53.72000	882.00000
53.74000	822.00000
53.76000	861.00000
53.78000	933.00000
53.80000	966.00000
53.82000	984.00000
53.84000	1058.00000
53.86000	1165.00000
53.88000	1268.00000
53.90000	1239.00000
53.92000	1349.00000
53.94000	1293.00000
53.96000	1489.00000
53.98000	1854.00000
54.00000	2405.00000
54.02000	3023.00000
54.04000	3625.00000
54.06000	4149.00000
54.08000	4632.00000
54.10000	4807.00000
54.12000	4859.00000
54.14000	4549.00000
54.16000	3852.00000
54.18000	3257.00000
54.20000	2689.00000
54.22000	2424.00000
54.24000	2228.00000
54.26000	2037.00000
54.28000	1855.00000
54.30000	1523.00000
54.32000	1212.00000
54.34000	1016.00000
54.36000	953.00000
54.38000	872.00000
54.40000	882.00000
54.42000	904.00000
54.44000	895.00000
54.46000	898.00000
54.48000	881.00000
54.50000	878.00000
54.52000	874.00000
54.54000	888.00000
54.56000	848.00000
54.58000	857.00000
54.60000	836.00000
54.62000	869.00000
54.64000	941.00000
54.66000	1036.00000
54.68000	1190.00000
54.70000	1421.00000
54.72000	1749.00000
54.74000	2028.00000
54.76000	2131.00000
54.78000	2159.00000
54.80000	2001.00000
54.82000	1867.00000
54.84000	1777.00000
54.86000	1856.00000
54.88000	1964.00000
54.90000	1849.00000
54.92000	1656.00000
54.94000	1415.00000
54.96000	1332.00000
54.98000	1252.00000
55.00000	1197.00000
55.02000	1262.00000
55.04000	1321.00000
55.06000	1472.00000
55.08000	1694.00000
55.10000	1771.00000
55.12000	1859.00000
55.14000	1783.00000
55.16000	1528.00000
55.18000	1372.00000
55.20000	1227.00000
55.22000	1043.00000
55.24000	933.00000
55.26000	896.00000
55.28000	871.00000
55.30000	818.00000
55.32000	880.00000
55.34000	882.00000
55.36000	836.00000
55.38000	880.00000
55.40000	893.00000
55.42000	944.00000
55.44000	902.00000
55.46000	911.00000
55.48000	859.00000
55.50000	931.00000
55.52000	938.00000
55.54000	936.00000
55.56000	972.00000
55.58000	888.00000
55.60000	1012.00000
55.62000	1008.00000
55.64000	1177.00000
55.66000	1305.00000
55.68000	1632.00000
55.70000	1908.00000
55.72000	2120.00000
55.74000	2353.00000
55.76000	2467.00000
55.78000	2526.00000
55.80000	2408.00000
55.82000	2096.00000
55.84000	1881.00000
55.86000	1528.00000
55.88000	1267.00000
55.90000	1157.00000
55.92000	1104.00000
55.94000	1102.00000
55.96000	1089.00000
55.98000	1147.00000
56.00000	1305.00000
56.02000	1457.00000
56.04000	1515.00000
56.06000	1408.00000
56.08000	1403.00000
56.10000	1325.00000
56.12000	1352.00000
56.14000	1400.00000
56.16000	1438.00000
56.18000	1620.00000
56.20000	1551.00000
56.22000	1557.00000
56.24000	1569.00000
56.26000	1753.00000
56.28000	2229.00000
56.30000	2681.00000
56.32000	2935.00000
56.34000	2961.00000
56.36000	2753.00000
56.38000	2241.00000
56.40000	1774.00000
56.42000	1481.00000
56.44000	1280.00000
56.46000	1150.00000
56.48000	1116.00000
56.50000	1125.00000
56.52000	1231.00000
56.54000	1426.00000
56.56000	1620.00000
56.58000	2074.00000
56.60000	2553.00000
56.62000	2865.00000
56.64000	2837.00000
56.66000	2652.00000
56.68000	2145.00000
56.70000	1668.00000
56.72000	1328.00000
56.74000	1095.00000
56.76000	1002.00000
56.78000	1023.00000
56.80000	1057.00000
56.82000	983.00000
56.84000	988.00000
56.86000	931.00000
56.88000	973.00000
56.90000	1156.00000
56.92000	1385.00000
56.94000	1649.00000
56.96000	2053.00000
56.98000	2325.00000
57.00000	2605.00000
57.02000	2634.00000
57.04000	2399.00000
57.06000	2167.00000
57.08000	1940.00000
57.10000	1863.00000
57.12000	1880.00000
57.14000	2078.00000
57.16000	2147.00000
57.18000	2181.00000
57.20000	1932.00000
57.22000	1603.00000
57.24000	1377.00000
57.26000	1140.00000
57.28000	995.00000
57.30000	892.00000
57.32000	851.00000
57.34000	875.00000
57.36000	830.00000
57.38000	852.00000
57.40000	822.00000
57.42000	832.00000
57.44000	853.00000
57.46000	778.00000
57.48000	815.00000
57.50000	828.00000
57.52000	834.00000
57.54000	822.00000
57.56000	848.00000
57.58000	809.00000
57.60000	824.00000
57.62000	842.00000
57.64000	842.00000
57.66000	851.00000
57.68000	819.00000
57.70000	862.00000
57.72000	787.00000
57.74000	788.00000
57.76000	753.00000
57.78000	809.00000
57.80000	792.00000
57.82000	811.00000
57.84000	862.00000
57.86000	882.00000
57.88000	1056.00000
57.90000	1206.00000
57.92000	1480.00000
57.94000	1823.00000
57.96000	2126.00000
57.98000	2338.00000
58.00000	2343.00000
58.02000	2140.00000
58.04000	1856.00000
58.06000	1826.00000
58.08000	1986.00000
58.10000	2189.00000
58.12000	2267.00000
58.14000	2408.00000
58.16000	2154.00000
58.18000	1990.00000
58.20000	1736.00000
58.22000	1758.00000
58.24000	1723.00000
58.26000	1733.00000
58.28000	1692.00000
58.30000	1431.00000
58.32000	1199.00000
58.34000	1081.00000
58.36000	956.00000
58.38000	862.00000
58.40000	898.00000
58.42000	873.00000
58.44000	808.00000
58.46000	842.00000
58.48000	849.00000
58.50000	792.00000
58.52000	856.00000
58.54000	818.00000
58.56000	792.00000
58.58000	827.00000
58.60000	838.00000
58.62000	857.00000
58.64000	883.00000
58.66000	968.00000
58.68000	1066.00000
58.70000	1126.00000
58.72000	1322.00000
58.74000	1520.00000
58.76000	1741.00000
58.78000	1844.00000
58.80000	1876.00000
58.82000	1912.00000
58.84000	1909.00000
58.86000	1847.00000
58.88000	1887.00000
58.90000	1891.00000
58.92000	1946.00000
58.94000	2131.00000
58.96000	2513.00000
58.98000	2871.00000
59.00000	3008.00000
59.02000	2701.00000
59.04000	2376.00000
59.06000	1858.00000
59.08000	1443.00000
59.10000	1193.00000
59.12000	987.00000
59.14000	973.00000
59.16000	943.00000
59.18000	878.00000
59.20000	920.00000
59.22000	987.00000
59.24000	1110.00000
59.26000	1178.00000
59.28000	1193.00000
59.30000	1256.00000
59.32000	1239.00000
59.34000	1382.00000
59.36000	1493.00000
59.38000	1717.00000
59.40000	2160.00000
59.42000	2526.00000
59.44000	2867.00000
59.46000	3009.00000
59.48000	2913.00000
59.50000	2552.00000
59.52000	2073.00000
59.54000	1610.00000
59.56000	1218.00000
59.58000	1045.00000
59.60000	945.00000
59.62000	906.00000
59.64000	804.00000
59.66000	873.00000
59.68000	811.00000
59.70000	780.00000
59.72000	796.00000
59.74000	795.00000
59.76000	823.00000
59.78000	818.00000
59.80000	854.00000
59.82000	892.00000
59.84000	895.00000
59.86000	920.00000
59.88000	967.00000
59.90000	945.00000
59.92000	1038.00000
59.94000	1149.00000
59.96000	1215.00000
59.98000	1357.00000
60.00000	1465.00000
60.02000	1407.00000
60.04000	1353.00000
60.06000	1444.00000
60.08000	1574.00000
60.10000	1775.00000
60.12000	1990.00000
60.14000	1983.00000
60.16000	1967.00000
60.18000	1786.00000
60.20000	1632.00000
60.22000	1567.00000
60.24000	1532.00000
60.26000	1361.00000
60.28000	1230.00000
60.30000	1120.00000
60.32000	905.00000
60.34000	923.00000
60.36000	860.00000
60.38000	812.00000
60.40000	822.00000
60.42000	785.00000
60.44000	793.00000
60.46000	802.00000
60.48000	808.00000
60.50000	828.00000
60.52000	806.00000
60.54000	804.00000
60.56000	828.00000
60.58000	869.00000
60.60000	998.00000
60.62000	1102.00000
60.64000	1319.00000
60.66000	1557.00000
60.68000	1815.00000
60.70000	1903.00000
60.72000	2009.00000
60.74000	2072.00000
60.76000	2052.00000
60.78000	1921.00000
60.80000	1763.00000
60.82000	1561.00000
60.84000	1418.00000
60.86000	1312.00000
60.88000	1368.00000
60.90000	1438.00000
60.92000	1427.00000
60.94000	1348.00000
60.96000	1279.00000
60.98000	1330.00000
61.00000	1368.00000
61.02000	1591.00000
61.04000	1599.00000
61.06000	1637.00000
61.08000	1499.00000
61.10000	1365.00000
61.12000	1261.00000
61.14000	1117.00000
61.16000	1118.00000
61.18000	1055.00000
61.20000	1001.00000
61.22000	945.00000
61.24000	891.00000
61.26000	880.00000
61.28000	850.00000
61.30000	826.00000
61.32000	875.00000
61.34000	770.00000
61.36000	834.00000
61.38000	804.00000
61.40000	810.00000
61.42000	792.00000
61.44000	797.00000
61.46000	783.00000
61.48000	805.00000
61.50000	784.00000
61.52000	887.00000
61.54000	864.00000
61.56000	914.00000
61.58000	989.00000
61.60000	1082.00000
61.62000	1254.00000
61.64000	1330.00000
61.66000	1437.00000
61.68000	1558.00000
61.70000	1721.00000
61.72000	1752.00000
61.74000	1646.00000
61.76000	1349.00000
61.78000	1137.00000
61.80000	1055.00000
61.82000	981.00000
61.84000	879.00000
61.86000	889.00000
61.88000	811.00000
61.90000	843.00000
61.92000	838.00000
61.94000	817.00000
61.96000	828.00000
61.98000	840.00000
62.00000	794.00000
62.02000	802.00000
62.04000	813.00000
62.06000	798.00000
62.08000	826.00000
62.10000	821.00000
62.12000	839.00000
62.14000	935.00000
62.16000	1034.00000
62.18000	1205.00000
62.20000	1348.00000
62.22000	1450.00000
62.24000	1553.00000
62.26000	1457.00000
62.28000	1419.00000
62.30000	1246.00000
62.32000	1092.00000
62.34000	1041.00000
62.36000	1004.00000
62.38000	920.00000
62.40000	875.00000
62.42000	893.00000
62.44000	833.00000
62.46000	911.00000
62.48000	991.00000
62.50000	1171.00000
62.52000	1353.00000
62.54000	1551.00000
62.56000	1710.00000
62.58000	1818.00000
62.60000	1699.00000
62.62000	1577.00000
62.64000	1452.00000
62.66000	1316.00000
62.68000	1267.00000
62.70000	1316.00000
62.72000	1431.00000
62.74000	1585.00000
62.76000	1709.00000
62.78000	1715.00000
62.80000	1764.00000
62.82000	1805.00000
62.84000	1895.00000
62.86000	2182.00000
62.88000	2641.00000
62.90000	3029.00000
62.92000	3204.00000
62.94000	3029.00000
62.96000	2487.00000
62.98000	1936.00000
63.00000	1520.00000
63.02000	1237.00000
63.04000	1017.00000
63.06000	875.00000
63.08000	812.00000
63.10000	860.00000
63.12000	807.00000
63.14000	776.00000
63.16000	806.00000
63.18000	829.00000
63.20000	781.00000
63.22000	758.00000
63.24000	792.00000
63.26000	865.00000
63.28000	869.00000
63.30000	927.00000
63.32000	1011.00000
63.34000	1130.00000
63.36000	1181.00000
63.38000	1202.00000
63.40000	1254.00000
63.42000	1184.00000
63.44000	1107.00000
63.46000	972.00000
63.48000	1021.00000
63.50000	989.00000
63.52000	965.00000
63.54000	977.00000
63.56000	1000.00000
63.58000	932.00000
63.60000	990.00000
63.62000	918.00000
63.64000	892.00000
63.66000	778.00000
63.68000	803.00000
63.70000	785.00000
63.72000	772.00000
63.74000	798.00000
63.76000	804.00000
63.78000	749.00000
63.80000	775.00000
63.82000	792.00000
63.84000	750.00000
63.86000	760.00000
63.88000	781.00000
63.90000	791.00000
63.92000	773.00000
63.94000	815.00000
63.96000	794.00000
63.98000	779.00000
64.00000	801.00000
64.02000	786.00000
64.04000	792.00000
64.06000	744.00000
64.08000	781.00000
64.10000	768.00000
64.12000	816.00000
64.14000	806.00000
64.16000	790.00000
64.18000	836.00000
64.20000	870.00000
64.22000	885.00000
64.24000	936.00000
64.26000	967.00000
64.28000	1057.00000
64.30000	1267.00000
64.32000	1426.00000
64.34000	1750.00000
64.36000	1937.00000
64.38000	2000.00000
64.40000	2085.00000
64.42000	2091.00000
64.44000	1991.00000
64.46000	1961.00000
64.48000	1899.00000
64.50000	1915.00000
64.52000	2115.00000
64.54000	2217.00000
64.56000	2169.00000
64.58000	2035.00000
64.60000	1842.00000
64.62000	1479.00000
64.64000	1304.00000
64.66000	1181.00000
64.68000	1146.00000
64.70000	1201.00000
64.72000	1226.00000
64.74000	1162.00000
64.76000	1175.00000
64.78000	1137.00000
64.80000	1171.00000
64.82000	1254.00000
64.84000	1363.00000
64.86000	1288.00000
64.88000	1355.00000
64.90000	1252.00000
64.92000	1218.00000
64.94000	1180.00000
64.96000	1244.00000
64.98000	1286.00000
65.00000	1450.00000
65.02000	1641.00000
65.04000	1823.00000
65.06000	1986.00000
65.08000	2023.00000
65.10000	2009.00000
65.12000	1813.00000
65.14000	1618.00000
65.16000	1422.00000
65.18000	1186.00000
65.20000	1228.00000
65.22000	1282.00000
65.24000	1297.00000
65.26000	1313.00000
65.28000	1268.00000
65.30000	1166.00000
65.32000	1058.00000
65.34000	980.00000
65.36000	973.00000
65.38000	1037.00000
65.40000	1065.00000
65.42000	1128.00000
65.44000	1156.00000
65.46000	1173.00000
65.48000	1122.00000
65.50000	1027.00000
65.52000	984.00000
65.54000	1049.00000
65.56000	1145.00000
65.58000	1333.00000
65.60000	1575.00000
65.62000	1870.00000
65.64000	2032.00000
65.66000	2096.00000
65.68000	2015.00000
65.70000	2007.00000
65.72000	1873.00000
65.74000	1736.00000
65.76000	1656.00000
65.78000	1551.00000
65.80000	1456.00000
65.82000	1203.00000
65.84000	1093.00000
65.86000	1003.00000
65.88000	900.00000
65.90000	831.00000
65.92000	820.00000
65.94000	832.00000
65.96000	765.00000
65.98000	805.00000
66.00000	802.00000
66.02000	800.00000
66.04000	811.00000
66.06000	766.00000
66.08000	811.00000
66.10000	780.00000
66.12000	808.00000
66.14000	773.00000
66.16000	786.00000
66.18000	761.00000
66.20000	768.00000
66.22000	813.00000
66.24000	816.00000
66.26000	853.00000
66.28000	865.00000
66.30000	940.00000
66.32000	900.00000
66.34000	912.00000
66.36000	978.00000
66.38000	1127.00000
66.40000	1204.00000
66.42000	1353.00000
66.44000	1558.00000
66.46000	1781.00000
66.48000	1881.00000
66.50000	1911.00000
66.52000	1905.00000
66.54000	1937.00000
66.56000	1880.00000
66.58000	1784.00000
66.60000	1614.00000
66.62000	1459.00000
66.64000	1417.00000
66.66000	1385.00000
66.68000	1394.00000
66.70000	1394.00000
66.72000	1360.00000
66.74000	1318.00000
66.76000	1339.00000
66.78000	1354.00000
66.80000	1193.00000
66.82000	1154.00000
66.84000	1049.00000
66.86000	944.00000
66.88000	857.00000
66.90000	917.00000
66.92000	837.00000
66.94000	883.00000
66.96000	811.00000
66.98000	842.00000
67.00000	860.00000
67.02000	953.00000
67.04000	1076.00000
67.06000	1109.00000
67.08000	1228.00000
67.10000	1290.00000
67.12000	1277.00000
67.14000	1319.00000
67.16000	1260.00000
67.18000	1315.00000
67.20000	1338.00000
67.22000	1469.00000
67.24000	1435.00000
67.26000	1472.00000
67.28000	1493.00000
67.30000	1401.00000
67.32000	1371.00000
67.34000	1308.00000
67.36000	1297.00000
67.38000	1342.00000
67.40000	1433.00000
67.42000	1568.00000
67.44000	1735.00000
67.46000	1722.00000
67.48000	1605.00000
67.50000	1418.00000
67.52000	1224.00000
67.54000	1118.00000
67.56000	990.00000
67.58000	913.00000
67.60000	844.00000
67.62000	855.00000
67.64000	859.00000
67.66000	912.00000
67.68000	957.00000
67.70000	1015.00000
67.72000	1189.00000
67.74000	1385.00000
67.76000	1570.00000
67.78000	1748.00000
67.80000	1823.00000
67.82000	1836.00000
67.84000	1714.00000
67.86000	1595.00000
67.88000	1474.00000
67.90000	1384.00000
67.92000	1309.00000
67.94000	1358.00000
67.96000	1375.00000
67.98000	1360.00000
68.00000	1376.00000
68.02000	1395.00000
68.04000	1427.00000
68.06000	1427.00000
68.08000	1374.00000
68.10000	1251.00000
68.12000	1195.00000
68.14000	1002.00000
68.16000	891.00000
68.18000	859.00000
68.20000	828.00000
68.22000	861.00000
68.24000	907.00000
68.26000	958.00000
68.28000	987.00000
68.30000	1171.00000
68.32000	1414.00000
68.34000	1767.00000
68.36000	1922.00000
68.38000	2046.00000
68.40000	2099.00000
68.42000	1927.00000
68.44000	1799.00000
68.46000	1627.00000
68.48000	1377.00000
68.50000	1281.00000
68.52000	1087.00000
68.54000	1006.00000
68.56000	870.00000
68.58000	885.00000
68.60000	799.00000
68.62000	785.00000
68.64000	780.00000
68.66000	793.00000
68.68000	770.00000
68.70000	777.00000
68.72000	777.00000
68.74000	855.00000
68.76000	907.00000
68.78000	923.00000
68.80000	912.00000
68.82000	989.00000
68.84000	1071.00000
68.86000	1099.00000
68.88000	1040.00000
68.90000	1084.00000
68.92000	988.00000
68.94000	986.00000
68.96000	928.00000
68.98000	1014.00000
69.00000	1045.00000
69.02000	1084.00000
69.04000	1069.00000
69.06000	1019.00000
69.08000	955.00000
69.10000	882.00000
69.12000	852.00000
69.14000	850.00000
69.16000	880.00000
69.18000	945.00000
69.20000	944.00000
69.22000	1122.00000
69.24000	1127.00000
69.26000	1170.00000
69.28000	1300.00000
69.30000	1172.00000
69.32000	1158.00000
69.34000	1144.00000
69.36000	1035.00000
69.38000	1160.00000
69.40000	1206.00000
69.42000	1297.00000
69.44000	1394.00000
69.46000	1470.00000
69.48000	1479.00000
69.50000	1400.00000
69.52000	1244.00000
69.54000	1079.00000
69.56000	980.00000
69.58000	883.00000
69.60000	847.00000
69.62000	803.00000
69.64000	795.00000
69.66000	873.00000
69.68000	860.00000
69.70000	936.00000
69.72000	1006.00000
69.74000	1132.00000
69.76000	1204.00000
69.78000	1348.00000
69.80000	1349.00000
69.82000	1376.00000
69.84000	1345.00000
69.86000	1367.00000
69.88000	1382.00000
69.90000	1496.00000
69.92000	1512.00000
69.94000	1538.00000
69.96000	1470.00000
69.98000	1501.00000
70.00000	1404.00000
70.02000	1357.00000
70.04000	1241.00000
70.06000	1042.00000
70.08000	1025.00000
70.10000	1049.00000
70.12000	942.00000
70.14000	874.00000
70.16000	882.00000
70.18000	820.00000
70.20000	823.00000
70.22000	828.00000
70.24000	907.00000
70.26000	890.00000
70.28000	845.00000
70.30000	911.00000
70.32000	1081.00000
70.34000	1244.00000
70.36000	1445.00000
70.38000	1813.00000
70.40000	2043.00000
70.42000	2265.00000
70.44000	2464.00000
70.46000	2479.00000
70.48000	2364.00000
70.50000	2436.00000
70.52000	2142.00000
70.54000	1989.00000
70.56000	1701.00000
70.58000	1556.00000
70.60000	1362.00000
70.62000	1292.00000
70.64000	1237.00000
70.66000	1141.00000
70.68000	1056.00000
70.70000	971.00000
70.72000	982.00000
70.74000	1047.00000
70.76000	1129.00000
70.78000	1155.00000
70.80000	1198.00000
70.82000	1186.00000
70.84000	1198.00000
70.86000	1328.00000
70.88000	1430.00000
70.90000	1602.00000
70.92000	1658.00000
70.94000	1665.00000
70.96000	1584.00000
70.98000	1520.00000
71.00000	1335.00000
71.02000	1173.00000
71.04000	1095.00000
71.06000	1136.00000
71.08000	1122.00000
71.10000	1120.00000
71.12000	1109.00000
71.14000	1031.00000
71.16000	924.00000
71.18000	863.00000
71.20000	850.00000
71.22000	840.00000
71.24000	830.00000
71.26000	806.00000
71.28000	798.00000
71.30000	782.00000
71.32000	779.00000
71.34000	787.00000
71.36000	774.00000
71.38000	829.00000
71.40000	781.00000
71.42000	770.00000
71.44000	808.00000
71.46000	810.00000
71.48000	876.00000
71.50000	911.00000
71.52000	954.00000
71.54000	1015.00000
71.56000	1111.00000
71.58000	1326.00000
71.60000	1473.00000
71.62000	1845.00000
71.64000	2021.00000
71.66000	2115.00000
71.68000	2120.00000
71.70000	2030.00000
71.72000	1824.00000
71.74000	1600.00000
71.76000	1486.00000
71.78000	1310.00000
71.80000	1139.00000
71.82000	1039.00000
71.84000	950.00000
71.86000	913.00000
71.88000	816.00000
71.90000	792.00000
71.92000	843.00000
71.94000	826.00000
71.96000	745.00000
71.98000	771.00000
