2.00000	67943.00000
2.03000	67166.00000
2.06000	67335.00000
2.09000	67148.00000
2.12000	67201.00000
2.15000	67944.00000
2.18000	67098.00000
2.21000	67056.00000
2.24000	67261.00000
2.27000	67348.00000
2.30000	67659.00000
2.33000	67143.00000
2.36000	67253.00000
2.39000	67263.00000
2.42000	67507.00000
2.45000	68009.00000
2.48000	67405.00000
2.51000	67196.00000
2.54000	66874.00000
2.57000	67379.00000
2.60000	67007.00000
2.63000	66461.00000
2.66000	67487.00000
2.69000	67324.00000
2.72000	66692.00000
2.75000	67698.00000
2.78000	68339.00000
2.81000	67683.00000
2.84000	67745.00000
2.87000	67994.00000
2.90000	68214.00000
2.93000	68121.00000
2.96000	68427.00000
2.99000	68121.00000
3.02000	67460.00000
3.05000	67615.00000
3.08000	67729.00000
3.11000	67519.00000
3.14000	68007.00000
3.17000	68188.00000
3.20000	67467.00000
3.23000	67249.00000
3.26000	67651.00000
3.29000	67556.00000
3.32000	67805.00000
3.35000	68120.00000
3.38000	67902.00000
3.41000	68181.00000
3.44000	68221.00000
3.47000	68566.00000
3.50000	68919.00000
3.53000	67602.00000
3.56000	68009.00000
3.59000	68378.00000
3.62000	67807.00000
3.65000	68418.00000
3.68000	68984.00000
3.71000	67840.00000
3.74000	67597.00000
3.77000	68064.00000
3.80000	68865.00000
3.83000	68064.00000
3.86000	68803.00000
3.89000	68757.00000
3.92000	68928.00000
3.95000	69403.00000
3.98000	69570.00000
4.01000	68802.00000
4.04000	68387.00000
4.07000	68443.00000
4.10000	68380.00000
4.13000	68808.00000
4.16000	69010.00000
4.19000	69702.00000
4.22000	69095.00000
4.25000	68475.00000
4.28000	69908.00000
4.31000	69415.00000
4.34000	69410.00000
4.37000	69754.00000
4.40000	69814.00000
4.43000	70020.00000
4.46000	69828.00000
4.49000	70334.00000
4.52000	70330.00000
4.55000	70102.00000
4.58000	69626.00000
4.61000	70227.00000
4.64000	70694.00000
4.67000	70442.00000
4.70000	71712.00000
4.73000	71286.00000
4.76000	70955.00000
4.79000	71564.00000
4.82000	72238.00000
4.85000	72552.00000
4.88000	73387.00000
4.91000	73402.00000
4.94000	74624.00000
4.97000	74709.00000
5.00000	76279.00000
5.03000	77250.00000
5.06000	77094.00000
5.09000	77583.00000
5.12000	79406.00000
5.15000	80616.00000
5.18000	81884.00000
5.21000	84215.00000
5.24000	85024.00000
5.27000	86867.00000
5.30000	89355.00000
5.33000	91682.00000
5.36000	94436.00000
5.39000	98249.00000
5.42000	102431.00000
5.45000	106581.00000
5.48000	111653.00000
5.51000	117561.00000
5.54000	123296.00000
5.57000	130585.00000
5.60000	139711.00000
5.63000	150376.00000
5.66000	163488.00000
5.69000	183005.00000
5.72000	209987.00000
5.75000	246325.00000
5.78000	318917.00000
5.81000	458023.00000
5.84000	316250.00000
5.87000	109262.00000
5.90000	78238.00000
5.93000	73685.00000
5.96000	71767.00000
5.99000	70765.00000
6.02000	71392.00000
6.05000	70485.00000
6.08000	69814.00000
6.11000	69190.00000
6.14000	69883.00000
6.17000	69410.00000
6.20000	69648.00000
6.23000	70028.00000
6.26000	69384.00000
6.29000	69351.00000
6.32000	69460.00000
6.35000	70149.00000
6.38000	69369.00000
6.41000	69540.00000
6.44000	69561.00000
6.47000	69528.00000
6.50000	69630.00000
6.53000	69985.00000
6.56000	69654.00000
6.59000	69143.00000
6.62000	68886.00000
6.65000	69323.00000
6.68000	68965.00000
6.71000	69524.00000
6.74000	70015.00000
6.77000	68724.00000
6.80000	68894.00000
6.83000	69702.00000
6.86000	69269.00000
6.89000	69415.00000
6.92000	69905.00000
6.95000	69486.00000
6.98000	69798.00000
7.01000	69178.00000
7.04000	70299.00000
7.07000	69359.00000
7.10000	68952.00000
7.13000	69251.00000
7.16000	69740.00000
7.19000	69423.00000
7.22000	69062.00000
7.25000	69281.00000
7.28000	68882.00000
7.31000	68540.00000
7.34000	69345.00000
7.37000	69394.00000
7.40000	69036.00000
7.43000	69350.00000
7.46000	69098.00000
7.49000	69345.00000
7.52000	69462.00000
7.55000	69750.00000
7.58000	69922.00000
7.61000	69255.00000
7.64000	68999.00000
7.67000	69503.00000
7.70000	68719.00000
7.73000	68992.00000
7.76000	69577.00000
7.79000	68569.00000
7.82000	68473.00000
7.85000	69431.00000
7.88000	69372.00000
7.91000	68723.00000
7.94000	69606.00000
7.97000	69258.00000
8.00000	69117.00000
8.03000	69056.00000
8.06000	69042.00000
8.09000	69066.00000
8.12000	68713.00000
8.15000	68134.00000
8.18000	68500.00000
8.21000	69003.00000
8.24000	68870.00000
8.27000	69706.00000
8.30000	68795.00000
8.33000	68613.00000
8.36000	69269.00000
8.39000	69117.00000
8.42000	68563.00000
8.45000	69561.00000
8.48000	69247.00000
8.51000	69196.00000
8.54000	68962.00000
8.57000	69794.00000
8.60000	69152.00000
8.63000	68438.00000
8.66000	68438.00000
8.69000	68692.00000
8.72000	68722.00000
8.75000	68725.00000
8.78000	69424.00000
8.81000	68543.00000
8.84000	68034.00000
8.87000	68673.00000
8.90000	69410.00000
8.93000	68321.00000
8.96000	69135.00000
8.99000	68579.00000
9.02000	68962.00000
9.05000	68806.00000
9.08000	68998.00000
9.11000	69582.00000
9.14000	69144.00000
9.17000	68197.00000
9.20000	68787.00000
9.23000	68363.00000
9.26000	68663.00000
9.29000	69335.00000
9.32000	68222.00000
9.35000	68121.00000
9.38000	68429.00000
9.41000	68829.00000
9.44000	68436.00000
9.47000	68888.00000
9.50000	68333.00000
9.53000	68837.00000
9.56000	68638.00000
9.59000	69365.00000
9.62000	68937.00000
9.65000	68751.00000
9.68000	68404.00000
9.71000	68890.00000
9.74000	68903.00000
9.77000	68564.00000
9.80000	69576.00000
9.83000	68363.00000
9.86000	68587.00000
9.89000	69710.00000
9.92000	70038.00000
9.95000	70321.00000
9.98000	70585.00000
10.01000	71186.00000
10.04000	71834.00000
10.07000	72053.00000
10.10000	74021.00000
10.13000	74886.00000
10.16000	75453.00000
10.19000	76997.00000
10.22000	79414.00000
10.25000	81688.00000
10.28000	84669.00000
10.31000	87666.00000
10.34000	84198.00000
10.37000	76781.00000
10.40000	73162.00000
10.43000	71419.00000
10.46000	70039.00000
10.49000	69386.00000
10.52000	68990.00000
10.55000	68799.00000
10.58000	68842.00000
10.61000	68689.00000
10.64000	68233.00000
10.67000	68225.00000
10.70000	67308.00000
10.73000	67771.00000
10.76000	67680.00000
10.79000	67392.00000
10.82000	68279.00000
10.85000	67886.00000
10.88000	67398.00000
10.91000	67820.00000
10.94000	67538.00000
10.97000	67367.00000
11.00000	68487.00000
11.03000	67923.00000
11.06000	67662.00000
11.09000	67802.00000
11.12000	68526.00000
11.15000	68275.00000
11.18000	67863.00000
11.21000	67715.00000
11.24000	68423.00000
11.27000	68026.00000
11.30000	68760.00000
11.33000	69970.00000
11.36000	69376.00000
11.39000	69114.00000
11.42000	70899.00000
11.45000	71536.00000
11.48000	72544.00000
11.51000	74318.00000
11.54000	76723.00000
11.57000	79715.00000
11.60000	85143.00000
11.63000	95752.00000
11.66000	103052.00000
11.69000	82567.00000
11.72000	69954.00000
11.75000	68452.00000
11.78000	67656.00000
11.81000	66782.00000
11.84000	67792.00000
11.87000	67235.00000
11.90000	66831.00000
11.93000	67350.00000
11.96000	67869.00000
11.99000	67515.00000
12.02000	67390.00000
12.05000	67411.00000
12.08000	67530.00000
12.11000	67302.00000
12.14000	67744.00000
12.17000	67240.00000
12.20000	67102.00000
12.23000	66496.00000
12.26000	66778.00000
12.29000	66875.00000
12.32000	66328.00000
12.35000	66842.00000
12.38000	66587.00000
12.41000	66474.00000
12.44000	66902.00000
12.47000	67058.00000
12.50000	67181.00000
12.53000	67146.00000
12.56000	66972.00000
12.59000	66650.00000
12.62000	67030.00000
12.65000	67443.00000
12.68000	67258.00000
12.71000	66342.00000
12.74000	66419.00000
12.77000	66986.00000
12.80000	66530.00000
12.83000	66663.00000
12.86000	66864.00000
12.89000	66176.00000
12.92000	66282.00000
12.95000	66865.00000
12.98000	67384.00000
13.01000	66759.00000
13.04000	67166.00000
13.07000	66860.00000
13.10000	67029.00000
13.13000	66962.00000
13.16000	67554.00000
13.19000	67149.00000
13.22000	67083.00000
13.25000	66370.00000
13.28000	66105.00000
13.31000	66454.00000
13.34000	66130.00000
13.37000	66661.00000
13.40000	66291.00000
13.43000	66084.00000
13.46000	66322.00000
13.49000	66203.00000
13.52000	66119.00000
13.55000	66407.00000
13.58000	66505.00000
13.61000	66080.00000
13.64000	66442.00000
13.67000	67179.00000
13.70000	66956.00000
13.73000	66299.00000
13.76000	66202.00000
13.79000	66156.00000
13.82000	66115.00000
13.85000	66336.00000
13.88000	67028.00000
13.91000	65829.00000
13.94000	65992.00000
13.97000	66788.00000
14.00000	66389.00000
14.03000	66242.00000
14.06000	66670.00000
14.09000	66524.00000
14.12000	66479.00000
14.15000	66719.00000
14.18000	67023.00000
14.21000	67026.00000
14.24000	65994.00000
14.27000	66125.00000
14.30000	66694.00000
14.33000	66261.00000
14.36000	66269.00000
14.39000	66786.00000
14.42000	66197.00000
14.45000	65854.00000
14.48000	66947.00000
14.51000	66702.00000
14.54000	66539.00000
14.57000	66652.00000
14.60000	66721.00000
14.63000	66566.00000
14.66000	66791.00000
14.69000	66739.00000
14.72000	66960.00000
14.75000	66009.00000
14.78000	66632.00000
14.81000	66961.00000
14.84000	66600.00000
14.87000	66528.00000
14.90000	67412.00000
14.93000	66472.00000
14.96000	66436.00000
14.99000	66794.00000
15.02000	66701.00000
15.05000	66777.00000
15.08000	67446.00000
15.11000	67226.00000
15.14000	67222.00000
15.17000	67610.00000
15.20000	68805.00000
15.23000	67975.00000
15.26000	67766.00000
15.29000	67414.00000
15.32000	68391.00000
15.35000	67989.00000
15.38000	67330.00000
15.41000	67392.00000
15.44000	66853.00000
15.47000	67038.00000
15.50000	67326.00000
15.53000	67376.00000
15.56000	67321.00000
15.59000	67563.00000
15.62000	67279.00000
15.65000	67477.00000
15.68000	67072.00000
15.71000	67731.00000
15.74000	67660.00000
15.77000	67289.00000
15.80000	66991.00000
15.83000	67305.00000
15.86000	66902.00000
15.89000	67591.00000
15.92000	67887.00000
15.95000	67240.00000
15.98000	66870.00000
16.01000	67820.00000
16.04000	68261.00000
16.07000	67807.00000
16.10000	68268.00000
16.13000	68712.00000
16.16000	68176.00000
16.19000	68364.00000
16.22000	68533.00000
16.25000	68486.00000
16.28000	67939.00000
16.31000	67953.00000
16.34000	68394.00000
16.37000	68179.00000
16.40000	68019.00000
16.43000	69167.00000
16.46000	68267.00000
16.49000	67929.00000
16.52000	69270.00000
16.55000	68934.00000
16.58000	68657.00000
16.61000	68758.00000
16.64000	69084.00000
16.67000	69134.00000
16.70000	68943.00000
16.73000	69512.00000
16.76000	69620.00000
16.79000	68963.00000
16.82000	68979.00000
16.85000	69721.00000
16.88000	68892.00000
16.91000	69520.00000
16.94000	70028.00000
16.97000	69222.00000
17.00000	69370.00000
17.03000	70120.00000
17.06000	70254.00000
17.09000	69889.00000
17.12000	70615.00000
17.15000	70260.00000
17.18000	70563.00000
17.21000	70794.00000
17.24000	71010.00000
17.27000	71159.00000
17.30000	70839.00000
17.33000	71156.00000
17.36000	71316.00000
17.39000	71438.00000
17.42000	71764.00000
17.45000	72694.00000
17.48000	72864.00000
17.51000	72852.00000
17.54000	74833.00000
17.57000	75914.00000
17.60000	77647.00000
17.63000	79553.00000
17.66000	81814.00000
17.69000	84826.00000
17.72000	88236.00000
17.75000	93686.00000
17.78000	98956.00000
17.81000	102769.00000
17.84000	102706.00000
17.87000	97577.00000
17.90000	92791.00000
17.93000	90573.00000
17.96000	92019.00000
17.99000	93853.00000
18.02000	96303.00000
18.05000	100119.00000
18.08000	98532.00000
18.11000	92196.00000
18.14000	86835.00000
18.17000	83273.00000
18.20000	81067.00000
18.23000	80106.00000
18.26000	80283.00000
18.29000	80510.00000
18.32000	80603.00000
18.35000	81771.00000
18.38000	84032.00000
18.41000	86080.00000
18.44000	90078.00000
18.47000	95550.00000
18.50000	101522.00000
18.53000	109535.00000
18.56000	121512.00000
18.59000	136409.00000
18.62000	155262.00000
18.65000	179024.00000
18.68000	208320.00000
18.71000	241272.00000
18.74000	270291.00000
18.77000	278703.00000
18.80000	238253.00000
18.83000	183034.00000
18.86000	144287.00000
18.89000	121495.00000
18.92000	106728.00000
18.95000	97366.00000
18.98000	92745.00000
19.01000	87165.00000
19.04000	84509.00000
19.07000	83182.00000
19.10000	82222.00000
19.13000	80696.00000
19.16000	80240.00000
19.19000	79466.00000
19.22000	79682.00000
19.25000	79431.00000
19.28000	79651.00000
19.31000	79697.00000
19.34000	78384.00000
19.37000	78561.00000
19.40000	79165.00000
19.43000	78903.00000
19.46000	78745.00000
19.49000	79443.00000
19.52000	78976.00000
19.55000	79002.00000
19.58000	79397.00000
19.61000	80289.00000
19.64000	80337.00000
19.67000	81017.00000
19.70000	81176.00000
19.73000	81327.00000
19.76000	82178.00000
19.79000	83774.00000
19.82000	84643.00000
19.85000	84898.00000
19.88000	86054.00000
19.91000	88995.00000
19.94000	91115.00000
19.97000	94912.00000
20.00000	101804.00000
20.03000	108498.00000
20.06000	115071.00000
20.09000	114051.00000
20.12000	109773.00000
20.15000	108586.00000
20.18000	106112.00000
20.21000	98776.00000
20.24000	92361.00000
20.27000	88938.00000
20.30000	88397.00000
20.33000	88146.00000
20.36000	87845.00000
20.39000	88815.00000
20.42000	91679.00000
20.45000	94538.00000
20.48000	97655.00000
20.51000	104552.00000
20.54000	110452.00000
20.57000	119662.00000
20.60000	133236.00000
20.63000	149401.00000
20.66000	169148.00000
20.69000	188886.00000
20.72000	194632.00000
20.75000	179647.00000
20.78000	155256.00000
20.81000	135387.00000
20.84000	120931.00000
20.87000	112061.00000
20.90000	107478.00000
20.93000	105486.00000
20.96000	105195.00000
20.99000	106535.00000
21.02000	109657.00000
21.05000	112528.00000
21.08000	117074.00000
21.11000	124356.00000
21.14000	133454.00000
21.17000	143516.00000
21.20000	152718.00000
21.23000	152519.00000
21.26000	147276.00000
21.29000	144161.00000
21.32000	145622.00000
21.35000	144531.00000
21.38000	137068.00000
21.41000	127118.00000
21.44000	122352.00000
21.47000	121352.00000
21.50000	123868.00000
21.53000	130414.00000
21.56000	138328.00000
21.59000	150852.00000
21.62000	170982.00000
21.65000	195550.00000
21.68000	222493.00000
21.71000	253387.00000
21.74000	271486.00000
21.77000	258372.00000
21.80000	219251.00000
21.83000	180628.00000
21.86000	151328.00000
21.89000	130141.00000
21.92000	117258.00000
21.95000	108633.00000
21.98000	101363.00000
22.01000	95887.00000
22.04000	93808.00000
22.07000	89744.00000
22.10000	87189.00000
22.13000	86536.00000
22.16000	85423.00000
22.19000	84517.00000
22.22000	83519.00000
22.25000	82843.00000
22.28000	82138.00000
22.31000	81597.00000
22.34000	82009.00000
22.37000	81065.00000
22.40000	80078.00000
22.43000	79460.00000
22.46000	79936.00000
22.49000	79709.00000
22.52000	79816.00000
22.55000	80383.00000
22.58000	79795.00000
22.61000	79941.00000
22.64000	81156.00000
22.67000	81881.00000
22.70000	82827.00000
22.73000	85295.00000
22.76000	87039.00000
22.79000	87807.00000
22.82000	85614.00000
22.85000	83724.00000
22.88000	81262.00000
22.91000	79517.00000
22.94000	79426.00000
22.97000	80102.00000
23.00000	80469.00000
23.03000	81357.00000
23.06000	82513.00000
23.09000	82080.00000
23.12000	81150.00000
23.15000	80159.00000
23.18000	78433.00000
23.21000	77107.00000
23.24000	77350.00000
23.27000	77062.00000
23.30000	77688.00000
23.33000	77668.00000
23.36000	79162.00000
23.39000	80147.00000
23.42000	81398.00000
23.45000	82504.00000
23.48000	80408.00000
23.51000	78747.00000
23.54000	77805.00000
23.57000	78476.00000
23.60000	77407.00000
23.63000	76412.00000
23.66000	76797.00000
23.69000	76096.00000
23.72000	75661.00000
23.75000	75309.00000
23.78000	73789.00000
23.81000	73416.00000
23.84000	72842.00000
23.87000	73215.00000
23.90000	72286.00000
23.93000	72156.00000
23.96000	71850.00000
23.99000	72461.00000
24.02000	72519.00000
24.05000	72924.00000
24.08000	73948.00000
24.11000	73064.00000
24.14000	71374.00000
24.17000	71373.00000
24.20000	70549.00000
24.23000	69316.00000
24.26000	69770.00000
24.29000	69850.00000
24.32000	68870.00000
24.35000	68988.00000
24.38000	68953.00000
24.41000	68580.00000
24.44000	67243.00000
24.47000	67510.00000
24.50000	67549.00000
24.53000	67387.00000
24.56000	67094.00000
24.59000	67396.00000
24.62000	67379.00000
24.65000	66933.00000
24.68000	67265.00000
24.71000	67735.00000
24.74000	67443.00000
24.77000	67442.00000
24.80000	66747.00000
24.83000	66356.00000
24.86000	66108.00000
24.89000	66407.00000
24.92000	65694.00000
24.95000	65160.00000
24.98000	65126.00000
25.01000	65508.00000
25.04000	65998.00000
25.07000	65648.00000
25.10000	65868.00000
25.13000	65123.00000
25.16000	64273.00000
25.19000	65407.00000
25.22000	65216.00000
25.25000	65586.00000
25.28000	65591.00000
25.31000	65849.00000
25.34000	66590.00000
25.37000	67747.00000
25.40000	69335.00000
25.43000	71185.00000
25.46000	73948.00000
25.49000	76144.00000
25.52000	76172.00000
25.55000	73643.00000
25.58000	72504.00000
25.61000	72899.00000
25.64000	72937.00000
25.67000	72624.00000
25.70000	71769.00000
25.73000	70387.00000
25.76000	69399.00000
25.79000	69468.00000
25.82000	69439.00000
25.85000	70886.00000
25.88000	74843.00000
25.91000	78408.00000
25.94000	76415.00000
25.97000	69468.00000
26.00000	64799.00000
26.03000	62592.00000
26.06000	61682.00000
26.09000	60180.00000
26.12000	60822.00000
26.15000	59662.00000
26.18000	58704.00000
26.21000	59204.00000
26.24000	58895.00000
26.27000	59236.00000
26.30000	59558.00000
26.33000	59007.00000
26.36000	58787.00000
26.39000	58706.00000
26.42000	60167.00000
26.45000	60488.00000
26.48000	60790.00000
26.51000	62512.00000
26.54000	64598.00000
26.57000	67621.00000
26.60000	67860.00000
26.63000	65442.00000
26.66000	61551.00000
26.69000	59613.00000
26.72000	58244.00000
26.75000	58365.00000
26.78000	58039.00000
26.81000	58106.00000
26.84000	58149.00000
26.87000	57608.00000
26.90000	57197.00000
26.93000	57773.00000
26.96000	57738.00000
26.99000	57513.00000
27.02000	57199.00000
27.05000	57914.00000
27.08000	57537.00000
27.11000	57622.00000
27.14000	58518.00000
27.17000	58409.00000
27.20000	59103.00000
27.23000	60244.00000
27.26000	61942.00000
27.29000	63741.00000
27.32000	66993.00000
27.35000	71069.00000
27.38000	75569.00000
27.41000	78303.00000
27.44000	78876.00000
27.47000	77586.00000
27.50000	78407.00000
27.53000	82352.00000
27.56000	89210.00000
27.59000	99414.00000
27.62000	113064.00000
27.65000	134592.00000
27.68000	159099.00000
27.71000	185515.00000
27.74000	208096.00000
27.77000	233357.00000
27.80000	277268.00000
27.83000	342035.00000
27.86000	391363.00000
27.89000	355791.00000
27.92000	253658.00000
27.95000	174088.00000
27.98000	128150.00000
28.01000	101726.00000
28.04000	87130.00000
28.07000	78304.00000
28.10000	72088.00000
28.13000	67951.00000
28.16000	65963.00000
28.19000	63774.00000
28.22000	63343.00000
28.25000	64375.00000
28.28000	64592.00000
28.31000	63404.00000
28.34000	62438.00000
28.37000	62258.00000
28.40000	59724.00000
28.43000	56649.00000
28.46000	56416.00000
28.49000	56090.00000
28.52000	55531.00000
28.55000	56596.00000
28.58000	57274.00000
28.61000	58335.00000
28.64000	60384.00000
28.67000	61806.00000
28.70000	60906.00000
28.73000	58743.00000
28.76000	56971.00000
28.79000	54711.00000
28.82000	52804.00000
28.85000	52155.00000
28.88000	51676.00000
28.91000	50776.00000
28.94000	49836.00000
28.97000	49862.00000
29.00000	49563.00000
29.03000	48972.00000
29.06000	48344.00000
29.09000	48647.00000
29.12000	48350.00000
29.15000	47797.00000
29.18000	48404.00000
29.21000	48080.00000
29.24000	47925.00000
29.27000	48645.00000
29.30000	48814.00000
29.33000	48976.00000
29.36000	50118.00000
29.39000	51520.00000
29.42000	52073.00000
29.45000	52282.00000
29.48000	52444.00000
29.51000	52437.00000
29.54000	52546.00000
29.57000	53063.00000
29.60000	53524.00000
29.63000	52563.00000
29.66000	51168.00000
29.69000	50383.00000
29.72000	49700.00000
29.75000	50049.00000
29.78000	51776.00000
29.81000	53844.00000
29.84000	56925.00000
29.87000	59016.00000
29.90000	56030.00000
29.93000	51654.00000
29.96000	48389.00000
29.99000	47147.00000
30.02000	46566.00000
30.05000	45433.00000
30.08000	44976.00000
30.11000	44854.00000
30.14000	44563.00000
30.17000	44389.00000
30.20000	44763.00000
30.23000	43815.00000
30.26000	43873.00000
30.29000	43791.00000
30.32000	43937.00000
30.35000	43290.00000
30.38000	43809.00000
30.41000	43755.00000
30.44000	43982.00000
30.47000	43935.00000
30.50000	44277.00000
30.53000	44344.00000
30.56000	43812.00000
30.59000	44016.00000
30.62000	44488.00000
30.65000	44406.00000
30.68000	43791.00000
30.71000	44324.00000
30.74000	44096.00000
30.77000	44450.00000
30.80000	45241.00000
30.83000	46093.00000
30.86000	46611.00000
30.89000	47763.00000
30.92000	48345.00000
30.95000	47587.00000
30.98000	46836.00000
31.01000	46258.00000
31.04000	45010.00000
31.07000	44281.00000
31.10000	44457.00000
31.13000	44837.00000
31.16000	44814.00000
31.19000	44878.00000
31.22000	45540.00000
31.25000	46000.00000
31.28000	46845.00000
31.31000	48643.00000
31.34000	49258.00000
31.37000	50769.00000
31.40000	53222.00000
31.43000	56970.00000
31.46000	58728.00000
31.49000	55567.00000
31.52000	50501.00000
31.55000	46555.00000
31.58000	44483.00000
31.61000	43879.00000
31.64000	43959.00000
31.67000	43547.00000
31.70000	42860.00000
31.73000	42541.00000
31.76000	41730.00000
31.79000	41542.00000
31.82000	41871.00000
31.85000	42030.00000
31.88000	42599.00000
31.91000	43398.00000
31.94000	44422.00000
31.97000	45508.00000
32.00000	47401.00000
32.03000	49191.00000
32.06000	49446.00000
32.09000	47322.00000
32.12000	44816.00000
32.15000	42965.00000
32.18000	41777.00000
32.21000	40475.00000
32.24000	40424.00000
32.27000	39307.00000
32.30000	39037.00000
32.33000	38779.00000
32.36000	38787.00000
32.39000	38840.00000
32.42000	38640.00000
32.45000	37798.00000
32.48000	37788.00000
32.51000	37876.00000
32.54000	38090.00000
32.57000	37595.00000
32.60000	37555.00000
32.63000	37049.00000
32.66000	37321.00000
32.69000	37366.00000
32.72000	36929.00000
32.75000	37112.00000
32.78000	37069.00000
32.81000	36511.00000
32.84000	36995.00000
32.87000	36821.00000
32.90000	36777.00000
32.93000	37028.00000
32.96000	36830.00000
32.99000	37015.00000
33.02000	36777.00000
33.05000	37472.00000
33.08000	37481.00000
33.11000	36944.00000
33.14000	37101.00000
33.17000	37744.00000
33.20000	38261.00000
33.23000	39247.00000
33.26000	39914.00000
33.29000	39231.00000
33.32000	38723.00000
33.35000	38468.00000
33.38000	38715.00000
33.41000	38373.00000
33.44000	38333.00000
33.47000	39053.00000
33.50000	39069.00000
33.53000	39016.00000
33.56000	39244.00000
33.59000	38760.00000
33.62000	37499.00000
33.65000	36823.00000
33.68000	36677.00000
33.71000	36232.00000
33.74000	35991.00000
33.77000	36433.00000
33.80000	35874.00000
33.83000	36155.00000
33.86000	36654.00000
33.89000	37154.00000
33.92000	37912.00000
33.95000	39247.00000
33.98000	40284.00000
34.01000	40356.00000
34.04000	38761.00000
34.07000	38239.00000
34.10000	37046.00000
34.13000	36282.00000
34.16000	36375.00000
34.19000	36467.00000
34.22000	36160.00000
34.25000	35909.00000
34.28000	35997.00000
34.31000	35343.00000
34.34000	35457.00000
34.37000	35985.00000
34.40000	36177.00000
34.43000	36418.00000
34.46000	37746.00000
34.49000	38604.00000
34.52000	40242.00000
34.55000	41935.00000
34.58000	43317.00000
34.61000	42882.00000
34.64000	40998.00000
34.67000	38689.00000
34.70000	37595.00000
34.73000	36572.00000
34.76000	35714.00000
34.79000	35688.00000
34.82000	34902.00000
34.85000	34499.00000
34.88000	34438.00000
34.91000	34363.00000
34.94000	34336.00000
34.97000	34523.00000
35.00000	34526.00000
35.03000	34253.00000
35.06000	34067.00000
35.09000	34268.00000
35.12000	33892.00000
35.15000	34123.00000
35.18000	34371.00000
35.21000	34194.00000
35.24000	34422.00000
35.27000	34149.00000
35.30000	34495.00000
35.33000	33671.00000
35.36000	33678.00000
35.39000	34144.00000
35.42000	34756.00000
35.45000	35754.00000
35.48000	37019.00000
35.51000	36534.00000
35.54000	36228.00000
35.57000	36779.00000
35.60000	38344.00000
35.63000	40867.00000
35.66000	44497.00000
35.69000	50311.00000
35.72000	57049.00000
35.75000	59302.00000
35.78000	54129.00000
35.81000	47481.00000
35.84000	42063.00000
35.87000	38738.00000
35.90000	37606.00000
35.93000	36705.00000
35.96000	35851.00000
35.99000	35844.00000
36.02000	35482.00000
36.05000	36022.00000
36.08000	36190.00000
36.11000	36753.00000
36.14000	36711.00000
36.17000	35403.00000
36.20000	35077.00000
36.23000	34743.00000
36.26000	34462.00000
36.29000	34362.00000
36.32000	34579.00000
36.35000	34536.00000
36.38000	34753.00000
36.41000	35286.00000
36.44000	35258.00000
36.47000	34656.00000
36.50000	34172.00000
36.53000	33967.00000
36.56000	33887.00000
36.59000	33349.00000
36.62000	33006.00000
36.65000	33013.00000
36.68000	32577.00000
36.71000	32586.00000
36.74000	32620.00000
36.77000	32716.00000
36.80000	32934.00000
36.83000	34016.00000
36.86000	34686.00000
36.89000	35662.00000
36.92000	36961.00000
36.95000	36772.00000
36.98000	36074.00000
37.01000	35403.00000
37.04000	34726.00000
37.07000	34435.00000
37.10000	34356.00000
37.13000	35432.00000
37.16000	36762.00000
37.19000	37759.00000
37.22000	39911.00000
37.25000	42452.00000
37.28000	45230.00000
37.31000	49872.00000
37.34000	54882.00000
37.37000	51685.00000
37.40000	44142.00000
37.43000	38893.00000
37.46000	35392.00000
37.49000	33435.00000
37.52000	32304.00000
37.55000	31932.00000
37.58000	31472.00000
37.61000	31236.00000
37.64000	31157.00000
37.67000	31256.00000
37.70000	31131.00000
37.73000	31048.00000
37.76000	31394.00000
37.79000	31355.00000
37.82000	31732.00000
37.85000	32694.00000
37.88000	33317.00000
37.91000	33508.00000
37.94000	34693.00000
37.97000	35521.00000
38.00000	35972.00000
38.03000	36262.00000
38.06000	36441.00000
38.09000	36629.00000
38.12000	36448.00000
38.15000	37124.00000
38.18000	37698.00000
38.21000	39315.00000
38.24000	42617.00000
38.27000	47665.00000
38.30000	52481.00000
38.33000	53777.00000
38.36000	49758.00000
38.39000	42683.00000
38.42000	38039.00000
38.45000	35799.00000
38.48000	34303.00000
38.51000	32695.00000
38.54000	32227.00000
38.57000	32189.00000
38.60000	31938.00000
38.63000	32109.00000
38.66000	32300.00000
38.69000	32809.00000
38.72000	32958.00000
38.75000	33755.00000
38.78000	34119.00000
38.81000	33924.00000
38.84000	33087.00000
38.87000	32388.00000
38.90000	30991.00000
38.93000	30219.00000
38.96000	29923.00000
38.99000	29482.00000
39.02000	28838.00000
39.05000	29009.00000
39.08000	28745.00000
39.11000	28577.00000
39.14000	28452.00000
39.17000	28736.00000
39.20000	28604.00000
39.23000	28220.00000
39.26000	28304.00000
39.29000	28202.00000
39.32000	28116.00000
39.35000	28108.00000
39.38000	28617.00000
39.41000	28718.00000
39.44000	29078.00000
39.47000	30026.00000
39.50000	31339.00000
39.53000	33282.00000
39.56000	36867.00000
39.59000	40087.00000
39.62000	40435.00000
39.65000	37422.00000
39.68000	34386.00000
39.71000	33154.00000
39.74000	32490.00000
39.77000	32706.00000
39.80000	33783.00000
39.83000	35072.00000
39.86000	37103.00000
39.89000	39659.00000
39.92000	41761.00000
39.95000	43854.00000
39.98000	44741.00000
40.01000	43314.00000
40.04000	40940.00000
40.07000	39237.00000
40.10000	36955.00000
40.13000	35237.00000
40.16000	34221.00000
40.19000	33460.00000
40.22000	33045.00000
40.25000	32693.00000
40.28000	33007.00000
40.31000	33892.00000
40.34000	34584.00000
40.37000	35104.00000
40.40000	35752.00000
40.43000	34698.00000
40.46000	33696.00000
40.49000	32682.00000
40.52000	31499.00000
40.55000	30961.00000
40.58000	30356.00000
40.61000	29823.00000
40.64000	28912.00000
40.67000	28629.00000
40.70000	28651.00000
40.73000	28327.00000
40.76000	28294.00000
40.79000	28072.00000
40.82000	28279.00000
40.85000	28280.00000
40.88000	28286.00000
40.91000	28393.00000
40.94000	28098.00000
40.97000	28085.00000
41.00000	28791.00000
41.03000	28830.00000
41.06000	29011.00000
41.09000	29659.00000
41.12000	29484.00000
41.15000	28859.00000
41.18000	28306.00000
41.21000	28338.00000
41.24000	28628.00000
41.27000	28059.00000
41.30000	28128.00000
41.33000	28908.00000
41.36000	28470.00000
41.39000	28320.00000
41.42000	28115.00000
41.45000	27648.00000
41.48000	27330.00000
41.51000	27162.00000
41.54000	27499.00000
41.57000	28230.00000
41.60000	28710.00000
41.63000	29632.00000
41.66000	29404.00000
41.69000	28405.00000
41.72000	28179.00000
41.75000	27934.00000
41.78000	27522.00000
41.81000	27604.00000
41.84000	28143.00000
41.87000	28168.00000
41.90000	28536.00000
41.93000	28790.00000
41.96000	28574.00000
41.99000	28225.00000
42.02000	28393.00000
42.05000	28405.00000
42.08000	28519.00000
42.11000	29133.00000
42.14000	29516.00000
42.17000	29196.00000
42.20000	28972.00000
42.23000	29153.00000
42.26000	29184.00000
42.29000	28727.00000
42.32000	28509.00000
42.35000	28796.00000
42.38000	28975.00000
42.41000	29352.00000
42.44000	30497.00000
42.47000	30744.00000
42.50000	31040.00000
42.53000	31750.00000
42.56000	31605.00000
42.59000	30728.00000
42.62000	29986.00000
42.65000	29578.00000
42.68000	29280.00000
42.71000	29164.00000
42.74000	28896.00000
42.77000	29340.00000
42.80000	29130.00000
42.83000	29283.00000
42.86000	30148.00000
42.89000	31243.00000
42.92000	31607.00000
42.95000	30949.00000
42.98000	29615.00000
43.01000	29116.00000
43.04000	28803.00000
43.07000	29159.00000
43.10000	29001.00000
43.13000	29072.00000
43.16000	28687.00000
43.19000	28134.00000
43.22000	28009.00000
43.25000	27754.00000
43.28000	27743.00000
43.31000	27656.00000
43.34000	27557.00000
43.37000	27981.00000
43.40000	28219.00000
43.43000	28581.00000
43.46000	29330.00000
43.49000	30009.00000
43.52000	30334.00000
43.55000	31012.00000
43.58000	32444.00000
43.61000	33124.00000
43.64000	34051.00000
43.67000	34502.00000
43.70000	34838.00000
43.73000	34878.00000
43.76000	34248.00000
43.79000	32147.00000
43.82000	30787.00000
43.85000	29595.00000
43.88000	28597.00000
43.91000	28268.00000
43.94000	27472.00000
43.97000	27722.00000
44.00000	27335.00000
44.03000	27154.00000
44.06000	27673.00000
44.09000	27918.00000
44.12000	28452.00000
44.15000	29108.00000
44.18000	29855.00000
44.21000	30526.00000
44.24000	31658.00000
44.27000	32543.00000
44.30000	32982.00000
44.33000	32249.00000
44.36000	31135.00000
44.39000	30286.00000
44.42000	28638.00000
44.45000	28308.00000
44.48000	27902.00000
44.51000	26860.00000
44.54000	26217.00000
44.57000	26022.00000
44.60000	25850.00000
44.63000	25503.00000
44.66000	25757.00000
44.69000	25095.00000
44.72000	25117.00000
44.75000	25108.00000
44.78000	25042.00000
44.81000	25297.00000
44.84000	24660.00000
44.87000	24846.00000
44.90000	24922.00000
44.93000	24877.00000
44.96000	24913.00000
44.99000	25308.00000
45.02000	24977.00000
45.05000	24923.00000
45.08000	24917.00000
45.11000	24788.00000
45.14000	24457.00000
45.17000	24630.00000
45.20000	24630.00000
45.23000	24787.00000
45.26000	24540.00000
45.29000	24884.00000
45.32000	24941.00000
45.35000	24719.00000
45.38000	24993.00000
45.41000	25279.00000
45.44000	25131.00000
45.47000	25015.00000
45.50000	25488.00000
45.53000	25117.00000
45.56000	25222.00000
45.59000	25694.00000
45.62000	25687.00000
45.65000	25826.00000
45.68000	26229.00000
45.71000	25767.00000
45.74000	25767.00000
45.77000	25750.00000
45.80000	25733.00000
45.83000	25286.00000
45.86000	25404.00000
45.89000	25596.00000
45.92000	26053.00000
45.95000	26574.00000
45.98000	26856.00000
46.01000	27357.00000
46.04000	27168.00000
46.07000	27249.00000
46.10000	27248.00000
46.13000	26353.00000
46.16000	25548.00000
46.19000	25020.00000
46.22000	24801.00000
46.25000	24448.00000
46.28000	24130.00000
46.31000	24478.00000
46.34000	24404.00000
46.37000	24666.00000
46.40000	24523.00000
46.43000	24974.00000
46.46000	25208.00000
46.49000	25510.00000
46.52000	26638.00000
46.55000	26344.00000
46.58000	26178.00000
46.61000	25840.00000
46.64000	25474.00000
46.67000	24945.00000
46.70000	24923.00000
46.73000	24935.00000
46.76000	24504.00000
46.79000	24831.00000
46.82000	24698.00000
46.85000	24641.00000
46.88000	24806.00000
46.91000	24739.00000
46.94000	25395.00000
46.97000	25659.00000
47.00000	26621.00000
47.03000	27655.00000
47.06000	28059.00000
47.09000	27897.00000
47.12000	27639.00000
47.15000	27859.00000
47.18000	28504.00000
47.21000	28901.00000
47.24000	29176.00000
47.27000	28908.00000
47.30000	28332.00000
47.33000	27519.00000
47.36000	26378.00000
47.39000	25755.00000
47.42000	24876.00000
47.45000	24355.00000
47.48000	24351.00000
47.51000	24297.00000
47.54000	24037.00000
47.57000	24168.00000
47.60000	24713.00000
47.63000	24553.00000
47.66000	23931.00000
47.69000	23813.00000
47.72000	23495.00000
47.75000	23109.00000
47.78000	23332.00000
47.81000	23655.00000
47.84000	23542.00000
47.87000	23701.00000
47.90000	23567.00000
47.93000	23568.00000
47.96000	23693.00000
47.99000	23327.00000
48.02000	23127.00000
48.05000	23288.00000
48.08000	22776.00000
48.11000	22742.00000
48.14000	22951.00000
48.17000	23114.00000
48.20000	23022.00000
48.23000	22982.00000
48.26000	22579.00000
48.29000	22680.00000
48.32000	22691.00000
48.35000	22885.00000
48.38000	23326.00000
48.41000	23198.00000
48.44000	23814.00000
48.47000	24621.00000
48.50000	24960.00000
48.53000	24950.00000
48.56000	24676.00000
48.59000	23283.00000
48.62000	23016.00000
48.65000	22922.00000
48.68000	22854.00000
48.71000	22683.00000
48.74000	22637.00000
48.77000	22846.00000
48.80000	22798.00000
48.83000	23009.00000
48.86000	23177.00000
48.89000	23199.00000
48.92000	23218.00000
48.95000	23087.00000
48.98000	22934.00000
49.01000	23069.00000
49.04000	22884.00000
49.07000	23136.00000
49.10000	22814.00000
49.13000	22556.00000
49.16000	22848.00000
49.19000	22908.00000
49.22000	22674.00000
49.25000	23350.00000
49.28000	23083.00000
49.31000	23458.00000
49.34000	23953.00000
49.37000	24178.00000
49.40000	24320.00000
49.43000	24257.00000
49.46000	24015.00000
49.49000	23927.00000
49.52000	23803.00000
49.55000	23984.00000
49.58000	24647.00000
49.61000	23861.00000
49.64000	23299.00000
49.67000	22873.00000
49.70000	22744.00000
49.73000	22438.00000
49.76000	22048.00000
49.79000	22300.00000
49.82000	22364.00000
49.85000	22556.00000
49.88000	22754.00000
49.91000	22922.00000
49.94000	23143.00000
49.97000	23486.00000
50.00000	23622.00000
50.03000	23484.00000
50.06000	23036.00000
50.09000	22602.00000
50.12000	21935.00000
50.15000	21631.00000
50.18000	21257.00000
50.21000	21406.00000
50.24000	21346.00000
50.27000	21484.00000
50.30000	21170.00000
50.33000	21655.00000
50.36000	21372.00000
50.39000	21528.00000
50.42000	21473.00000
50.45000	21316.00000
50.48000	21276.00000
50.51000	21442.00000
50.54000	21611.00000
50.57000	21843.00000
50.60000	22089.00000
50.63000	22274.00000
50.66000	22750.00000
50.69000	23393.00000
50.72000	23398.00000
50.75000	23009.00000
50.78000	23232.00000
50.81000	22885.00000
50.84000	22665.00000
50.87000	22557.00000
50.90000	22700.00000
50.93000	22575.00000
50.96000	21943.00000
50.99000	21955.00000
51.02000	21765.00000
51.05000	21504.00000
51.08000	21595.00000
51.11000	21406.00000
51.14000	21193.00000
51.17000	20810.00000
51.20000	20997.00000
51.23000	21066.00000
51.26000	20900.00000
51.29000	20970.00000
51.32000	21059.00000
51.35000	21101.00000
51.38000	21047.00000
51.41000	21245.00000
51.44000	21184.00000
51.47000	21156.00000
51.50000	21168.00000
51.53000	21116.00000
51.56000	20926.00000
51.59000	20788.00000
51.62000	20842.00000
51.65000	20425.00000
51.68000	20308.00000
51.71000	20479.00000
51.74000	20404.00000
51.77000	20493.00000
51.80000	20615.00000
51.83000	20392.00000
51.86000	20860.00000
51.89000	20465.00000
51.92000	20642.00000
51.95000	20661.00000
51.98000	20604.00000
52.01000	20679.00000
52.04000	20690.00000
52.07000	20741.00000
52.10000	20660.00000
52.13000	21142.00000
52.16000	21092.00000
52.19000	21586.00000
52.22000	22037.00000
52.25000	22537.00000
52.28000	23295.00000
52.31000	23971.00000
52.34000	24908.00000
52.37000	25731.00000
52.40000	26040.00000
52.43000	26197.00000
52.46000	25251.00000
52.49000	24046.00000
52.52000	22914.00000
52.55000	22373.00000
52.58000	22257.00000
52.61000	22332.00000
52.64000	22657.00000
52.67000	22690.00000
52.70000	22601.00000
52.73000	22221.00000
52.76000	22125.00000
52.79000	21675.00000
52.82000	21732.00000
52.85000	21897.00000
52.88000	21548.00000
52.91000	21354.00000
52.94000	21459.00000
52.97000	21400.00000
53.00000	20704.00000
53.03000	20768.00000
53.06000	20601.00000
53.09000	20585.00000
53.12000	20601.00000
53.15000	20899.00000
53.18000	21016.00000
53.21000	21273.00000
53.24000	22120.00000
53.27000	22497.00000
53.30000	22593.00000
53.33000	22819.00000
53.36000	22640.00000
53.39000	22714.00000
53.42000	22283.00000
53.45000	22159.00000
53.48000	21840.00000
53.51000	21532.00000
53.54000	21285.00000
53.57000	21369.00000
53.60000	21318.00000
53.63000	21348.00000
53.66000	21802.00000
53.69000	21342.00000
53.72000	21190.00000
53.75000	20929.00000
53.78000	20932.00000
53.81000	20857.00000
53.84000	20952.00000
53.87000	20753.00000
53.90000	20631.00000
53.93000	20218.00000
53.96000	20282.00000
53.99000	20490.00000
54.02000	19994.00000
54.05000	19969.00000
54.08000	20249.00000
54.11000	20421.00000
54.14000	20470.00000
54.17000	20757.00000
54.20000	20282.00000
54.23000	20371.00000
54.26000	20662.00000
54.29000	20639.00000
54.32000	20700.00000
54.35000	21113.00000
54.38000	21354.00000
54.41000	21543.00000
54.44000	21699.00000
54.47000	21552.00000
54.50000	21471.00000
54.53000	21437.00000
54.56000	21469.00000
54.59000	21441.00000
54.62000	21504.00000
54.65000	21509.00000
54.68000	21715.00000
54.71000	21813.00000
54.74000	21595.00000
54.77000	22242.00000
54.80000	22289.00000
54.83000	22826.00000
54.86000	22771.00000
54.89000	22211.00000
54.92000	21485.00000
54.95000	21046.00000
54.98000	21163.00000
55.01000	20633.00000
55.04000	20209.00000
55.07000	19979.00000
55.10000	19931.00000
55.13000	19968.00000
55.16000	20018.00000
55.19000	20134.00000
55.22000	20020.00000
55.25000	20416.00000
55.28000	20503.00000
55.31000	20620.00000
55.34000	20218.00000
55.37000	20203.00000
55.40000	19917.00000
55.43000	19929.00000
55.46000	20020.00000
55.49000	20544.00000
55.52000	20107.00000
55.55000	20058.00000
55.58000	19943.00000
55.61000	19830.00000
55.64000	19756.00000
55.67000	19626.00000
55.70000	19701.00000
55.73000	19401.00000
55.76000	19527.00000
55.79000	19489.00000
55.82000	19177.00000
55.85000	19312.00000
55.88000	19298.00000
55.91000	19481.00000
55.94000	19396.00000
55.97000	19225.00000
56.00000	19847.00000
56.03000	19671.00000
56.06000	19527.00000
56.09000	19533.00000
56.12000	19730.00000
56.15000	19956.00000
56.18000	19822.00000
56.21000	20256.00000
56.24000	20176.00000
56.27000	20239.00000
56.30000	20298.00000
56.33000	20438.00000
56.36000	20164.00000
56.39000	20048.00000
56.42000	20063.00000
56.45000	19908.00000
56.48000	19714.00000
56.51000	19935.00000
56.54000	19824.00000
56.57000	19428.00000
56.60000	19551.00000
56.63000	19724.00000
56.66000	19693.00000
56.69000	19568.00000
56.72000	19696.00000
56.75000	19537.00000
56.78000	19622.00000
56.81000	19963.00000
56.84000	19763.00000
56.87000	19870.00000
56.90000	20194.00000
56.93000	20003.00000
56.96000	20042.00000
56.99000	20138.00000
57.02000	20686.00000
57.05000	20739.00000
57.08000	21081.00000
57.11000	21044.00000
57.14000	21443.00000
57.17000	21736.00000
57.20000	22405.00000
57.23000	22858.00000
57.26000	23041.00000
57.29000	22899.00000
57.32000	22874.00000
57.35000	22489.00000
57.38000	22355.00000
57.41000	22242.00000
57.44000	22006.00000
57.47000	21927.00000
57.50000	21909.00000
57.53000	22283.00000
57.56000	22455.00000
57.59000	22263.00000
57.62000	22330.00000
57.65000	21978.00000
57.68000	21665.00000
57.71000	20946.00000
57.74000	20927.00000
57.77000	20393.00000
57.80000	19930.00000
57.83000	20155.00000
57.86000	20215.00000
57.89000	20121.00000
57.92000	20066.00000
57.95000	19995.00000
57.98000	20272.00000
58.01000	19998.00000
58.04000	20322.00000
58.07000	19986.00000
58.10000	19699.00000
58.13000	19337.00000
58.16000	19652.00000
58.19000	19528.00000
58.22000	19615.00000
58.25000	19819.00000
58.28000	19588.00000
58.31000	19008.00000
58.34000	19023.00000
58.37000	19157.00000
58.40000	19020.00000
58.43000	19109.00000
58.46000	18890.00000
58.49000	19240.00000
58.52000	19057.00000
58.55000	19307.00000
58.58000	19129.00000
58.61000	19063.00000
58.64000	19389.00000
58.67000	19526.00000
58.70000	19586.00000
58.73000	19412.00000
58.76000	19649.00000
58.79000	19370.00000
58.82000	19231.00000
58.85000	19404.00000
58.88000	19342.00000
58.91000	19291.00000
58.94000	19242.00000
58.97000	19316.00000
59.00000	19566.00000
59.03000	19208.00000
59.06000	18829.00000
59.09000	18936.00000
59.12000	18814.00000
59.15000	18791.00000
59.18000	18637.00000
59.21000	18812.00000
59.24000	18802.00000
59.27000	18903.00000
59.30000	18535.00000
59.33000	18837.00000
59.36000	18767.00000
59.39000	18766.00000
59.42000	18825.00000
59.45000	18557.00000
59.48000	18566.00000
59.51000	18321.00000
59.54000	18243.00000
59.57000	18430.00000
59.60000	18318.00000
59.63000	18565.00000
59.66000	17958.00000
59.69000	18145.00000
59.72000	17877.00000
59.75000	18056.00000
59.78000	18076.00000
59.81000	18037.00000
59.84000	17864.00000
59.87000	18116.00000
59.90000	18102.00000
59.93000	18021.00000
59.96000	18197.00000
59.99000	18188.00000
60.02000	18285.00000
60.05000	18179.00000
60.08000	18254.00000
60.11000	18207.00000
60.14000	17982.00000
60.17000	17879.00000
60.20000	18126.00000
60.23000	18341.00000
60.26000	18268.00000
60.29000	18521.00000
60.32000	18360.00000
60.35000	18441.00000
60.38000	18648.00000
60.41000	18842.00000
60.44000	18560.00000
60.47000	18700.00000
60.50000	18450.00000
60.53000	18300.00000
60.56000	18401.00000
60.59000	18484.00000
60.62000	18272.00000
60.65000	17665.00000
60.68000	17938.00000
60.71000	17924.00000
60.74000	17652.00000
60.77000	17690.00000
60.80000	17929.00000
60.83000	17924.00000
60.86000	17892.00000
60.89000	17568.00000
60.92000	17779.00000
60.95000	18006.00000
60.98000	18044.00000
61.01000	18220.00000
61.04000	18273.00000
61.07000	18029.00000
61.10000	18232.00000
61.13000	18245.00000
61.16000	18050.00000
61.19000	18260.00000
61.22000	18332.00000
61.25000	18330.00000
61.28000	18037.00000
61.31000	18381.00000
61.34000	18126.00000
61.37000	17962.00000
61.40000	18127.00000
61.43000	18133.00000
61.46000	17981.00000
61.49000	18422.00000
61.52000	18378.00000
61.55000	18553.00000
61.58000	18898.00000
61.61000	19207.00000
61.64000	19421.00000
61.67000	19028.00000
61.70000	18623.00000
61.73000	18585.00000
61.76000	18533.00000
61.79000	18359.00000
61.82000	18241.00000
61.85000	18201.00000
61.88000	18246.00000
61.91000	18471.00000
61.94000	18309.00000
61.97000	18300.00000
62.00000	18587.00000
62.03000	18516.00000
62.06000	18817.00000
62.09000	18701.00000
62.12000	18739.00000
62.15000	18728.00000
62.18000	18679.00000
62.21000	18782.00000
62.24000	19038.00000
62.27000	18947.00000
62.30000	19226.00000
62.33000	19057.00000
62.36000	18875.00000
62.39000	18712.00000
62.42000	18790.00000
62.45000	18396.00000
62.48000	18458.00000
62.51000	18522.00000
62.54000	18539.00000
62.57000	18738.00000
62.60000	18763.00000
62.63000	18837.00000
62.66000	18818.00000
62.69000	18508.00000
62.72000	18490.00000
62.75000	18590.00000
62.78000	18652.00000
62.81000	18347.00000
62.84000	18606.00000
62.87000	18484.00000
62.90000	18241.00000
62.93000	18577.00000
62.96000	18508.00000
62.99000	18408.00000
63.02000	18609.00000
63.05000	18230.00000
63.08000	18340.00000
63.11000	18064.00000
63.14000	18183.00000
63.17000	18051.00000
63.20000	17882.00000
63.23000	17931.00000
63.26000	17744.00000
63.29000	17781.00000
63.32000	17793.00000
63.35000	17965.00000
63.38000	17853.00000
63.41000	17583.00000
63.44000	17765.00000
63.47000	17562.00000
63.50000	17799.00000
63.53000	17776.00000
63.56000	17775.00000
63.59000	18050.00000
63.62000	17623.00000
63.65000	18021.00000
63.68000	17927.00000
63.71000	17582.00000
63.74000	17852.00000
63.77000	18069.00000
63.80000	18131.00000
63.83000	17772.00000
63.86000	18102.00000
63.89000	17977.00000
63.92000	17880.00000
63.95000	17867.00000
63.98000	18219.00000
64.01000	18115.00000
64.04000	18118.00000
64.07000	18131.00000
64.10000	17943.00000
64.13000	17901.00000
64.16000	18284.00000
64.19000	18280.00000
64.22000	18226.00000
64.25000	18247.00000
64.28000	17953.00000
64.31000	18157.00000
64.34000	18097.00000
64.37000	18158.00000
64.40000	17925.00000
64.43000	17608.00000
64.46000	17531.00000
64.49000	18018.00000
64.52000	17394.00000
64.55000	17399.00000
64.58000	17549.00000
64.61000	17602.00000
64.64000	17580.00000
64.67000	17621.00000
64.70000	17640.00000
64.73000	17356.00000
64.76000	17511.00000
64.79000	17441.00000
64.82000	17658.00000
64.85000	17857.00000
64.88000	17856.00000
64.91000	17645.00000
64.94000	17600.00000
64.97000	17502.00000
65.00000	17366.00000
65.03000	17556.00000
65.06000	17523.00000
65.09000	17625.00000
65.12000	17718.00000
65.15000	17715.00000
65.18000	17907.00000
65.21000	17918.00000
65.24000	17962.00000
65.27000	17868.00000
65.30000	17811.00000
65.33000	18085.00000
65.36000	18018.00000
65.39000	18136.00000
65.42000	17741.00000
65.45000	17766.00000
65.48000	17672.00000
65.51000	17657.00000
65.54000	17542.00000
65.57000	17805.00000
65.60000	17771.00000
65.63000	17646.00000
65.66000	17829.00000
65.69000	17674.00000
65.72000	17883.00000
65.75000	17860.00000
65.78000	17701.00000
65.81000	17710.00000
65.84000	17817.00000
65.87000	17737.00000
65.90000	17939.00000
65.93000	17640.00000
65.96000	17364.00000
65.99000	17592.00000
66.02000	17629.00000
66.05000	17580.00000
66.08000	17861.00000
66.11000	17610.00000
66.14000	17342.00000
66.17000	17335.00000
66.20000	17489.00000
66.23000	17468.00000
66.26000	17299.00000
66.29000	17229.00000
66.32000	17211.00000
66.35000	17210.00000
66.38000	17372.00000
66.41000	17526.00000
66.44000	17462.00000
66.47000	16993.00000
66.50000	17473.00000
66.53000	17260.00000
66.56000	17234.00000
66.59000	17208.00000
66.62000	16978.00000
66.65000	17208.00000
66.68000	16982.00000
66.71000	17242.00000
66.74000	17161.00000
66.77000	16797.00000
66.80000	17135.00000
66.83000	17066.00000
66.86000	17098.00000
66.89000	16928.00000
66.92000	17124.00000
66.95000	16844.00000
66.98000	16825.00000
67.01000	17147.00000
67.04000	17249.00000
67.07000	17060.00000
67.10000	17301.00000
67.13000	17096.00000
67.16000	17135.00000
67.19000	16823.00000
67.22000	17209.00000
67.25000	17218.00000
67.28000	16984.00000
67.31000	17034.00000
67.34000	17252.00000
67.37000	17219.00000
67.40000	17176.00000
67.43000	17533.00000
67.46000	17473.00000
67.49000	17457.00000
67.52000	17505.00000
67.55000	17519.00000
67.58000	17534.00000
67.61000	17522.00000
67.64000	17071.00000
67.67000	17036.00000
67.70000	16885.00000
67.73000	17155.00000
67.76000	17073.00000
67.79000	16633.00000
67.82000	16902.00000
67.85000	16664.00000
67.88000	16756.00000
67.91000	16811.00000
67.94000	16875.00000
67.97000	16983.00000
68.00000	16558.00000
68.03000	16767.00000
68.06000	16855.00000
68.09000	16925.00000
68.12000	17008.00000
68.15000	17136.00000
68.18000	17051.00000
68.21000	17065.00000
68.24000	17270.00000
68.27000	17042.00000
68.30000	16724.00000
68.33000	16569.00000
68.36000	16887.00000
68.39000	16740.00000
68.42000	16654.00000
68.45000	16893.00000
68.48000	16777.00000
68.51000	16604.00000
68.54000	16922.00000
68.57000	16923.00000
68.60000	16813.00000
68.63000	16890.00000
68.66000	16637.00000
68.69000	16954.00000
68.72000	17001.00000
68.75000	16824.00000
68.78000	16835.00000
68.81000	16829.00000
68.84000	16546.00000
68.87000	16499.00000
68.90000	16587.00000
68.93000	16540.00000
68.96000	16808.00000
68.99000	16334.00000
69.02000	16588.00000
69.05000	16490.00000
69.08000	16579.00000
69.11000	16403.00000
69.14000	16400.00000
69.17000	16468.00000
69.20000	16562.00000
69.23000	16571.00000
69.26000	16731.00000
69.29000	16561.00000
69.32000	16588.00000
69.35000	16601.00000
69.38000	16513.00000
69.41000	16511.00000
69.44000	16648.00000
69.47000	16436.00000
69.50000	16442.00000
69.53000	16553.00000
69.56000	16605.00000
69.59000	16477.00000
69.62000	16566.00000
69.65000	16209.00000
69.68000	16466.00000
69.71000	16722.00000
69.74000	16903.00000
69.77000	17249.00000
69.80000	17443.00000
69.83000	17294.00000
69.86000	17259.00000
69.89000	17223.00000
69.92000	17133.00000
69.95000	16999.00000
69.98000	16737.00000
70.01000	16552.00000
70.04000	16513.00000
70.07000	16700.00000
70.10000	16570.00000
70.13000	16454.00000
70.16000	16637.00000
70.19000	16724.00000
70.22000	16760.00000
70.25000	16668.00000
70.28000	16661.00000
70.31000	16303.00000
70.34000	16274.00000
70.37000	16156.00000
70.40000	16170.00000
70.43000	16070.00000
70.46000	16171.00000
70.49000	16153.00000
70.52000	16104.00000
70.55000	15883.00000
70.58000	16066.00000
70.61000	16229.00000
70.64000	16042.00000
70.67000	16169.00000
70.70000	16253.00000
70.73000	16154.00000
70.76000	16073.00000
70.79000	16247.00000
70.82000	16301.00000
70.85000	15885.00000
70.88000	15852.00000
70.91000	15885.00000
70.94000	15875.00000
70.97000	15933.00000
71.00000	16186.00000
71.03000	15992.00000
71.06000	15814.00000
71.09000	16006.00000
71.12000	16117.00000
71.15000	15876.00000
71.18000	15881.00000
71.21000	16073.00000
71.24000	15737.00000
71.27000	15954.00000
71.30000	16083.00000
71.33000	15965.00000
71.36000	15646.00000
71.39000	15552.00000
71.42000	15795.00000
71.45000	15819.00000
71.48000	15747.00000
71.51000	15877.00000
71.54000	15751.00000
71.57000	15725.00000
71.60000	15878.00000
71.63000	15815.00000
71.66000	15737.00000
71.69000	15883.00000
71.72000	15860.00000
71.75000	15677.00000
71.78000	15767.00000
71.81000	16093.00000
71.84000	15927.00000
71.87000	15676.00000
71.90000	15905.00000
71.93000	16059.00000
71.96000	15878.00000
71.99000	15916.00000
72.02000	15974.00000
72.05000	15944.00000
72.08000	15883.00000
72.11000	15976.00000
72.14000	16021.00000
72.17000	15772.00000
72.20000	15801.00000
72.23000	15814.00000
72.26000	15858.00000
72.29000	15965.00000
72.32000	16023.00000
72.35000	16127.00000
72.38000	15743.00000
72.41000	15734.00000
72.44000	15853.00000
72.47000	15827.00000
72.50000	15816.00000
72.53000	15651.00000
72.56000	15686.00000
72.59000	15661.00000
72.62000	15645.00000
72.65000	15542.00000
72.68000	15574.00000
72.71000	15655.00000
72.74000	15811.00000
72.77000	15615.00000
72.80000	15851.00000
72.83000	15956.00000
72.86000	15808.00000
72.89000	15633.00000
72.92000	15638.00000
72.95000	15671.00000
72.98000	15500.00000
73.01000	15596.00000
73.04000	15861.00000
73.07000	15709.00000
73.10000	15717.00000
73.13000	15574.00000
73.16000	15865.00000
73.19000	15609.00000
73.22000	15770.00000
73.25000	15841.00000
73.28000	15677.00000
73.31000	15785.00000
73.34000	15994.00000
73.37000	15749.00000
73.40000	15743.00000
73.43000	15690.00000
73.46000	15690.00000
73.49000	15482.00000
73.52000	15537.00000
73.55000	15717.00000
73.58000	15445.00000
73.61000	15692.00000
73.64000	15675.00000
73.67000	15689.00000
73.70000	15686.00000
73.73000	15863.00000
73.76000	15866.00000
73.79000	15686.00000
73.82000	15948.00000
73.85000	16041.00000
73.88000	16079.00000
73.91000	15849.00000
73.94000	15817.00000
73.97000	15903.00000
74.00000	15869.00000
74.03000	15886.00000
74.06000	15937.00000
74.09000	15936.00000
74.12000	15848.00000
74.15000	15660.00000
74.18000	15940.00000
74.21000	15704.00000
74.24000	15780.00000
74.27000	16065.00000
74.30000	16071.00000
74.33000	15925.00000
74.36000	16137.00000
74.39000	15903.00000
74.42000	15849.00000
74.45000	15664.00000
74.48000	15998.00000
74.51000	15692.00000
74.54000	15877.00000
74.57000	15655.00000
74.60000	15737.00000
74.63000	15629.00000
74.66000	15660.00000
74.69000	15709.00000
74.72000	15675.00000
74.75000	15796.00000
74.78000	15663.00000
74.81000	15770.00000
74.84000	15691.00000
74.87000	15983.00000
74.90000	15961.00000
74.93000	15925.00000
74.96000	15945.00000
74.99000	16384.00000
75.02000	16486.00000
75.05000	16622.00000
75.08000	16585.00000
75.11000	16305.00000
75.14000	15966.00000
75.17000	16256.00000
75.20000	16079.00000
75.23000	15974.00000
75.26000	15771.00000
75.29000	15768.00000
75.32000	15739.00000
75.35000	15877.00000
75.38000	15998.00000
75.41000	15932.00000
75.44000	15486.00000
75.47000	15526.00000
75.50000	15774.00000
75.53000	15708.00000
75.56000	15742.00000
75.59000	15889.00000
75.62000	15709.00000
75.65000	15735.00000
75.68000	15762.00000
75.71000	15744.00000
75.74000	15763.00000
75.77000	15988.00000
75.80000	15949.00000
75.83000	15871.00000
75.86000	16054.00000
75.89000	16034.00000
75.92000	16043.00000
75.95000	16015.00000
75.98000	16048.00000
76.01000	16016.00000
76.04000	16160.00000
76.07000	15908.00000
76.10000	16095.00000
76.13000	16017.00000
76.16000	15692.00000
76.19000	16031.00000
76.22000	15792.00000
76.25000	15816.00000
76.28000	16070.00000
76.31000	15868.00000
76.34000	15846.00000
76.37000	15816.00000
76.40000	16015.00000
76.43000	15961.00000
76.46000	15584.00000
76.49000	16028.00000
76.52000	15941.00000
76.55000	15632.00000
76.58000	15736.00000
76.61000	15799.00000
76.64000	15917.00000
76.67000	15674.00000
76.70000	15807.00000
76.73000	15805.00000
76.76000	15752.00000
76.79000	15806.00000
76.82000	15847.00000
76.85000	15791.00000
76.88000	15940.00000
76.91000	15898.00000
76.94000	15902.00000
76.97000	15556.00000
77.00000	15617.00000
77.03000	15616.00000
77.06000	15888.00000
77.09000	15736.00000
77.12000	15735.00000
77.15000	15748.00000
77.18000	15841.00000
77.21000	15787.00000
77.24000	15919.00000
77.27000	15763.00000
77.30000	16147.00000
77.33000	16262.00000
77.36000	16165.00000
77.39000	16311.00000
77.42000	16821.00000
77.45000	16672.00000
77.48000	16692.00000
77.51000	16755.00000
77.54000	17167.00000
77.57000	17161.00000
77.60000	17014.00000
77.63000	17178.00000
77.66000	16605.00000
77.69000	16334.00000
77.72000	16210.00000
77.75000	15985.00000
77.78000	16138.00000
77.81000	16197.00000
77.84000	16117.00000
77.87000	15990.00000
77.90000	16053.00000
77.93000	15814.00000
77.96000	15877.00000
77.99000	15791.00000
78.02000	15618.00000
78.05000	15713.00000
78.08000	15870.00000
78.11000	15732.00000
78.14000	15845.00000
78.17000	15820.00000
78.20000	15653.00000
78.23000	15709.00000
78.26000	15812.00000
78.29000	15847.00000
78.32000	15978.00000
78.35000	15754.00000
78.38000	15735.00000
78.41000	15952.00000
78.44000	15883.00000
78.47000	16057.00000
78.50000	16094.00000
78.53000	16103.00000
78.56000	16230.00000
78.59000	16395.00000
78.62000	16287.00000
78.65000	16370.00000
78.68000	16031.00000
78.71000	15699.00000
78.74000	15939.00000
78.77000	15919.00000
78.80000	15439.00000
78.83000	15894.00000
78.86000	15706.00000
78.89000	15913.00000
78.92000	15510.00000
78.95000	15751.00000
78.98000	16004.00000
79.01000	15550.00000
79.04000	15464.00000
79.07000	15788.00000
79.10000	15703.00000
79.13000	15471.00000
79.16000	15947.00000
79.19000	15557.00000
79.22000	15555.00000
79.25000	15916.00000
79.28000	16201.00000
79.31000	16156.00000
79.34000	16295.00000
79.37000	16282.00000
79.40000	16381.00000
79.43000	16163.00000
79.46000	16153.00000
79.49000	15987.00000
79.52000	15888.00000
79.55000	15880.00000
79.58000	16072.00000
79.61000	16041.00000
79.64000	16246.00000
79.67000	16382.00000
79.70000	15996.00000
79.73000	16072.00000
79.76000	15830.00000
79.79000	15565.00000
79.82000	15764.00000
79.85000	15424.00000
79.88000	15273.00000
79.91000	15410.00000
79.94000	15407.00000
79.97000	15459.00000
80.00000	15332.00000
80.03000	15305.00000
80.06000	15191.00000
80.09000	15124.00000
80.12000	15118.00000
80.15000	15333.00000
80.18000	15391.00000
80.21000	15067.00000
80.24000	15019.00000
80.27000	14994.00000
80.30000	15079.00000
80.33000	15100.00000
80.36000	15005.00000
80.39000	15113.00000
80.42000	14975.00000
80.45000	14920.00000
80.48000	15131.00000
80.51000	15189.00000
80.54000	15046.00000
80.57000	14769.00000
80.60000	15021.00000
80.63000	15019.00000
80.66000	14926.00000
80.69000	14893.00000
80.72000	14866.00000
80.75000	14801.00000
80.78000	15013.00000
80.81000	15101.00000
80.84000	15004.00000
80.87000	14949.00000
80.90000	15186.00000
80.93000	15007.00000
80.96000	14914.00000
80.99000	15141.00000
81.02000	15054.00000
