5.00000	18505.00000
5.01672	18864.00000
5.03344	18723.00000
5.05016	18865.00000
5.06688	18848.00000
5.08360	18916.00000
5.10032	18561.00000
5.11704	18764.00000
5.13376	18437.00000
5.15048	19005.00000
5.16720	18741.00000
5.18392	18703.00000
5.20064	18710.00000
5.21736	18627.00000
5.23408	18737.00000
5.25080	18822.00000
5.26752	18919.00000
5.28424	18556.00000
5.30096	18740.00000
5.31768	18611.00000
5.33440	18887.00000
5.35112	18607.00000
5.36784	18488.00000
5.38456	18832.00000
5.40128	18663.00000
5.41800	18363.00000
5.43472	18645.00000
5.45144	18613.00000
5.46816	18456.00000
5.48488	18900.00000
5.50160	18782.00000
5.51832	18483.00000
5.53504	18752.00000
5.55176	18596.00000
5.56848	18402.00000
5.58520	18586.00000
5.60192	18556.00000
5.61864	18657.00000
5.63536	18622.00000
5.65208	18305.00000
5.66880	18489.00000
5.68552	18198.00000
5.70224	18544.00000
5.71896	18450.00000
5.73568	18329.00000
5.75240	18385.00000
5.76912	18382.00000
5.78584	17940.00000
5.80256	18321.00000
5.81928	18154.00000
5.83600	18027.00000
5.85272	18216.00000
5.86944	18163.00000
5.88616	17973.00000
5.90288	18065.00000
5.91960	18031.00000
5.93632	18094.00000
5.95304	18036.00000
5.96976	17991.00000
5.98648	18122.00000
6.00320	17948.00000
6.01992	17904.00000
6.03664	17758.00000
6.05336	17901.00000
6.07008	17850.00000
6.08680	17829.00000
6.10352	17856.00000
6.12024	17947.00000
6.13696	17614.00000
6.15368	17784.00000
6.17040	17685.00000
6.18712	17628.00000
6.20384	17562.00000
6.22056	17671.00000
6.23728	17830.00000
6.25400	17607.00000
6.27072	17598.00000
6.28744	17390.00000
6.30416	17616.00000
6.32088	17594.00000
6.33760	17527.00000
6.35432	17696.00000
6.37104	17701.00000
6.38776	17337.00000
6.40448	17571.00000
6.42120	17482.00000
6.43792	17452.00000
6.45464	17555.00000
6.47136	17394.00000
6.48808	17329.00000
6.50480	17421.00000
6.52152	17208.00000
6.53824	17326.00000
6.55496	17273.00000
6.57168	17297.00000
6.58840	17537.00000
6.60512	17595.00000
6.62184	17411.00000
6.63856	17318.00000
6.65528	17238.00000
6.67200	17503.00000
6.68872	17522.00000
6.70544	17258.00000
6.72216	17367.00000
6.73888	17312.00000
6.75560	17231.00000
6.77232	17188.00000
6.78904	17359.00000
6.80576	17481.00000
6.82248	17246.00000
6.83920	17255.00000
6.85592	17497.00000
6.87264	17398.00000
6.88936	17590.00000
6.90608	17522.00000
6.92280	17486.00000
6.93952	17586.00000
6.95624	17962.00000
6.97296	17575.00000
6.98968	17920.00000
7.00640	17835.00000
7.02312	17802.00000
7.03984	18023.00000
7.05656	18061.00000
7.07328	18264.00000
7.09000	18016.00000
7.10672	18181.00000
7.12344	18222.00000
7.14016	18600.00000
7.15688	18722.00000
7.17360	19099.00000
7.19032	19402.00000
7.20704	19527.00000
7.22376	19854.00000
7.24048	20434.00000
7.25720	20880.00000
7.27392	21510.00000
7.29064	22442.00000
7.30736	23087.00000
7.32408	24849.00000
7.34080	26301.00000
7.35752	28054.00000
7.37424	29787.00000
7.39096	30818.00000
7.40768	30360.00000
7.42440	28310.00000
7.44112	25736.00000
7.45784	22955.00000
7.47456	20956.00000
7.49128	20130.00000
7.50800	19332.00000
7.52472	19511.00000
7.54144	19799.00000
7.55816	20055.00000
7.57488	20401.00000
7.59160	20286.00000
7.60832	19912.00000
7.62504	19402.00000
7.64176	18485.00000
7.65848	18035.00000
7.67520	18277.00000
7.69192	17880.00000
7.70864	18067.00000
7.72536	17963.00000
7.74208	17902.00000
7.75880	17631.00000
7.77552	17799.00000
7.79224	17701.00000
7.80896	17919.00000
7.82568	17621.00000
7.84240	17903.00000
7.85912	17646.00000
7.87584	17803.00000
7.89256	17721.00000
7.90928	17721.00000
7.92600	17353.00000
7.94272	17758.00000
7.95944	17599.00000
7.97616	17634.00000
7.99288	17706.00000
8.00960	17575.00000
8.02632	17630.00000
8.04304	17388.00000
8.05976	17620.00000
8.07648	17482.00000
8.09320	17586.00000
8.10992	17657.00000
8.12664	17705.00000
8.14336	17735.00000
8.16008	17741.00000
8.17680	17639.00000
8.19352	17503.00000
8.21024	17753.00000
8.22696	17601.00000
8.24368	17737.00000
8.26040	17690.00000
8.27712	17508.00000
8.29384	17797.00000
8.31056	17587.00000
8.32728	17589.00000
8.34400	17744.00000
8.36072	17526.00000
8.37744	17666.00000
8.39416	17722.00000
8.41088	17733.00000
8.42760	17724.00000
8.44432	18064.00000
8.46104	17791.00000
8.47776	17836.00000
8.49448	17958.00000
8.51120	17962.00000
8.52792	17897.00000
8.54464	17926.00000
8.56136	17747.00000
8.57808	17721.00000
8.59480	17847.00000
8.61152	17926.00000
8.62824	17816.00000
8.64496	18002.00000
8.66168	17941.00000
8.67840	18141.00000
8.69512	18189.00000
8.71184	17959.00000
8.72856	18180.00000
8.74528	18106.00000
8.76200	18204.00000
8.77872	18355.00000
8.79544	18286.00000
8.81216	18275.00000
8.82888	18264.00000
8.84560	18671.00000
8.86232	18346.00000
8.87904	18621.00000
8.89576	18596.00000
8.91248	18733.00000
8.92920	19173.00000
8.94592	19172.00000
8.96264	19312.00000
8.97936	19390.00000
8.99608	19682.00000
9.01280	19915.00000
9.02952	20091.00000
9.04624	20537.00000
9.06296	20759.00000
9.07968	21455.00000
9.09640	22088.00000
9.11312	22987.00000
9.12984	23116.00000
9.14656	24154.00000
9.16328	25342.00000
9.18000	26565.00000
9.19672	27698.00000
9.21344	29138.00000
9.23016	30940.00000
9.24688	33842.00000
9.26360	36550.00000
9.28032	39967.00000
9.29704	44192.00000
9.31376	50374.00000
9.33048	57564.00000
9.34720	67059.00000
9.36392	77739.00000
9.38064	89065.00000
9.39736	96917.00000
9.41408	98363.00000
9.43080	90608.00000
9.44752	76794.00000
9.46424	60290.00000
9.48096	45949.00000
9.49768	35840.00000
9.51440	30292.00000
9.53112	27633.00000
9.54784	26273.00000
9.56456	25754.00000
9.58128	25659.00000
9.59800	26085.00000
9.61472	26250.00000
9.63144	26978.00000
9.64816	27592.00000
9.66488	28736.00000
9.68160	30484.00000
9.69832	31688.00000
9.71504	33410.00000
9.73176	35889.00000
9.74848	38557.00000
9.76520	42270.00000
9.78192	46762.00000
9.79864	51010.00000
9.81536	57365.00000
9.83208	65272.00000
9.84880	75708.00000
9.86552	89193.00000
9.88224	107568.00000
9.89896	130732.00000
9.91568	157376.00000
9.93240	176895.00000
9.94912	182300.00000
9.96584	165755.00000
9.98256	133775.00000
9.99928	96058.00000
10.01600	64574.00000
10.03272	44138.00000
10.04944	33741.00000
10.06616	28774.00000
10.08288	26447.00000
10.09960	24795.00000
10.11632	24154.00000
10.13304	23398.00000
10.14976	22646.00000
10.16648	22503.00000
10.18320	22077.00000
10.19992	21864.00000
10.21664	21871.00000
10.23336	21602.00000
10.25008	21643.00000
10.26680	21055.00000
10.28352	21131.00000
10.30024	21071.00000
10.31696	20815.00000
10.33368	20730.00000
10.35040	21018.00000
10.36712	20374.00000
10.38384	20520.00000
10.40056	20678.00000
10.41728	20232.00000
10.43400	20371.00000
10.45072	20568.00000
10.46744	20413.00000
10.48416	20300.00000
10.50088	20321.00000
10.51760	20246.00000
10.53432	20565.00000
10.55104	20416.00000
10.56776	20660.00000
10.58448	20417.00000
10.60120	20310.00000
10.61792	20416.00000
10.63464	20248.00000
10.65136	20283.00000
10.66808	20335.00000
10.68480	20643.00000
10.70152	20431.00000
10.71824	20425.00000
10.73496	20480.00000
10.75168	20312.00000
10.76840	20744.00000
10.78512	20706.00000
10.80184	20351.00000
10.81856	20517.00000
10.83528	20545.00000
10.85200	20738.00000
10.86872	20730.00000
10.88544	20560.00000
10.90216	20671.00000
10.91888	20703.00000
10.93560	20760.00000
10.95232	20716.00000
10.96904	20898.00000
10.98576	21228.00000
11.00248	21108.00000
11.01920	21542.00000
11.03592	21246.00000
11.05264	21024.00000
11.06936	21125.00000
11.08608	21289.00000
11.10280	21444.00000
11.11952	22066.00000
11.13624	21742.00000
11.15296	21990.00000
11.16968	21982.00000
11.18640	22512.00000
11.20312	22712.00000
11.21984	23089.00000
11.23656	23228.00000
11.25328	23858.00000
11.27000	24390.00000
11.28672	24916.00000
11.30344	25577.00000
11.32016	26741.00000
11.33688	27841.00000
11.35360	29154.00000
11.37032	30713.00000
11.38704	32984.00000
11.40376	35542.00000
11.42048	38194.00000
11.43720	42090.00000
11.45392	47045.00000
11.47064	53517.00000
11.48736	62021.00000
11.50408	70693.00000
11.52080	76198.00000
11.53752	77391.00000
11.55424	71605.00000
11.57096	61991.00000
11.58768	49981.00000
11.60440	39627.00000
11.62112	32183.00000
11.63784	28614.00000
11.65456	26396.00000
11.67128	25464.00000
11.68800	25052.00000
11.70472	24503.00000
11.72144	24162.00000
11.73816	23966.00000
11.75488	23666.00000
11.77160	23389.00000
11.78832	23513.00000
11.80504	23560.00000
11.82176	23611.00000
11.83848	23285.00000
11.85520	23489.00000
11.87192	23433.00000
11.88864	23436.00000
11.90536	23410.00000
11.92208	23348.00000
11.93880	23447.00000
11.95552	23218.00000
11.97224	23351.00000
11.98896	23451.00000
12.00568	23307.00000
12.02240	23703.00000
12.03912	23400.00000
12.05584	23500.00000
12.07256	23301.00000
12.08928	23619.00000
12.10600	23571.00000
12.12272	23789.00000
12.13944	23812.00000
12.15616	23574.00000
12.17288	23681.00000
12.18960	23670.00000
12.20632	23434.00000
12.22304	23742.00000
12.23976	23736.00000
12.25648	23976.00000
12.27320	23974.00000
12.28992	24090.00000
12.30664	23864.00000
12.32336	23658.00000
12.34008	24073.00000
12.35680	23904.00000
12.37352	24250.00000
12.39024	24106.00000
12.40696	24068.00000
12.42368	24087.00000
12.44040	23932.00000
12.45712	24321.00000
12.47384	24289.00000
12.49056	24292.00000
12.50728	24514.00000
12.52400	24494.00000
12.54072	24349.00000
12.55744	24553.00000
12.57416	24618.00000
12.59088	24626.00000
12.60760	24749.00000
12.62432	24518.00000
12.64104	25014.00000
12.65776	24735.00000
12.67448	24536.00000
12.69120	25163.00000
12.70792	24992.00000
12.72464	24759.00000
12.74136	24670.00000
12.75808	25004.00000
12.77480	25519.00000
12.79152	25286.00000
12.80824	25727.00000
12.82496	25685.00000
12.84168	25691.00000
12.85840	25840.00000
12.87512	25907.00000
12.89184	26129.00000
12.90856	26289.00000
12.92528	26588.00000
12.94200	27271.00000
12.95872	27381.00000
12.97544	28028.00000
12.99216	28235.00000
13.00888	28538.00000
13.02560	29048.00000
13.04232	30212.00000
13.05904	30478.00000
13.07576	31771.00000
13.09248	33492.00000
13.10920	35426.00000
13.12592	37659.00000
13.14264	41085.00000
13.15936	44873.00000
13.17608	49930.00000
13.19280	55658.00000
13.20952	62741.00000
13.22624	71489.00000
13.24296	84102.00000
13.25968	98970.00000
13.27640	114921.00000
13.29312	128299.00000
13.30984	132980.00000
13.32656	127870.00000
13.34328	111714.00000
13.36000	89733.00000
13.37672	68683.00000
13.39344	53108.00000
13.41016	43079.00000
13.42688	36561.00000
13.44360	33008.00000
13.46032	30842.00000
13.47704	29565.00000
13.49376	29367.00000
13.51048	28618.00000
13.52720	27842.00000
13.54392	27810.00000
13.56064	27191.00000
13.57736	27325.00000
13.59408	27186.00000
13.61080	26926.00000
13.62752	26771.00000
13.64424	26514.00000
13.66096	26924.00000
13.67768	26688.00000
13.69440	26764.00000
13.71112	26553.00000
13.72784	26769.00000
13.74456	26936.00000
13.76128	27091.00000
13.77800	27229.00000
13.79472	27556.00000
13.81144	28003.00000
13.82816	28014.00000
13.84488	28078.00000
13.86160	28538.00000
13.87832	28841.00000
13.89504	29216.00000
13.91176	29866.00000
13.92848	30707.00000
13.94520	31688.00000
13.96192	33255.00000
13.97864	35129.00000
13.99536	36735.00000
14.01208	39576.00000
14.02880	42945.00000
14.04552	46660.00000
14.06224	50399.00000
14.07896	53652.00000
14.09568	56432.00000
14.11240	57258.00000
14.12912	56672.00000
14.14584	53952.00000
14.16256	48611.00000
14.17928	43770.00000
14.19600	38791.00000
14.21272	34052.00000
14.22944	31374.00000
14.24616	29073.00000
14.26288	27763.00000
14.27960	26807.00000
14.29632	26290.00000
14.31304	25722.00000
14.32976	25557.00000
14.34648	25685.00000
14.36320	25136.00000
14.37992	25036.00000
14.39664	24876.00000
14.41336	24933.00000
14.43008	24806.00000
14.44680	24685.00000
14.46352	24538.00000
14.48024	24573.00000
14.49696	24563.00000
14.51368	24676.00000
14.53040	24491.00000
14.54712	24688.00000
14.56384	24294.00000
14.58056	24351.00000
14.59728	24436.00000
14.61400	24491.00000
14.63072	24671.00000
14.64744	24803.00000
14.66416	24489.00000
14.68088	24733.00000
14.69760	25229.00000
14.71432	25406.00000
14.73104	25316.00000
14.74776	25992.00000
14.76448	26425.00000
14.78120	26696.00000
14.79792	27141.00000
14.81464	27250.00000
14.83136	27826.00000
14.84808	28464.00000
14.86480	28027.00000
14.88152	28059.00000
14.89824	27517.00000
14.91496	27043.00000
14.93168	26326.00000
14.94840	25379.00000
14.96512	25097.00000
14.98184	24561.00000
14.99856	24750.00000
15.01528	24296.00000
15.03200	24677.00000
15.04872	24276.00000
15.06544	24412.00000
15.08216	24768.00000
15.09888	24306.00000
15.11560	24494.00000
15.13232	25181.00000
15.14904	25220.00000
15.16576	25271.00000
15.18248	25883.00000
15.19920	26554.00000
15.21592	27526.00000
15.23264	27841.00000
15.24936	28446.00000
15.26608	28860.00000
15.28280	28761.00000
15.29952	28728.00000
15.31624	28722.00000
15.33296	28711.00000
15.34968	29192.00000
15.36640	30085.00000
15.38312	31180.00000
15.39984	32942.00000
15.41656	35715.00000
15.43328	38508.00000
15.45000	42835.00000
15.46672	47623.00000
15.48344	54129.00000
15.50016	62062.00000
15.51688	72620.00000
15.53360	85902.00000
15.55032	101992.00000
15.56704	119264.00000
15.58376	137232.00000
15.60048	152064.00000
15.61720	161020.00000
15.63392	159976.00000
15.65064	150302.00000
15.66736	131550.00000
15.68408	109276.00000
15.70080	87166.00000
15.71752	68019.00000
15.73424	52857.00000
15.75096	43548.00000
15.76768	37514.00000
15.78440	33735.00000
15.80112	31306.00000
15.81784	29748.00000
15.83456	28828.00000
15.85128	28600.00000
15.86800	28024.00000
15.88472	27761.00000
15.90144	27451.00000
15.91816	26876.00000
15.93488	26603.00000
15.95160	25817.00000
15.96832	25376.00000
15.98504	24971.00000
16.00176	24137.00000
16.01848	23839.00000
16.03520	23710.00000
16.05192	23645.00000
16.06864	23713.00000
16.08536	23295.00000
16.10208	23372.00000
16.11880	23443.00000
16.13552	23584.00000
16.15224	23651.00000
16.16896	23757.00000
16.18568	24232.00000
16.20240	24536.00000
16.21912	25572.00000
16.23584	26072.00000
16.25256	27623.00000
16.26928	28999.00000
16.28600	31095.00000
16.30272	33317.00000
16.31944	35245.00000
16.33616	36313.00000
16.35288	36684.00000
16.36960	35118.00000
16.38632	32916.00000
16.40304	30105.00000
16.41976	27108.00000
16.43648	25209.00000
16.45320	23561.00000
16.46992	22782.00000
16.48664	22461.00000
16.50336	22160.00000
16.52008	21860.00000
16.53680	21581.00000
16.55352	21445.00000
16.57024	21328.00000
16.58696	21196.00000
16.60368	21167.00000
16.62040	21424.00000
16.63712	20826.00000
16.65384	21124.00000
16.67056	21108.00000
16.68728	21050.00000
16.70400	20967.00000
16.72072	20808.00000
16.73744	20808.00000
16.75416	20981.00000
16.77088	20591.00000
16.78760	20443.00000
16.80432	20716.00000
16.82104	20651.00000
16.83776	20607.00000
16.85448	20890.00000
16.87120	20621.00000
16.88792	20858.00000
16.90464	20768.00000
16.92136	20650.00000
16.93808	20717.00000
16.95480	20776.00000
16.97152	20760.00000
16.98824	20736.00000
17.00496	20920.00000
17.02168	21089.00000
17.03840	21050.00000
17.05512	21105.00000
17.07184	21106.00000
17.08856	21425.00000
17.10528	21774.00000
17.12200	21968.00000
17.13872	22061.00000
17.15544	22860.00000
17.17216	23371.00000
17.18888	24368.00000
17.20560	24921.00000
17.22232	25918.00000
17.23904	27294.00000
17.25576	28937.00000
17.27248	31060.00000
17.28920	33180.00000
17.30592	35368.00000
17.32264	38690.00000
17.33936	41308.00000
17.35608	44018.00000
17.37280	45986.00000
17.38952	46856.00000
17.40624	46044.00000
17.42296	43208.00000
17.43968	40458.00000
17.45640	36875.00000
17.47312	32405.00000
17.48984	29302.00000
17.50656	26785.00000
17.52328	24492.00000
17.54000	23695.00000
17.55672	22883.00000
17.57344	22043.00000
17.59016	22360.00000
17.60688	21593.00000
17.62360	21829.00000
17.64032	21779.00000
17.65704	21369.00000
17.67376	21741.00000
17.69048	21566.00000
17.70720	21780.00000
17.72392	21821.00000
17.74064	22435.00000
17.75736	22567.00000
17.77408	23068.00000
17.79080	23570.00000
17.80752	23915.00000
17.82424	23904.00000
17.84096	23926.00000
17.85768	23732.00000
17.87440	23568.00000
17.89112	22618.00000
17.90784	22350.00000
17.92456	21632.00000
17.94128	20972.00000
17.95800	20474.00000
17.97472	20355.00000
17.99144	20104.00000
18.00816	19801.00000
18.02488	20111.00000
18.04160	19460.00000
18.05832	19627.00000
18.07504	19427.00000
18.09176	19311.00000
18.10848	19435.00000
18.12520	18859.00000
18.14192	19325.00000
18.15864	19276.00000
18.17536	19044.00000
18.19208	19050.00000
18.20880	19125.00000
18.22552	19034.00000
18.24224	18892.00000
18.25896	19002.00000
18.27568	18965.00000
18.29240	18993.00000
18.30912	19120.00000
18.32584	19006.00000
18.34256	19155.00000
18.35928	19516.00000
18.37600	19384.00000
18.39272	19539.00000
18.40944	19813.00000
18.42616	20099.00000
18.44288	20462.00000
18.45960	20638.00000
18.47632	21065.00000
18.49304	21267.00000
18.50976	21512.00000
18.52648	21537.00000
18.54320	21411.00000
18.55992	21495.00000
18.57664	21332.00000
18.59336	21345.00000
18.61008	21254.00000
18.62680	21189.00000
18.64352	21006.00000
18.66024	21045.00000
18.67696	21153.00000
18.69368	20962.00000
18.71040	20847.00000
18.72712	20596.00000
18.74384	20340.00000
18.76056	19638.00000
18.77728	19784.00000
18.79400	19406.00000
18.81072	19050.00000
18.82744	18991.00000
18.84416	18581.00000
18.86088	18925.00000
18.87760	18402.00000
18.89432	18739.00000
18.91104	18468.00000
18.92776	18720.00000
18.94448	18749.00000
18.96120	19028.00000
18.97792	18885.00000
18.99464	18867.00000
19.01136	18889.00000
19.02808	18869.00000
19.04480	18951.00000
19.06152	18952.00000
19.07824	18861.00000
19.09496	19072.00000
19.11168	19013.00000
19.12840	18797.00000
19.14512	18494.00000
19.16184	18251.00000
19.17856	18592.00000
19.19528	18251.00000
19.21200	18531.00000
19.22872	18556.00000
19.24544	18505.00000
19.26216	18449.00000
19.27888	18694.00000
19.29560	18904.00000
19.31232	19044.00000
19.32904	19449.00000
19.34576	19764.00000
19.36248	20192.00000
19.37920	20568.00000
19.39592	21614.00000
19.41264	22417.00000
19.42936	23295.00000
19.44608	23978.00000
19.46280	24448.00000
19.47952	24166.00000
19.49624	23811.00000
19.51296	23000.00000
19.52968	22284.00000
19.54640	21615.00000
19.56312	21089.00000
19.57984	20907.00000
19.59656	20633.00000
19.61328	20844.00000
19.63000	21754.00000
19.64672	22794.00000
19.66344	23802.00000
19.68016	24897.00000
19.69688	26792.00000
19.71360	28836.00000
19.73032	30440.00000
19.74704	32964.00000
19.76376	34773.00000
19.78048	36489.00000
19.79720	37013.00000
19.81392	37390.00000
19.83064	36154.00000
19.84736	34606.00000
19.86408	32458.00000
19.88080	30842.00000
19.89752	28807.00000
19.91424	27953.00000
19.93096	28108.00000
19.94768	28599.00000
19.96440	29438.00000
19.98112	30851.00000
19.99784	32353.00000
20.01456	33633.00000
20.03128	33922.00000
20.04800	33372.00000
20.06472	31779.00000
20.08144	30555.00000
20.09816	28945.00000
20.11488	27301.00000
20.13160	25384.00000
20.14832	24034.00000
20.16504	23167.00000
20.18176	22307.00000
20.19848	21717.00000
20.21520	21353.00000
20.23192	21145.00000
20.24864	20975.00000
20.26536	21451.00000
20.28208	22159.00000
20.29880	22985.00000
20.31552	23846.00000
20.33224	25475.00000
20.34896	27491.00000
20.36568	28744.00000
20.38240	30045.00000
20.39912	30737.00000
20.41584	30496.00000
20.43256	29859.00000
20.44928	29266.00000
20.46600	28394.00000
20.48272	28446.00000
20.49944	28708.00000
20.51616	29046.00000
20.53288	30404.00000
20.54960	31072.00000
20.56632	31942.00000
20.58304	32489.00000
20.59976	32755.00000
20.61648	31681.00000
20.63320	30978.00000
20.64992	29644.00000
20.66664	27355.00000
20.68336	25894.00000
20.70008	23837.00000
20.71680	21902.00000
20.73352	21166.00000
20.75024	20142.00000
20.76696	19470.00000
20.78368	18846.00000
20.80040	18744.00000
20.81712	18297.00000
20.83384	18099.00000
20.85056	17992.00000
20.86728	17558.00000
20.88400	17602.00000
20.90072	17286.00000
20.91744	17382.00000
20.93416	17158.00000
20.95088	17200.00000
20.96760	16969.00000
20.98432	17330.00000
21.00104	16978.00000
21.01776	17213.00000
21.03448	16797.00000
21.05120	16893.00000
21.06792	16794.00000
21.08464	16800.00000
21.10136	16980.00000
21.11808	16753.00000
21.13480	16696.00000
21.15152	16851.00000
21.16824	16547.00000
21.18496	16996.00000
21.20168	16899.00000
21.21840	16919.00000
21.23512	16805.00000
21.25184	17060.00000
21.26856	16890.00000
21.28528	16930.00000
21.30200	17187.00000
21.31872	16990.00000
21.33544	17257.00000
21.35216	16847.00000
21.36888	17121.00000
21.38560	17381.00000
21.40232	17421.00000
21.41904	17331.00000
21.43576	17709.00000
21.45248	17694.00000
21.46920	17843.00000
21.48592	17742.00000
21.50264	18010.00000
21.51936	18223.00000
21.53608	18556.00000
21.55280	18975.00000
21.56952	19154.00000
21.58624	19812.00000
21.60296	20273.00000
21.61968	20714.00000
21.63640	21378.00000
21.65312	22234.00000
21.66984	22572.00000
21.68656	23211.00000
21.70328	24070.00000
21.72000	24855.00000
21.73672	25824.00000
21.75344	26846.00000
21.77016	28120.00000
21.78688	29378.00000
21.80360	31451.00000
21.82032	33886.00000
21.83704	37559.00000
21.85376	42208.00000
21.87048	48506.00000
21.88720	57005.00000
21.90392	67566.00000
21.92064	79660.00000
21.93736	92518.00000
21.95408	104401.00000
21.97080	112081.00000
21.98752	115221.00000
22.00424	112245.00000
22.02096	103552.00000
22.03768	91796.00000
22.05440	77741.00000
22.07112	64638.00000
22.08784	53691.00000
22.10456	45206.00000
22.12128	39669.00000
22.13800	36685.00000
22.15472	35663.00000
22.17144	35149.00000
22.18816	34871.00000
22.20488	35629.00000
22.22160	36044.00000
22.23832	36156.00000
22.25504	36398.00000
22.27176	35715.00000
22.28848	35451.00000
22.30520	34129.00000
22.32192	32813.00000
22.33864	31520.00000
22.35536	29803.00000
22.37208	28121.00000
22.38880	26297.00000
22.40552	24764.00000
22.42224	23379.00000
22.43896	22582.00000
22.45568	21589.00000
22.47240	20407.00000
22.48912	19471.00000
22.50584	19009.00000
22.52256	18263.00000
22.53928	17727.00000
22.55600	17225.00000
22.57272	17235.00000
22.58944	16727.00000
22.60616	16770.00000
22.62288	16457.00000
22.63960	16013.00000
22.65632	16129.00000
22.67304	15903.00000
22.68976	16214.00000
22.70648	16039.00000
22.72320	15863.00000
22.73992	16095.00000
22.75664	16022.00000
22.77336	16014.00000
22.79008	16203.00000
22.80680	15836.00000
22.82352	16201.00000
22.84024	16532.00000
22.85696	16950.00000
22.87368	16945.00000
22.89040	17359.00000
22.90712	18105.00000
22.92384	18657.00000
22.94056	19359.00000
22.95728	19592.00000
22.97400	20130.00000
22.99072	20368.00000
23.00744	20753.00000
23.02416	20671.00000
23.04088	20104.00000
23.05760	20069.00000
23.07432	19903.00000
23.09104	19754.00000
23.10776	19583.00000
23.12448	19932.00000
23.14120	20238.00000
23.15792	20673.00000
23.17464	21294.00000
23.19136	21920.00000
23.20808	22071.00000
23.22480	22827.00000
23.24152	23332.00000
23.25824	24354.00000
23.27496	24771.00000
23.29168	25559.00000
23.30840	26240.00000
23.32512	26873.00000
23.34184	27531.00000
23.35856	27840.00000
23.37528	28034.00000
23.39200	27961.00000
23.40872	27425.00000
23.42544	26579.00000
23.44216	25460.00000
23.45888	24128.00000
23.47560	22513.00000
23.49232	20799.00000
23.50904	19079.00000
23.52576	17757.00000
23.54248	16774.00000
23.55920	15915.00000
23.57592	15490.00000
23.59264	15060.00000
23.60936	14559.00000
23.62608	14371.00000
23.64280	14349.00000
23.65952	14263.00000
23.67624	14102.00000
23.69296	13851.00000
23.70968	13816.00000
23.72640	13818.00000
23.74312	13530.00000
23.75984	13791.00000
23.77656	13664.00000
23.79328	13637.00000
23.81000	13568.00000
23.82672	13766.00000
23.84344	14066.00000
23.86016	13839.00000
23.87688	13930.00000
23.89360	13744.00000
23.91032	13941.00000
23.92704	13922.00000
23.94376	14172.00000
23.96048	13656.00000
23.97720	13777.00000
23.99392	13601.00000
24.01064	13656.00000
24.02736	13605.00000
24.04408	13362.00000
24.06080	13411.00000
24.07752	13226.00000
24.09424	13198.00000
24.11096	13095.00000
24.12768	13011.00000
24.14440	12976.00000
24.16112	13051.00000
24.17784	12874.00000
24.19456	13009.00000
24.21128	12800.00000
24.22800	13004.00000
24.24472	12950.00000
24.26144	12998.00000
24.27816	12981.00000
24.29488	12949.00000
24.31160	13209.00000
24.32832	13340.00000
24.34504	13590.00000
24.36176	13644.00000
24.37848	13843.00000
24.39520	14331.00000
24.41192	14814.00000
24.42864	15580.00000
24.44536	16563.00000
24.46208	17757.00000
24.47880	19049.00000
24.49552	21734.00000
24.51224	23607.00000
24.52896	26953.00000
24.54568	30473.00000
24.56240	33933.00000
24.57912	37387.00000
24.59584	40129.00000
24.61256	41403.00000
24.62928	41565.00000
24.64600	40030.00000
24.66272	37944.00000
24.67944	34290.00000
24.69616	30705.00000
24.71288	26599.00000
24.72960	23409.00000
24.74632	20682.00000
24.76304	18809.00000
24.77976	17085.00000
24.79648	16233.00000
24.81320	15384.00000
24.82992	14883.00000
24.84664	14441.00000
24.86336	14230.00000
24.88008	14066.00000
24.89680	13863.00000
24.91352	13715.00000
24.93024	13630.00000
24.94696	13839.00000
24.96368	13874.00000
24.98040	13829.00000
24.99712	13892.00000
25.01384	13849.00000
25.03056	13841.00000
25.04728	13890.00000
25.06400	13708.00000
25.08072	13762.00000
25.09744	13234.00000
25.11416	13425.00000
25.13088	12945.00000
25.14760	13054.00000
25.16432	12553.00000
25.18104	12459.00000
25.19776	12138.00000
25.21448	12276.00000
25.23120	11863.00000
25.24792	11814.00000
25.26464	11968.00000
25.28136	11976.00000
25.29808	11900.00000
25.31480	11699.00000
25.33152	11870.00000
25.34824	11724.00000
25.36496	11608.00000
25.38168	11867.00000
25.39840	11908.00000
25.41512	11833.00000
25.43184	11703.00000
25.44856	11616.00000
25.46528	11686.00000
25.48200	11695.00000
25.49872	11648.00000
25.51544	11769.00000
25.53216	11741.00000
25.54888	11535.00000
25.56560	11901.00000
25.58232	12118.00000
25.59904	12012.00000
25.61576	12144.00000
25.63248	12142.00000
25.64920	12216.00000
25.66592	12275.00000
25.68264	12204.00000
25.69936	12207.00000
25.71608	12087.00000
25.73280	11973.00000
25.74952	11923.00000
25.76624	11815.00000
25.78296	11587.00000
25.79968	11670.00000
25.81640	11692.00000
25.83312	11422.00000
25.84984	11402.00000
25.86656	11407.00000
25.88328	11493.00000
25.90000	11416.00000
25.91672	11620.00000
25.93344	11546.00000
25.95016	11622.00000
25.96688	11724.00000
25.98360	11977.00000
26.00032	12083.00000
26.01704	12339.00000
26.03376	12896.00000
26.05048	13082.00000
26.06720	13640.00000
26.08392	14103.00000
26.10064	14840.00000
26.11736	15568.00000
26.13408	15547.00000
26.15080	15981.00000
26.16752	16155.00000
26.18424	16310.00000
26.20096	15981.00000
26.21768	15741.00000
26.23440	15120.00000
26.25112	14420.00000
26.26784	13834.00000
26.28456	13488.00000
26.30128	12960.00000
26.31800	12411.00000
26.33472	12335.00000
26.35144	11896.00000
26.36816	11777.00000
26.38488	11772.00000
26.40160	11867.00000
26.41832	11582.00000
26.43504	11784.00000
26.45176	11638.00000
26.46848	11924.00000
26.48520	11807.00000
26.50192	11976.00000
26.51864	12093.00000
26.53536	12016.00000
26.55208	12010.00000
26.56880	12248.00000
26.58552	12233.00000
26.60224	12397.00000
26.61896	12262.00000
26.63568	12402.00000
26.65240	12346.00000
26.66912	12304.00000
26.68584	12643.00000
26.70256	12361.00000
26.71928	12782.00000
26.73600	13067.00000
26.75272	13275.00000
26.76944	13764.00000
26.78616	14326.00000
26.80288	15027.00000
26.81960	15488.00000
26.83632	15748.00000
26.85304	16359.00000
26.86976	16462.00000
26.88648	16316.00000
26.90320	16802.00000
26.91992	16532.00000
26.93664	16519.00000
26.95336	16210.00000
26.97008	16003.00000
26.98680	15686.00000
27.00352	15510.00000
27.02024	15364.00000
27.03696	15148.00000
27.05368	14728.00000
27.07040	14641.00000
27.08712	14485.00000
27.10384	14297.00000
27.12056	14010.00000
27.13728	13907.00000
27.15400	13691.00000
27.17072	13484.00000
27.18744	13409.00000
27.20416	12935.00000
27.22088	12711.00000
27.23760	12713.00000
27.25432	12767.00000
27.27104	12912.00000
27.28776	12874.00000
27.30448	12927.00000
27.32120	13083.00000
27.33792	13333.00000
27.35464	13385.00000
27.37136	13634.00000
27.38808	13527.00000
27.40480	13772.00000
27.42152	13615.00000
27.43824	13764.00000
27.45496	13884.00000
27.47168	13657.00000
27.48840	13911.00000
27.50512	13987.00000
27.52184	13957.00000
27.53856	14198.00000
27.55528	14476.00000
27.57200	14855.00000
27.58872	15208.00000
27.60544	15799.00000
27.62216	16632.00000
27.63888	17797.00000
27.65560	18782.00000
27.67232	19759.00000
27.68904	20621.00000
27.70576	21470.00000
27.72248	21720.00000
27.73920	21865.00000
27.75592	21625.00000
27.77264	21086.00000
27.78936	19749.00000
27.80608	18760.00000
27.82280	17472.00000
27.83952	16078.00000
27.85624	15083.00000
27.87296	14151.00000
27.88968	13633.00000
27.90640	13034.00000
27.92312	12731.00000
27.93984	12440.00000
27.95656	12081.00000
27.97328	11921.00000
27.99000	11745.00000
28.00672	11787.00000
28.02344	11547.00000
28.04016	11438.00000
28.05688	11481.00000
28.07360	11496.00000
28.09032	11484.00000
28.10704	11874.00000
28.12376	11575.00000
28.14048	11776.00000
28.15720	11803.00000
28.17392	11799.00000
28.19064	11941.00000
28.20736	11924.00000
28.22408	12074.00000
28.24080	11731.00000
28.25752	11897.00000
28.27424	11928.00000
28.29096	11684.00000
28.30768	11886.00000
28.32440	11824.00000
28.34112	11902.00000
28.35784	11739.00000
28.37456	11586.00000
28.39128	11924.00000
28.40800	11868.00000
28.42472	12128.00000
28.44144	12140.00000
28.45816	12522.00000
28.47488	12285.00000
28.49160	12602.00000
28.50832	12872.00000
28.52504	12404.00000
28.54176	12728.00000
28.55848	12742.00000
28.57520	12759.00000
28.59192	12584.00000
28.60864	12383.00000
28.62536	12250.00000
28.64208	12074.00000
28.65880	11849.00000
28.67552	11681.00000
28.69224	11756.00000
28.70896	11318.00000
28.72568	11304.00000
28.74240	11222.00000
28.75912	10987.00000
28.77584	11242.00000
28.79256	10928.00000
28.80928	11150.00000
28.82600	11003.00000
28.84272	11339.00000
28.85944	11321.00000
28.87616	11312.00000
28.89288	11623.00000
28.90960	11498.00000
28.92632	11567.00000
28.94304	11633.00000
28.95976	11945.00000
28.97648	11866.00000
28.99320	11704.00000
29.00992	11927.00000
29.02664	11998.00000
29.04336	11740.00000
29.06008	11799.00000
29.07680	11884.00000
29.09352	12113.00000
29.11024	12117.00000
29.12696	12608.00000
29.14368	12552.00000
29.16040	12653.00000
29.17712	13054.00000
29.19384	13398.00000
29.21056	13713.00000
29.22728	14181.00000
29.24400	14576.00000
29.26072	14663.00000
29.27744	15037.00000
29.29416	15478.00000
29.31088	15811.00000
29.32760	15928.00000
29.34432	16006.00000
29.36104	15986.00000
29.37776	16070.00000
29.39448	15768.00000
29.41120	15477.00000
29.42792	15021.00000
29.44464	15188.00000
29.46136	14691.00000
29.47808	14474.00000
29.49480	14283.00000
29.51152	13928.00000
29.52824	13634.00000
29.54496	13581.00000
29.56168	13414.00000
29.57840	13093.00000
29.59512	12940.00000
29.61184	12725.00000
29.62856	12412.00000
29.64528	12236.00000
29.66200	12090.00000
29.67872	11923.00000
29.69544	11666.00000
29.71216	11690.00000
29.72888	11531.00000
29.74560	11218.00000
29.76232	11497.00000
29.77904	11173.00000
29.79576	11269.00000
29.81248	11319.00000
29.82920	11240.00000
29.84592	11483.00000
29.86264	11345.00000
29.87936	11102.00000
29.89608	11335.00000
29.91280	11466.00000
29.92952	11101.00000
29.94624	11293.00000
29.96296	11184.00000
29.97968	11352.00000
29.99640	11402.00000
30.01312	11403.00000
30.02984	11559.00000
30.04656	11695.00000
30.06328	11756.00000
30.08000	11678.00000
30.09672	11677.00000
30.11344	11535.00000
30.13016	11451.00000
30.14688	11821.00000
30.16360	11667.00000
30.18032	11405.00000
30.19704	11548.00000
30.21376	11445.00000
30.23048	11426.00000
30.24720	11343.00000
30.26392	11230.00000
30.28064	11369.00000
30.29736	11145.00000
30.31408	11145.00000
30.33080	11049.00000
30.34752	11044.00000
30.36424	11189.00000
30.38096	11041.00000
30.39768	11160.00000
30.41440	11204.00000
30.43112	11377.00000
30.44784	11607.00000
30.46456	11791.00000
30.48128	11714.00000
30.49800	11774.00000
30.51472	11693.00000
30.53144	11696.00000
30.54816	11164.00000
30.56488	11110.00000
30.58160	11158.00000
30.59832	11025.00000
30.61504	10762.00000
30.63176	10674.00000
30.64848	10955.00000
30.66520	10967.00000
30.68192	10807.00000
30.69864	10816.00000
30.71536	11154.00000
30.73208	11031.00000
30.74880	11168.00000
30.76552	11213.00000
30.78224	11320.00000
30.79896	11510.00000
30.81568	11489.00000
30.83240	11527.00000
30.84912	11488.00000
30.86584	11683.00000
30.88256	11298.00000
30.89928	11341.00000
30.91600	10888.00000
30.93272	10861.00000
30.94944	10762.00000
30.96616	10529.00000
30.98288	10216.00000
30.99960	10117.00000
31.01632	10051.00000
31.03304	9789.00000
31.04976	9899.00000
31.06648	9799.00000
31.08320	9735.00000
31.09992	9834.00000
31.11664	9667.00000
31.13336	9685.00000
31.15008	9711.00000
31.16680	9514.00000
31.18352	9636.00000
31.20024	9655.00000
31.21696	9488.00000
31.23368	9328.00000
31.25040	9512.00000
31.26712	9550.00000
31.28384	9579.00000
31.30056	9709.00000
31.31728	9716.00000
31.33400	9630.00000
31.35072	9796.00000
31.36744	9766.00000
31.38416	9827.00000
31.40088	9758.00000
31.41760	9778.00000
31.43432	9893.00000
31.45104	10187.00000
31.46776	10139.00000
31.48448	10270.00000
31.50120	10251.00000
31.51792	10489.00000
31.53464	10734.00000
31.55136	10628.00000
31.56808	11015.00000
31.58480	10904.00000
31.60152	11233.00000
31.61824	11288.00000
31.63496	11446.00000
31.65168	11380.00000
31.66840	11325.00000
31.68512	11256.00000
31.70184	11212.00000
31.71856	11256.00000
31.73528	11012.00000
31.75200	10717.00000
31.76872	10641.00000
31.78544	10557.00000
31.80216	10297.00000
31.81888	10220.00000
31.83560	10035.00000
31.85232	9841.00000
31.86904	9832.00000
31.88576	9706.00000
31.90248	9821.00000
31.91920	9826.00000
31.93592	9744.00000
31.95264	9517.00000
31.96936	9725.00000
31.98608	9796.00000
32.00280	9673.00000
32.01952	10421.00000
32.03624	10351.00000
32.05296	10650.00000
32.06968	10813.00000
32.08640	11520.00000
32.10312	12201.00000
32.11984	12706.00000
32.13656	13045.00000
32.15328	13774.00000
32.17000	14424.00000
32.18672	14670.00000
32.20344	14881.00000
32.22016	14798.00000
32.23688	14476.00000
32.25360	13704.00000
32.27032	13593.00000
32.28704	12968.00000
32.30376	12349.00000
32.32048	12018.00000
32.33720	11727.00000
32.35392	11440.00000
32.37064	11402.00000
32.38736	10939.00000
32.40408	10694.00000
32.42080	10753.00000
32.43752	10691.00000
32.45424	10456.00000
32.47096	10536.00000
32.48768	10464.00000
32.50440	10089.00000
32.52112	9940.00000
32.53784	9891.00000
32.55456	9737.00000
32.57128	9488.00000
32.58800	9337.00000
32.60472	9350.00000
32.62144	9248.00000
32.63816	9216.00000
32.65488	9144.00000
32.67160	9040.00000
32.68832	9155.00000
32.70504	9019.00000
32.72176	9023.00000
32.73848	8975.00000
32.75520	8936.00000
32.77192	9058.00000
32.78864	9016.00000
32.80536	9081.00000
32.82208	8889.00000
32.83880	9193.00000
32.85552	9015.00000
32.87224	9035.00000
32.88896	8890.00000
32.90568	9201.00000
32.92240	9147.00000
32.93912	9106.00000
32.95584	9201.00000
32.97256	9527.00000
32.98928	9388.00000
33.00600	9468.00000
33.02272	9528.00000
33.03944	9424.00000
33.05616	9400.00000
33.07288	9633.00000
33.08960	9735.00000
33.10632	9528.00000
33.12304	9508.00000
33.13976	9625.00000
33.15648	9398.00000
33.17320	9612.00000
33.18992	9512.00000
33.20664	9350.00000
33.22336	9514.00000
33.24008	9319.00000
33.25680	9170.00000
33.27352	9278.00000
33.29024	9322.00000
33.30696	9552.00000
33.32368	9442.00000
33.34040	10001.00000
33.35712	9869.00000
33.37384	9946.00000
33.39056	10293.00000
33.40728	10587.00000
33.42400	10707.00000
33.44072	10835.00000
33.45744	11054.00000
33.47416	11087.00000
33.49088	11292.00000
33.50760	11277.00000
33.52432	11360.00000
33.54104	10979.00000
33.55776	10728.00000
33.57448	10495.00000
33.59120	10217.00000
33.60792	9866.00000
33.62464	9705.00000
33.64136	9415.00000
33.65808	9372.00000
33.67480	9321.00000
33.69152	8960.00000
33.70824	8782.00000
33.72496	8731.00000
33.74168	8588.00000
33.75840	8882.00000
33.77512	8591.00000
33.79184	8525.00000
33.80856	8678.00000
33.82528	8682.00000
33.84200	8600.00000
33.85872	8489.00000
33.87544	8656.00000
33.89216	8590.00000
33.90888	8711.00000
33.92560	8852.00000
33.94232	8959.00000
33.95904	8971.00000
33.97576	9215.00000
33.99248	9414.00000
34.00920	9714.00000
34.02592	9722.00000
34.04264	10132.00000
34.05936	10196.00000
34.07608	10685.00000
34.09280	10854.00000
34.10952	10847.00000
34.12624	10802.00000
34.14296	10953.00000
34.15968	10665.00000
34.17640	10794.00000
34.19312	10534.00000
34.20984	10672.00000
34.22656	10534.00000
34.24328	10272.00000
34.26000	9947.00000
34.27672	9700.00000
34.29344	9566.00000
34.31016	9369.00000
34.32688	9259.00000
34.34360	9343.00000
34.36032	9186.00000
34.37704	8923.00000
34.39376	8863.00000
34.41048	8828.00000
34.42720	8836.00000
34.44392	8757.00000
34.46064	8791.00000
34.47736	8840.00000
34.49408	8683.00000
34.51080	8659.00000
34.52752	8753.00000
34.54424	8740.00000
34.56096	8618.00000
34.57768	8689.00000
34.59440	8720.00000
34.61112	8863.00000
34.62784	8736.00000
34.64456	8863.00000
34.66128	8749.00000
34.67800	9020.00000
34.69472	8743.00000
34.71144	8657.00000
34.72816	8747.00000
34.74488	8869.00000
34.76160	8902.00000
34.77832	8960.00000
34.79504	9036.00000
34.81176	9150.00000
34.82848	9119.00000
34.84520	9324.00000
34.86192	9500.00000
34.87864	9584.00000
34.89536	9705.00000
34.91208	9768.00000
34.92880	9935.00000
34.94552	10076.00000
34.96224	10341.00000
34.97896	10848.00000
34.99568	11028.00000
35.01240	11326.00000
35.02912	11770.00000
35.04584	12273.00000
35.06256	12666.00000
35.07928	13203.00000
35.09600	13809.00000
35.11272	14064.00000
35.12944	14873.00000
35.14616	14649.00000
35.16288	14878.00000
35.17960	15049.00000
35.19632	14765.00000
35.21304	15046.00000
35.22976	14657.00000
35.24648	13939.00000
35.26320	13502.00000
35.27992	13182.00000
35.29664	12475.00000
35.31336	11823.00000
35.33008	11525.00000
35.34680	11133.00000
35.36352	10668.00000
35.38024	10355.00000
35.39696	10008.00000
35.41368	10092.00000
35.43040	9386.00000
35.44712	9491.00000
35.46384	9566.00000
35.48056	9462.00000
35.49728	9752.00000
35.51400	9493.00000
35.53072	9536.00000
35.54744	9468.00000
35.56416	9756.00000
35.58088	9884.00000
35.59760	9979.00000
35.61432	10153.00000
35.63104	10181.00000
35.64776	10216.00000
35.66448	10061.00000
35.68120	9958.00000
35.69792	9973.00000
35.71464	10017.00000
35.73136	9885.00000
35.74808	9650.00000
35.76480	9508.00000
35.78152	9422.00000
35.79824	8975.00000
35.81496	8877.00000
35.83168	9110.00000
35.84840	8702.00000
35.86512	8578.00000
35.88184	8572.00000
35.89856	8421.00000
35.91528	8394.00000
35.93200	8347.00000
35.94872	7994.00000
35.96544	8052.00000
35.98216	8099.00000
35.99888	7948.00000
36.01560	7974.00000
36.03232	7823.00000
36.04904	7926.00000
36.06576	7994.00000
36.08248	7911.00000
36.09920	7771.00000
36.11592	7812.00000
36.13264	7954.00000
36.14936	7813.00000
36.16608	7991.00000
36.18280	7983.00000
36.19952	7840.00000
36.21624	8002.00000
36.23296	8111.00000
36.24968	8099.00000
36.26640	8111.00000
36.28312	8158.00000
36.29984	7981.00000
36.31656	8386.00000
36.33328	8174.00000
36.35000	8524.00000
36.36672	8663.00000
36.38344	8459.00000
36.40016	8701.00000
36.41688	8649.00000
36.43360	8614.00000
36.45032	8479.00000
36.46704	8701.00000
36.48376	8618.00000
36.50048	8647.00000
36.51720	8458.00000
36.53392	8539.00000
36.55064	8375.00000
36.56736	8440.00000
36.58408	8527.00000
36.60080	8429.00000
36.61752	8493.00000
36.63424	8758.00000
36.65096	8719.00000
36.66768	8891.00000
36.68440	9055.00000
36.70112	9335.00000
36.71784	9471.00000
36.73456	9436.00000
36.75128	9705.00000
36.76800	9746.00000
36.78472	9537.00000
36.80144	9426.00000
36.81816	9327.00000
36.83488	9413.00000
36.85160	8951.00000
36.86832	8956.00000
36.88504	8939.00000
36.90176	8502.00000
36.91848	8435.00000
36.93520	8182.00000
36.95192	8335.00000
36.96864	8084.00000
36.98536	7873.00000
37.00208	7919.00000
37.01880	7835.00000
37.03552	7764.00000
37.05224	7692.00000
37.06896	7580.00000
37.08568	7478.00000
37.10240	7741.00000
37.11912	7497.00000
37.13584	7502.00000
37.15256	7423.00000
37.16928	7695.00000
37.18600	7560.00000
37.20272	7567.00000
37.21944	7476.00000
37.23616	7806.00000
37.25288	7646.00000
37.26960	7624.00000
37.28632	7713.00000
37.30304	7816.00000
37.31976	7699.00000
37.33648	7892.00000
37.35320	8032.00000
37.36992	8040.00000
37.38664	8076.00000
37.40336	8291.00000
37.42008	8238.00000
37.43680	8319.00000
37.45352	8414.00000
37.47024	8614.00000
37.48696	8657.00000
37.50368	8863.00000
37.52040	8837.00000
37.53712	9090.00000
37.55384	9077.00000
37.57056	9191.00000
37.58728	9413.00000
37.60400	9494.00000
37.62072	9568.00000
37.63744	9731.00000
37.65416	9988.00000
37.67088	9856.00000
37.68760	10003.00000
37.70432	10410.00000
37.72104	10367.00000
37.73776	10385.00000
37.75448	10221.00000
37.77120	10595.00000
37.78792	10435.00000
37.80464	10185.00000
37.82136	10431.00000
37.83808	10402.00000
37.85480	10260.00000
37.87152	10121.00000
37.88824	10122.00000
37.90496	9929.00000
37.92168	9985.00000
37.93840	10034.00000
37.95512	9786.00000
37.97184	9783.00000
37.98856	10074.00000
38.00528	9987.00000
38.02200	9953.00000
38.03872	10214.00000
38.05544	10340.00000
38.07216	10538.00000
38.08888	10641.00000
38.10560	10611.00000
38.12232	10676.00000
38.13904	10464.00000
38.15576	10488.00000
38.17248	10538.00000
38.18920	9915.00000
38.20592	10167.00000
38.22264	9933.00000
38.23936	9535.00000
38.25608	9358.00000
38.27280	9192.00000
38.28952	8850.00000
38.30624	8764.00000
38.32296	8694.00000
38.33968	8632.00000
38.35640	8513.00000
38.37312	8400.00000
38.38984	8295.00000
38.40656	8233.00000
38.42328	8188.00000
38.44000	8007.00000
38.45672	8260.00000
38.47344	8157.00000
38.49016	8312.00000
38.50688	8098.00000
38.52360	8085.00000
38.54032	8050.00000
38.55704	7953.00000
38.57376	8034.00000
38.59048	8034.00000
38.60720	7978.00000
38.62392	8066.00000
38.64064	7996.00000
38.65736	8171.00000
38.67408	7820.00000
38.69080	7947.00000
38.70752	7817.00000
38.72424	7903.00000
38.74096	8002.00000
38.75768	7799.00000
38.77440	8030.00000
38.79112	7911.00000
38.80784	8008.00000
38.82456	8078.00000
38.84128	8226.00000
38.85800	8379.00000
38.87472	8285.00000
38.89144	8777.00000
38.90816	8819.00000
38.92488	8936.00000
38.94160	9396.00000
38.95832	9616.00000
38.97504	9640.00000
38.99176	9873.00000
39.00848	10147.00000
39.02520	10011.00000
39.04192	9839.00000
39.05864	9910.00000
39.07536	9706.00000
39.09208	9305.00000
39.10880	9246.00000
39.12552	9103.00000
39.14224	8699.00000
39.15896	8500.00000
39.17568	8243.00000
39.19240	8252.00000
39.20912	7933.00000
39.22584	7918.00000
39.24256	7727.00000
39.25928	7695.00000
39.27600	7621.00000
39.29272	7458.00000
39.30944	7741.00000
39.32616	7542.00000
39.34288	7737.00000
39.35960	7582.00000
39.37632	7618.00000
39.39304	7447.00000
39.40976	7705.00000
39.42648	7661.00000
39.44320	7642.00000
39.45992	7880.00000
39.47664	7799.00000
39.49336	8068.00000
39.51008	8084.00000
39.52680	8305.00000
39.54352	8175.00000
39.56024	8338.00000
39.57696	8552.00000
39.59368	8472.00000
39.61040	8766.00000
39.62712	8651.00000
39.64384	8565.00000
39.66056	8702.00000
39.67728	8711.00000
39.69400	8620.00000
39.71072	8466.00000
39.72744	8433.00000
39.74416	8372.00000
39.76088	8251.00000
39.77760	8220.00000
39.79432	8206.00000
39.81104	8007.00000
39.82776	7993.00000
39.84448	7888.00000
39.86120	7849.00000
39.87792	8059.00000
39.89464	7887.00000
39.91136	8028.00000
39.92808	7917.00000
39.94480	7887.00000
39.96152	7880.00000
39.97824	7910.00000
39.99496	7986.00000
40.01168	7844.00000
40.02840	7781.00000
40.04512	7787.00000
40.06184	7660.00000
40.07856	7682.00000
40.09528	7717.00000
40.11200	7583.00000
40.12872	7619.00000
40.14544	7609.00000
40.16216	7585.00000
40.17888	7702.00000
40.19560	7674.00000
40.21232	7733.00000
40.22904	7853.00000
40.24576	7787.00000
40.26248	7825.00000
40.27920	7858.00000
40.29592	7786.00000
40.31264	7943.00000
40.32936	7995.00000
40.34608	7950.00000
40.36280	7893.00000
40.37952	7875.00000
40.39624	8084.00000
40.41296	7964.00000
40.42968	7865.00000
40.44640	7937.00000
40.46312	7730.00000
40.47984	7807.00000
40.49656	7808.00000
40.51328	8000.00000
40.53000	7967.00000
40.54672	8018.00000
40.56344	7933.00000
40.58016	8189.00000
40.59688	7976.00000
40.61360	8268.00000
40.63032	8335.00000
40.64704	8308.00000
40.66376	8562.00000
40.68048	8403.00000
40.69720	8644.00000
40.71392	8470.00000
40.73064	8610.00000
40.74736	8742.00000
40.76408	8661.00000
40.78080	8841.00000
40.79752	8628.00000
40.81424	8810.00000
40.83096	8688.00000
40.84768	8667.00000
40.86440	8659.00000
40.88112	8676.00000
40.89784	8434.00000
40.91456	8665.00000
40.93128	8402.00000
40.94800	8399.00000
40.96472	8163.00000
40.98144	8321.00000
40.99816	8230.00000
41.01488	8287.00000
41.03160	8131.00000
41.04832	8134.00000
41.06504	7966.00000
41.08176	7784.00000
41.09848	7861.00000
41.11520	7704.00000
41.13192	7729.00000
41.14864	7742.00000
41.16536	7718.00000
41.18208	7736.00000
41.19880	7583.00000
41.21552	7488.00000
41.23224	7561.00000
41.24896	7726.00000
41.26568	7488.00000
41.28240	7509.00000
41.29912	7495.00000
41.31584	7580.00000
41.33256	7489.00000
41.34928	7539.00000
41.36600	7492.00000
41.38272	7689.00000
41.39944	7587.00000
41.41616	7622.00000
41.43288	7814.00000
41.44960	7797.00000
41.46632	7728.00000
41.48304	7952.00000
41.49976	8068.00000
41.51648	8101.00000
41.53320	8372.00000
41.54992	8518.00000
41.56664	8416.00000
41.58336	8717.00000
41.60008	8765.00000
41.61680	8913.00000
41.63352	9005.00000
41.65024	8912.00000
41.66696	9023.00000
41.68368	9023.00000
41.70040	8985.00000
41.71712	8994.00000
41.73384	9092.00000
41.75056	8858.00000
41.76728	8807.00000
41.78400	8631.00000
41.80072	8692.00000
41.81744	8528.00000
41.83416	8643.00000
41.85088	8371.00000
41.86760	8381.00000
41.88432	8284.00000
41.90104	8225.00000
41.91776	8387.00000
41.93448	8350.00000
41.95120	8302.00000
41.96792	8142.00000
41.98464	8238.00000
42.00136	8187.00000
42.01808	8022.00000
42.03480	8078.00000
42.05152	7913.00000
42.06824	7957.00000
42.08496	7882.00000
42.10168	7696.00000
42.11840	7795.00000
42.13512	7614.00000
42.15184	7576.00000
42.16856	7563.00000
42.18528	7678.00000
42.20200	7555.00000
42.21872	7692.00000
42.23544	7566.00000
42.25216	7464.00000
42.26888	7448.00000
42.28560	7587.00000
42.30232	7664.00000
42.31904	7574.00000
42.33576	7668.00000
42.35248	7623.00000
42.36920	7799.00000
42.38592	7776.00000
42.40264	7828.00000
42.41936	7764.00000
42.43608	8141.00000
42.45280	8358.00000
42.46952	8230.00000
42.48624	8320.00000
42.50296	8466.00000
42.51968	8603.00000
42.53640	8712.00000
42.55312	8762.00000
42.56984	8803.00000
42.58656	8891.00000
42.60328	9031.00000
42.62000	8948.00000
42.63672	8867.00000
42.65344	9140.00000
42.67016	9022.00000
42.68688	8783.00000
42.70360	8801.00000
42.72032	8755.00000
42.73704	8584.00000
42.75376	8516.00000
42.77048	8534.00000
42.78720	8372.00000
42.80392	8442.00000
42.82064	8377.00000
42.83736	8504.00000
42.85408	8339.00000
42.87080	8331.00000
42.88752	8386.00000
42.90424	8181.00000
42.92096	8246.00000
42.93768	8199.00000
42.95440	8181.00000
42.97112	7968.00000
42.98784	7930.00000
43.00456	8127.00000
43.02128	7897.00000
43.03800	7935.00000
43.05472	7934.00000
43.07144	7801.00000
43.08816	7921.00000
43.10488	8015.00000
43.12160	7858.00000
43.13832	8044.00000
43.15504	8005.00000
43.17176	8098.00000
43.18848	8334.00000
43.20520	8203.00000
43.22192	8547.00000
43.23864	8490.00000
43.25536	8615.00000
43.27208	8751.00000
43.28880	9051.00000
43.30552	9076.00000
43.32224	9225.00000
43.33896	9366.00000
43.35568	9699.00000
43.37240	9664.00000
43.38912	9797.00000
43.40584	9985.00000
43.42256	9968.00000
43.43928	10272.00000
43.45600	9755.00000
43.47272	9978.00000
43.48944	9660.00000
43.50616	9523.00000
43.52288	9528.00000
43.53960	9044.00000
43.55632	8854.00000
43.57304	8696.00000
43.58976	8430.00000
43.60648	8560.00000
43.62320	8199.00000
43.63992	8164.00000
43.65664	7939.00000
43.67336	7956.00000
43.69008	7667.00000
43.70680	7819.00000
43.72352	7541.00000
43.74024	7787.00000
43.75696	7623.00000
43.77368	7459.00000
43.79040	7681.00000
43.80712	7374.00000
43.82384	7401.00000
43.84056	7629.00000
43.85728	7365.00000
43.87400	7429.00000
43.89072	7425.00000
43.90744	7483.00000
43.92416	7420.00000
43.94088	7642.00000
43.95760	7551.00000
43.97432	7531.00000
43.99104	7432.00000
44.00776	7475.00000
44.02448	7553.00000
44.04120	7834.00000
44.05792	7615.00000
44.07464	7792.00000
44.09136	7816.00000
44.10808	7813.00000
44.12480	7877.00000
44.14152	7928.00000
44.15824	8022.00000
44.17496	8013.00000
44.19168	7978.00000
44.20840	8114.00000
44.22512	8061.00000
44.24184	8117.00000
44.25856	7986.00000
44.27528	8050.00000
44.29200	7789.00000
44.30872	7918.00000
44.32544	7985.00000
44.34216	7945.00000
44.35888	7901.00000
44.37560	7651.00000
44.39232	7923.00000
44.40904	7956.00000
44.42576	7931.00000
44.44248	7958.00000
44.45920	8017.00000
44.47592	8099.00000
44.49264	8243.00000
44.50936	8375.00000
44.52608	8416.00000
44.54280	8506.00000
44.55952	8818.00000
44.57624	8851.00000
44.59296	9146.00000
44.60968	9238.00000
44.62640	9300.00000
44.64312	9529.00000
44.65984	9825.00000
44.67656	9915.00000
44.69328	9919.00000
44.71000	10272.00000
44.72672	10354.00000
44.74344	10456.00000
44.76016	10393.00000
44.77688	10684.00000
44.79360	10694.00000
44.81032	10689.00000
44.82704	10686.00000
44.84376	10831.00000
44.86048	10747.00000
44.87720	10621.00000
44.89392	10373.00000
44.91064	10432.00000
44.92736	10092.00000
44.94408	9821.00000
44.96080	9610.00000
44.97752	9537.00000
44.99424	9339.00000
45.01096	9320.00000
45.02768	9013.00000
45.04440	8745.00000
45.06112	8693.00000
45.07784	8553.00000
45.09456	8320.00000
45.11128	8176.00000
45.12800	8082.00000
45.14472	7993.00000
45.16144	7958.00000
45.17816	7865.00000
45.19488	7728.00000
45.21160	7643.00000
45.22832	7495.00000
45.24504	7513.00000
45.26176	7338.00000
45.27848	7220.00000
45.29520	7198.00000
45.31192	7364.00000
45.32864	7302.00000
45.34536	7244.00000
45.36208	7045.00000
45.37880	6987.00000
45.39552	7074.00000
45.41224	7170.00000
45.42896	6917.00000
45.44568	7088.00000
45.46240	6994.00000
45.47912	6905.00000
45.49584	6932.00000
45.51256	6936.00000
45.52928	6906.00000
45.54600	6847.00000
45.56272	6786.00000
45.57944	6794.00000
45.59616	6808.00000
45.61288	6595.00000
45.62960	6906.00000
45.64632	6917.00000
45.66304	6943.00000
45.67976	6692.00000
45.69648	6823.00000
45.71320	6792.00000
45.72992	6812.00000
45.74664	6660.00000
45.76336	6725.00000
45.78008	6714.00000
45.79680	6644.00000
45.81352	6692.00000
45.83024	6550.00000
45.84696	6637.00000
45.86368	6621.00000
45.88040	6536.00000
45.89712	6606.00000
45.91384	6499.00000
45.93056	6590.00000
45.94728	6533.00000
45.96400	6499.00000
45.98072	6632.00000
45.99744	6606.00000
46.01416	6563.00000
46.03088	6612.00000
46.04760	6699.00000
46.06432	6631.00000
46.08104	6767.00000
46.09776	6735.00000
46.11448	6680.00000
46.13120	6865.00000
46.14792	6877.00000
46.16464	6719.00000
46.18136	6592.00000
46.19808	6527.00000
46.21480	6746.00000
46.23152	6680.00000
46.24824	6570.00000
46.26496	6552.00000
46.28168	6650.00000
46.29840	6680.00000
46.31512	6495.00000
46.33184	6511.00000
46.34856	6702.00000
46.36528	6561.00000
46.38200	6621.00000
46.39872	6557.00000
46.41544	6543.00000
46.43216	6463.00000
46.44888	6522.00000
46.46560	6627.00000
46.48232	6684.00000
46.49904	6493.00000
46.51576	6357.00000
46.53248	6610.00000
46.54920	6518.00000
46.56592	6401.00000
46.58264	6557.00000
46.59936	6552.00000
46.61608	6510.00000
46.63280	6476.00000
46.64952	6510.00000
46.66624	6472.00000
46.68296	6458.00000
46.69968	6537.00000
46.71640	6406.00000
46.73312	6465.00000
46.74984	6471.00000
46.76656	6477.00000
46.78328	6335.00000
46.80000	6407.00000
46.81672	6447.00000
46.83344	6435.00000
46.85016	6476.00000
46.86688	6405.00000
46.88360	6553.00000
46.90032	6455.00000
46.91704	6391.00000
46.93376	6327.00000
46.95048	6542.00000
46.96720	6447.00000
46.98392	6478.00000
47.00064	6542.00000
47.01736	6314.00000
47.03408	6552.00000
47.05080	6354.00000
47.06752	6322.00000
47.08424	6455.00000
47.10096	6304.00000
47.11768	6394.00000
47.13440	6429.00000
47.15112	6378.00000
47.16784	6280.00000
47.18456	6337.00000
47.20128	6352.00000
47.21800	6268.00000
47.23472	6349.00000
47.25144	6301.00000
47.26816	6543.00000
47.28488	6362.00000
47.30160	6376.00000
47.31832	6362.00000
47.33504	6299.00000
47.35176	6469.00000
47.36848	6374.00000
47.38520	6371.00000
47.40192	6577.00000
47.41864	6579.00000
47.43536	6525.00000
47.45208	6696.00000
47.46880	6413.00000
47.48552	6679.00000
47.50224	6575.00000
47.51896	6554.00000
47.53568	6311.00000
47.55240	6369.00000
47.56912	6435.00000
47.58584	6379.00000
47.60256	6556.00000
47.61928	6378.00000
47.63600	6408.00000
47.65272	6476.00000
47.66944	6346.00000
47.68616	6251.00000
47.70288	6453.00000
47.71960	6152.00000
47.73632	6137.00000
47.75304	6159.00000
47.76976	6120.00000
47.78648	6065.00000
47.80320	5909.00000
47.81992	5973.00000
47.83664	6003.00000
47.85336	5947.00000
47.87008	5939.00000
47.88680	5783.00000
47.90352	5900.00000
47.92024	5863.00000
47.93696	5853.00000
47.95368	5891.00000
47.97040	5785.00000
47.98712	5777.00000
48.00384	5774.00000
48.02056	5822.00000
48.03728	5598.00000
48.05400	5623.00000
48.07072	5599.00000
48.08744	5586.00000
48.10416	5609.00000
48.12088	5565.00000
48.13760	5520.00000
48.15432	5400.00000
48.17104	5410.00000
48.18776	5510.00000
48.20448	5504.00000
48.22120	5550.00000
48.23792	5447.00000
48.25464	5457.00000
48.27136	5444.00000
48.28808	5469.00000
48.30480	5373.00000
48.32152	5411.00000
48.33824	5354.00000
48.35496	5561.00000
48.37168	5345.00000
48.38840	5412.00000
48.40512	5397.00000
48.42184	5401.00000
48.43856	5422.00000
48.45528	5358.00000
48.47200	5365.00000
48.48872	5213.00000
48.50544	5490.00000
48.52216	5356.00000
48.53888	5477.00000
48.55560	5499.00000
48.57232	5347.00000
48.58904	5434.00000
48.60576	5504.00000
48.62248	5471.00000
48.63920	5562.00000
48.65592	5527.00000
48.67264	5487.00000
48.68936	5541.00000
48.70608	5407.00000
48.72280	5569.00000
48.73952	5507.00000
48.75624	5373.00000
48.77296	5624.00000
48.78968	5491.00000
48.80640	5498.00000
48.82312	5663.00000
48.83984	5438.00000
48.85656	5499.00000
48.87328	5546.00000
48.89000	5656.00000
48.90672	5444.00000
48.92344	5565.00000
48.94016	5614.00000
48.95688	5529.00000
48.97360	5642.00000
48.99032	5669.00000
49.00704	5549.00000
49.02376	5649.00000
49.04048	5546.00000
49.05720	5652.00000
49.07392	5545.00000
49.09064	5582.00000
49.10736	5694.00000
49.12408	5599.00000
49.14080	5571.00000
49.15752	5591.00000
49.17424	5532.00000
49.19096	5695.00000
49.20768	5641.00000
49.22440	5609.00000
49.24112	5757.00000
49.25784	5761.00000
49.27456	5659.00000
49.29128	5719.00000
49.30800	5789.00000
49.32472	5814.00000
49.34144	5804.00000
49.35816	5963.00000
49.37488	6029.00000
49.39160	5967.00000
49.40832	6008.00000
49.42504	6081.00000
49.44176	5879.00000
49.45848	5973.00000
49.47520	6026.00000
49.49192	5857.00000
49.50864	5891.00000
49.52536	5723.00000
49.54208	5721.00000
49.55880	5950.00000
49.57552	5807.00000
49.59224	5706.00000
49.60896	5618.00000
49.62568	5684.00000
49.64240	5558.00000
49.65912	5519.00000
49.67584	5443.00000
49.69256	5493.00000
49.70928	5405.00000
49.72600	5463.00000
49.74272	5265.00000
49.75944	5430.00000
49.77616	5362.00000
49.79288	5188.00000
49.80960	5303.00000
49.82632	5360.00000
49.84304	5452.00000
49.85976	5357.00000
49.87648	5192.00000
49.89320	5408.00000
49.90992	5421.00000
49.92664	5376.00000
49.94336	5377.00000
49.96008	5490.00000
49.97680	5454.00000
49.99352	5503.00000
50.01024	5362.00000
50.02696	5331.00000
50.04368	5479.00000
50.06040	5356.00000
50.07712	5364.00000
50.09384	5292.00000
50.11056	5415.00000
50.12728	5520.00000
50.14400	5526.00000
50.16072	5556.00000
50.17744	5541.00000
50.19416	5577.00000
50.21088	5657.00000
50.22760	5682.00000
50.24432	5731.00000
50.26104	5878.00000
50.27776	5878.00000
50.29448	5643.00000
50.31120	5901.00000
50.32792	5728.00000
50.34464	5869.00000
50.36136	5991.00000
50.37808	5821.00000
50.39480	6035.00000
50.41152	5984.00000
50.42824	6045.00000
50.44496	5824.00000
50.46168	5978.00000
50.47840	5814.00000
50.49512	5886.00000
50.51184	5864.00000
50.52856	5770.00000
50.54528	5801.00000
50.56200	5892.00000
50.57872	5808.00000
50.59544	5935.00000
50.61216	5818.00000
50.62888	5772.00000
50.64560	5714.00000
50.66232	5564.00000
50.67904	5752.00000
50.69576	5959.00000
50.71248	5768.00000
50.72920	5677.00000
50.74592	5664.00000
50.76264	5664.00000
50.77936	5681.00000
50.79608	5486.00000
50.81280	5558.00000
50.82952	5491.00000
50.84624	5426.00000
50.86296	5430.00000
50.87968	5348.00000
50.89640	5263.00000
50.91312	5239.00000
50.92984	5315.00000
50.94656	5069.00000
50.96328	5264.00000
50.98000	4997.00000
50.99672	5166.00000
51.01344	5103.00000
51.03016	5062.00000
51.04688	5118.00000
51.06360	5047.00000
51.08032	5019.00000
51.09704	5025.00000
51.11376	5038.00000
51.13048	5113.00000
51.14720	5047.00000
51.16392	5026.00000
51.18064	5046.00000
51.19736	5150.00000
51.21408	5092.00000
51.23080	5180.00000
51.24752	5124.00000
51.26424	5122.00000
51.28096	5164.00000
51.29768	5044.00000
51.31440	5176.00000
51.33112	5185.00000
51.34784	5104.00000
51.36456	5096.00000
51.38128	5279.00000
51.39800	5059.00000
51.41472	5137.00000
51.43144	5075.00000
51.44816	5113.00000
51.46488	5067.00000
51.48160	4939.00000
51.49832	5023.00000
51.51504	5030.00000
51.53176	5070.00000
51.54848	4963.00000
51.56520	4943.00000
51.58192	5019.00000
51.59864	5058.00000
51.61536	4974.00000
51.63208	4988.00000
51.64880	5006.00000
51.66552	5022.00000
51.68224	5106.00000
51.69896	5047.00000
51.71568	4908.00000
51.73240	5052.00000
51.74912	4915.00000
51.76584	5022.00000
51.78256	4959.00000
51.79928	5056.00000
51.81600	5075.00000
51.83272	5089.00000
51.84944	5100.00000
51.86616	4948.00000
51.88288	5114.00000
51.89960	5003.00000
51.91632	4998.00000
51.93304	4974.00000
51.94976	5102.00000
51.96648	4975.00000
51.98320	4920.00000
51.99992	4933.00000
52.01664	4950.00000
52.03336	4882.00000
52.05008	4956.00000
52.06680	4966.00000
52.08352	4905.00000
52.10024	4904.00000
52.11696	4955.00000
52.13368	4851.00000
52.15040	4925.00000
52.16712	4910.00000
52.18384	4680.00000
52.20056	4821.00000
52.21728	4818.00000
52.23400	4695.00000
52.25072	4768.00000
52.26744	4588.00000
52.28416	4677.00000
52.30088	4708.00000
52.31760	4669.00000
52.33432	4668.00000
52.35104	4688.00000
52.36776	4708.00000
52.38448	4703.00000
52.40120	4639.00000
52.41792	4662.00000
52.43464	4659.00000
52.45136	4562.00000
52.46808	4519.00000
52.48480	4636.00000
52.50152	4618.00000
52.51824	4480.00000
52.53496	4707.00000
52.55168	4586.00000
52.56840	4693.00000
52.58512	4618.00000
52.60184	4674.00000
52.61856	4689.00000
52.63528	4637.00000
52.65200	4503.00000
52.66872	4764.00000
52.68544	4562.00000
52.70216	4723.00000
52.71888	4648.00000
52.73560	4585.00000
52.75232	4635.00000
52.76904	4590.00000
52.78576	4698.00000
52.80248	4498.00000
52.81920	4626.00000
52.83592	4546.00000
52.85264	4615.00000
52.86936	4753.00000
52.88608	4734.00000
52.90280	4645.00000
52.91952	4686.00000
52.93624	4707.00000
52.95296	4653.00000
52.96968	4680.00000
52.98640	4509.00000
53.00312	4593.00000
53.01984	4533.00000
53.03656	4569.00000
53.05328	4550.00000
53.07000	4430.00000
53.08672	4500.00000
53.10344	4458.00000
53.12016	4511.00000
53.13688	4518.00000
53.15360	4410.00000
53.17032	4385.00000
53.18704	4392.00000
53.20376	4445.00000
53.22048	4475.00000
53.23720	4476.00000
53.25392	4346.00000
53.27064	4377.00000
53.28736	4287.00000
53.30408	4291.00000
53.32080	4393.00000
53.33752	4411.00000
53.35424	4292.00000
53.37096	4301.00000
53.38768	4352.00000
53.40440	4359.00000
53.42112	4319.00000
53.43784	4405.00000
53.45456	4439.00000
53.47128	4501.00000
53.48800	4335.00000
53.50472	4336.00000
53.52144	4340.00000
53.53816	4391.00000
53.55488	4459.00000
53.57160	4447.00000
53.58832	4447.00000
53.60504	4452.00000
53.62176	4464.00000
53.63848	4412.00000
53.65520	4527.00000
53.67192	4415.00000
53.68864	4505.00000
53.70536	4435.00000
53.72208	4483.00000
53.73880	4379.00000
53.75552	4494.00000
53.77224	4487.00000
53.78896	4460.00000
53.80568	4364.00000
53.82240	4584.00000
53.83912	4524.00000
53.85584	4522.00000
53.87256	4455.00000
53.88928	4458.00000
53.90600	4527.00000
53.92272	4428.00000
53.93944	4443.00000
53.95616	4347.00000
53.97288	4504.00000
53.98960	4320.00000
54.00632	4389.00000
54.02304	4445.00000
54.03976	4352.00000
54.05648	4426.00000
54.07320	4372.00000
54.08992	4328.00000
54.10664	4542.00000
54.12336	4397.00000
54.14008	4374.00000
54.15680	4335.00000
54.17352	4437.00000
54.19024	4364.00000
54.20696	4426.00000
54.22368	4485.00000
54.24040	4420.00000
54.25712	4334.00000
54.27384	4368.00000
54.29056	4291.00000
54.30728	4303.00000
54.32400	4340.00000
54.34072	4369.00000
54.35744	4434.00000
54.37416	4438.00000
54.39088	4414.00000
54.40760	4517.00000
54.42432	4346.00000
54.44104	4416.00000
54.45776	4415.00000
54.47448	4382.00000
54.49120	4311.00000
54.50792	4388.00000
54.52464	4354.00000
54.54136	4411.00000
54.55808	4379.00000
54.57480	4457.00000
54.59152	4481.00000
54.60824	4406.00000
54.62496	4344.00000
54.64168	4497.00000
54.65840	4520.00000
54.67512	4587.00000
54.69184	4500.00000
54.70856	4504.00000
54.72528	4523.00000
54.74200	4511.00000
54.75872	4549.00000
54.77544	4700.00000
54.79216	4615.00000
54.80888	4560.00000
54.82560	4549.00000
54.84232	4602.00000
54.85904	4653.00000
54.87576	4520.00000
54.89248	4598.00000
54.90920	4729.00000
54.92592	4573.00000
54.94264	4610.00000
54.95936	4495.00000
54.97608	4675.00000
54.99280	4659.00000
55.00952	4636.00000
55.02624	4721.00000
55.04296	4543.00000
55.05968	4646.00000
55.07640	4604.00000
55.09312	4786.00000
55.10984	4751.00000
55.12656	4699.00000
55.14328	4772.00000
55.16000	4632.00000
55.17672	4710.00000
55.19344	4538.00000
55.21016	4771.00000
55.22688	4648.00000
55.24360	4719.00000
55.26032	4683.00000
55.27704	4564.00000
55.29376	4555.00000
55.31048	4618.00000
55.32720	4569.00000
55.34392	4512.00000
55.36064	4596.00000
55.37736	4472.00000
55.39408	4539.00000
55.41080	4496.00000
55.42752	4441.00000
55.44424	4523.00000
55.46096	4408.00000
55.47768	4339.00000
55.49440	4434.00000
55.51112	4390.00000
55.52784	4433.00000
55.54456	4427.00000
55.56128	4288.00000
55.57800	4360.00000
55.59472	4278.00000
55.61144	4344.00000
55.62816	4184.00000
55.64488	4293.00000
55.66160	4270.00000
55.67832	4392.00000
55.69504	4196.00000
55.71176	4314.00000
55.72848	4226.00000
55.74520	4302.00000
55.76192	4204.00000
55.77864	4253.00000
55.79536	4189.00000
55.81208	4175.00000
55.82880	4209.00000
55.84552	4237.00000
55.86224	4276.00000
55.87896	4136.00000
55.89568	4134.00000
55.91240	4176.00000
55.92912	4208.00000
55.94584	4243.00000
55.96256	4233.00000
55.97928	4136.00000
55.99600	4108.00000
56.01272	4221.00000
56.02944	4173.00000
56.04616	4208.00000
56.06288	4276.00000
56.07960	4293.00000
56.09632	4215.00000
56.11304	4309.00000
56.12976	4286.00000
56.14648	4099.00000
56.16320	4192.00000
56.17992	4387.00000
56.19664	4189.00000
56.21336	4210.00000
56.23008	4219.00000
56.24680	4256.00000
56.26352	4333.00000
56.28024	4326.00000
56.29696	4325.00000
56.31368	4277.00000
56.33040	4258.00000
56.34712	4278.00000
56.36384	4334.00000
56.38056	4344.00000
56.39728	4406.00000
56.41400	4364.00000
56.43072	4350.00000
56.44744	4244.00000
56.46416	4216.00000
56.48088	4240.00000
56.49760	4205.00000
56.51432	4332.00000
56.53104	4351.00000
56.54776	4233.00000
56.56448	4248.00000
56.58120	4307.00000
56.59792	4174.00000
56.61464	4380.00000
56.63136	4273.00000
56.64808	4296.00000
56.66480	4289.00000
56.68152	4263.00000
56.69824	4293.00000
56.71496	4217.00000
56.73168	4182.00000
56.74840	4343.00000
56.76512	4314.00000
56.78184	4258.00000
56.79856	4276.00000
56.81528	4302.00000
56.83200	4391.00000
56.84872	4247.00000
56.86544	4299.00000
56.88216	4290.00000
56.89888	4271.00000
56.91560	4305.00000
56.93232	4261.00000
56.94904	4188.00000
56.96576	4127.00000
56.98248	4171.00000
56.99920	4154.00000
57.01592	4146.00000
57.03264	4185.00000
57.04936	4094.00000
57.06608	4060.00000
57.08280	4178.00000
57.09952	4187.00000
57.11624	4162.00000
57.13296	4283.00000
57.14968	4147.00000
57.16640	4148.00000
57.18312	4108.00000
57.19984	4110.00000
57.21656	4223.00000
57.23328	4087.00000
57.25000	4096.00000
57.26672	4125.00000
57.28344	4177.00000
57.30016	4282.00000
57.31688	4266.00000
57.33360	4152.00000
57.35032	4148.00000
57.36704	4160.00000
57.38376	4054.00000
57.40048	4115.00000
57.41720	4180.00000
57.43392	4146.00000
57.45064	4119.00000
57.46736	4136.00000
57.48408	4292.00000
57.50080	4151.00000
57.51752	4128.00000
57.53424	4067.00000
57.55096	4025.00000
57.56768	4099.00000
57.58440	3997.00000
57.60112	4160.00000
57.61784	4047.00000
57.63456	4081.00000
57.65128	4103.00000
57.66800	4099.00000
57.68472	4244.00000
57.70144	4124.00000
57.71816	4188.00000
57.73488	4121.00000
57.75160	4210.00000
57.76832	4074.00000
57.78504	4155.00000
57.80176	4213.00000
57.81848	4122.00000
57.83520	4081.00000
57.85192	3970.00000
57.86864	4082.00000
57.88536	3952.00000
57.90208	4072.00000
57.91880	3978.00000
57.93552	4036.00000
57.95224	3965.00000
57.96896	3957.00000
57.98568	3909.00000
58.00240	4075.00000
58.01912	3961.00000
58.03584	3875.00000
58.05256	3806.00000
58.06928	3932.00000
58.08600	4100.00000
58.10272	3877.00000
58.11944	3799.00000
58.13616	3940.00000
58.15288	3978.00000
58.16960	3782.00000
58.18632	3998.00000
58.20304	4017.00000
58.21976	4047.00000
58.23648	3944.00000
58.25320	4053.00000
58.26992	3927.00000
58.28664	3936.00000
58.30336	3987.00000
58.32008	4035.00000
58.33680	3961.00000
58.35352	3953.00000
58.37024	4014.00000
58.38696	3912.00000
58.40368	3961.00000
58.42040	4088.00000
58.43712	3974.00000
58.45384	4067.00000
58.47056	4000.00000
58.48728	3979.00000
58.50400	4051.00000
58.52072	3941.00000
58.53744	3923.00000
58.55416	3908.00000
58.57088	4086.00000
58.58760	3974.00000
58.60432	3959.00000
58.62104	3994.00000
58.63776	3964.00000
58.65448	3952.00000
58.67120	4087.00000
58.68792	3889.00000
58.70464	4025.00000
58.72136	4004.00000
58.73808	3838.00000
58.75480	3915.00000
58.77152	3993.00000
58.78824	3972.00000
58.80496	4098.00000
58.82168	4019.00000
58.83840	3995.00000
58.85512	4103.00000
58.87184	4115.00000
58.88856	4054.00000
58.90528	3989.00000
58.92200	4039.00000
58.93872	4080.00000
58.95544	4184.00000
58.97216	4067.00000
58.98888	4073.00000
59.00560	4170.00000
59.02232	4080.00000
59.03904	4098.00000
59.05576	4129.00000
59.07248	4132.00000
59.08920	4037.00000
59.10592	4118.00000
59.12264	3919.00000
59.13936	4040.00000
59.15608	4081.00000
59.17280	4045.00000
59.18952	3935.00000
59.20624	4029.00000
59.22296	4071.00000
59.23968	3960.00000
59.25640	3937.00000
59.27312	4008.00000
59.28984	3874.00000
59.30656	3948.00000
59.32328	3911.00000
59.34000	3792.00000
59.35672	3823.00000
59.37344	3902.00000
59.39016	3752.00000
59.40688	3880.00000
59.42360	3862.00000
59.44032	3723.00000
59.45704	3744.00000
59.47376	3612.00000
59.49048	3828.00000
59.50720	3861.00000
59.52392	3657.00000
59.54064	3882.00000
59.55736	3815.00000
59.57408	3694.00000
59.59080	3781.00000
59.60752	3760.00000
59.62424	3785.00000
59.64096	3794.00000
59.65768	3788.00000
59.67440	3734.00000
59.69112	3802.00000
59.70784	3674.00000
59.72456	3688.00000
59.74128	3640.00000
59.75800	3721.00000
59.77472	3831.00000
59.79144	3704.00000
59.80816	3870.00000
59.82488	3786.00000
59.84160	3603.00000
59.85832	3706.00000
59.87504	3772.00000
59.89176	3629.00000
59.90848	3628.00000
59.92520	3625.00000
59.94192	3608.00000
59.95864	3715.00000
59.97536	3741.00000
59.99208	3645.00000
60.00880	3687.00000
60.02552	3691.00000
60.04224	3660.00000
60.05896	3714.00000
60.07568	3682.00000
60.09240	3704.00000
60.10912	3631.00000
60.12584	3603.00000
60.14256	3741.00000
60.15928	3644.00000
60.17600	3724.00000
60.19272	3676.00000
60.20944	3617.00000
60.22616	3563.00000
60.24288	3684.00000
60.25960	3579.00000
60.27632	3498.00000
60.29304	3547.00000
60.30976	3525.00000
60.32648	3521.00000
60.34320	3527.00000
60.35992	3645.00000
60.37664	3624.00000
60.39336	3683.00000
60.41008	3593.00000
60.42680	3507.00000
60.44352	3595.00000
60.46024	3626.00000
60.47696	3685.00000
60.49368	3578.00000
60.51040	3629.00000
60.52712	3534.00000
60.54384	3605.00000
60.56056	3597.00000
60.57728	3592.00000
60.59400	3599.00000
60.61072	3502.00000
60.62744	3613.00000
60.64416	3751.00000
60.66088	3726.00000
60.67760	3651.00000
60.69432	3591.00000
60.71104	3636.00000
60.72776	3628.00000
60.74448	3745.00000
60.76120	3631.00000
60.77792	3691.00000
60.79464	3661.00000
60.81136	3611.00000
60.82808	3709.00000
60.84480	3591.00000
60.86152	3614.00000
60.87824	3670.00000
60.89496	3718.00000
60.91168	3601.00000
60.92840	3683.00000
60.94512	3554.00000
60.96184	3660.00000
60.97856	3704.00000
60.99528	3712.00000
61.01200	3650.00000
61.02872	3739.00000
61.04544	3621.00000
61.06216	3674.00000
61.07888	3734.00000
61.09560	3713.00000
61.11232	3854.00000
61.12904	3738.00000
61.14576	3621.00000
61.16248	3638.00000
61.17920	3815.00000
61.19592	3724.00000
61.21264	3775.00000
61.22936	3735.00000
61.24608	3676.00000
61.26280	3746.00000
61.27952	3717.00000
61.29624	3670.00000
61.31296	3672.00000
61.32968	3795.00000
61.34640	3736.00000
61.36312	3726.00000
61.37984	3697.00000
61.39656	3722.00000
61.41328	3690.00000
61.43000	3752.00000
61.44672	3783.00000
61.46344	3768.00000
61.48016	3693.00000
61.49688	3516.00000
61.51360	3680.00000
61.53032	3704.00000
61.54704	3617.00000
61.56376	3730.00000
61.58048	3684.00000
61.59720	3574.00000
61.61392	3605.00000
61.63064	3685.00000
61.64736	3526.00000
61.66408	3680.00000
61.68080	3491.00000
61.69752	3707.00000
61.71424	3620.00000
61.73096	3601.00000
61.74768	3564.00000
61.76440	3489.00000
61.78112	3591.00000
61.79784	3552.00000
61.81456	3520.00000
61.83128	3620.00000
61.84800	3596.00000
61.86472	3610.00000
61.88144	3480.00000
61.89816	3541.00000
61.91488	3498.00000
61.93160	3628.00000
61.94832	3561.00000
61.96504	3490.00000
61.98176	3537.00000
61.99848	3483.00000
62.01520	3622.00000
62.03192	3551.00000
62.04864	3503.00000
62.06536	3511.00000
62.08208	3532.00000
62.09880	3592.00000
62.11552	3515.00000
62.13224	3591.00000
62.14896	3502.00000
62.16568	3510.00000
62.18240	3563.00000
62.19912	3537.00000
62.21584	3546.00000
62.23256	3535.00000
62.24928	3588.00000
62.26600	3548.00000
62.28272	3421.00000
62.29944	3391.00000
62.31616	3483.00000
62.33288	3492.00000
62.34960	3420.00000
62.36632	3469.00000
62.38304	3604.00000
62.39976	3460.00000
62.41648	3499.00000
62.43320	3477.00000
62.44992	3630.00000
62.46664	3492.00000
62.48336	3607.00000
62.50008	3426.00000
62.51680	3482.00000
62.53352	3569.00000
62.55024	3478.00000
62.56696	3494.00000
62.58368	3456.00000
62.60040	3472.00000
62.61712	3420.00000
62.63384	3488.00000
62.65056	3352.00000
62.66728	3455.00000
62.68400	3349.00000
62.70072	3421.00000
62.71744	3390.00000
62.73416	3423.00000
62.75088	3402.00000
62.76760	3447.00000
62.78432	3418.00000
62.80104	3390.00000
62.81776	3385.00000
62.83448	3324.00000
62.85120	3476.00000
62.86792	3373.00000
62.88464	3357.00000
62.90136	3399.00000
62.91808	3476.00000
62.93480	3506.00000
62.95152	3485.00000
62.96824	3520.00000
62.98496	3420.00000
63.00168	3450.00000
63.01840	3470.00000
63.03512	3441.00000
63.05184	3559.00000
63.06856	3458.00000
63.08528	3594.00000
63.10200	3552.00000
63.11872	3499.00000
63.13544	3521.00000
63.15216	3502.00000
63.16888	3518.00000
63.18560	3444.00000
63.20232	3402.00000
63.21904	3461.00000
63.23576	3421.00000
63.25248	3370.00000
63.26920	3565.00000
63.28592	3527.00000
63.30264	3487.00000
63.31936	3530.00000
63.33608	3407.00000
63.35280	3500.00000
63.36952	3579.00000
63.38624	3600.00000
63.40296	3525.00000
63.41968	3458.00000
63.43640	3555.00000
63.45312	3529.00000
63.46984	3485.00000
63.48656	3581.00000
63.50328	3468.00000
63.52000	3496.00000
63.53672	3492.00000
63.55344	3494.00000
63.57016	3462.00000
63.58688	3524.00000
63.60360	3584.00000
63.62032	3529.00000
63.63704	3520.00000
63.65376	3429.00000
63.67048	3540.00000
63.68720	3537.00000
63.70392	3432.00000
63.72064	3406.00000
63.73736	3423.00000
63.75408	3470.00000
63.77080	3593.00000
63.78752	3420.00000
63.80424	3453.00000
63.82096	3463.00000
63.83768	3418.00000
63.85440	3444.00000
63.87112	3503.00000
63.88784	3433.00000
63.90456	3419.00000
63.92128	3418.00000
63.93800	3420.00000
63.95472	3417.00000
63.97144	3397.00000
63.98816	3435.00000
64.00488	3370.00000
64.02160	3361.00000
64.03832	3354.00000
64.05504	3521.00000
64.07176	3376.00000
64.08848	3520.00000
64.10520	3439.00000
64.12192	3450.00000
64.13864	3363.00000
64.15536	3510.00000
64.17208	3414.00000
64.18880	3580.00000
64.20552	3541.00000
64.22224	3325.00000
64.23896	3401.00000
64.25568	3410.00000
64.27240	3455.00000
64.28912	3558.00000
64.30584	3526.00000
64.32256	3443.00000
64.33928	3513.00000
64.35600	3475.00000
64.37272	3579.00000
64.38944	3499.00000
64.40616	3518.00000
64.42288	3597.00000
64.43960	3546.00000
64.45632	3410.00000
64.47304	3475.00000
64.48976	3465.00000
64.50648	3445.00000
64.52320	3533.00000
64.53992	3349.00000
64.55664	3301.00000
64.57336	3362.00000
64.59008	3442.00000
64.60680	3483.00000
64.62352	3332.00000
64.64024	3361.00000
64.65696	3317.00000
64.67368	3416.00000
64.69040	3341.00000
64.70712	3392.00000
64.72384	3313.00000
64.74056	3494.00000
64.75728	3425.00000
64.77400	3378.00000
64.79072	3318.00000
64.80744	3364.00000
64.82416	3363.00000
64.84088	3354.00000
64.85760	3335.00000
64.87432	3356.00000
64.89104	3263.00000
64.90776	3426.00000
64.92448	3363.00000
64.94120	3387.00000
64.95792	3374.00000
64.97464	3283.00000
64.99136	3263.00000
65.00808	3305.00000
65.02480	3365.00000
65.04152	3273.00000
65.05824	3308.00000
65.07496	3345.00000
65.09168	3386.00000
65.10840	3387.00000
65.12512	3317.00000
65.14184	3247.00000
65.15856	3432.00000
65.17528	3424.00000
65.19200	3297.00000
65.20872	3284.00000
65.22544	3324.00000
65.24216	3301.00000
65.25888	3290.00000
65.27560	3176.00000
65.29232	3290.00000
65.30904	3324.00000
65.32576	3262.00000
65.34248	3427.00000
65.35920	3316.00000
65.37592	3332.00000
65.39264	3381.00000
65.40936	3301.00000
65.42608	3344.00000
65.44280	3297.00000
65.45952	3370.00000
65.47624	3341.00000
65.49296	3264.00000
65.50968	3307.00000
65.52640	3257.00000
65.54312	3315.00000
65.55984	3285.00000
65.57656	3351.00000
65.59328	3383.00000
65.61000	3312.00000
65.62672	3301.00000
65.64344	3417.00000
65.66016	3280.00000
65.67688	3440.00000
65.69360	3382.00000
65.71032	3471.00000
65.72704	3396.00000
65.74376	3435.00000
65.76048	3439.00000
65.77720	3373.00000
65.79392	3542.00000
65.81064	3483.00000
65.82736	3476.00000
65.84408	3410.00000
65.86080	3361.00000
65.87752	3406.00000
65.89424	3483.00000
65.91096	3476.00000
65.92768	3507.00000
65.94440	3521.00000
65.96112	3430.00000
65.97784	3407.00000
65.99456	3447.00000
66.01128	3470.00000
66.02800	3436.00000
66.04472	3382.00000
66.06144	3388.00000
66.07816	3434.00000
66.09488	3373.00000
66.11160	3418.00000
66.12832	3451.00000
66.14504	3427.00000
66.16176	3339.00000
66.17848	3346.00000
66.19520	3399.00000
66.21192	3398.00000
66.22864	3456.00000
66.24536	3425.00000
66.26208	3392.00000
66.27880	3394.00000
66.29552	3337.00000
66.31224	3407.00000
66.32896	3328.00000
66.34568	3316.00000
66.36240	3302.00000
66.37912	3492.00000
66.39584	3302.00000
66.41256	3275.00000
66.42928	3388.00000
66.44600	3412.00000
66.46272	3312.00000
66.47944	3372.00000
66.49616	3421.00000
66.51288	3434.00000
66.52960	3408.00000
66.54632	3422.00000
66.56304	3364.00000
66.57976	3455.00000
66.59648	3320.00000
66.61320	3409.00000
66.62992	3311.00000
66.64664	3354.00000
66.66336	3396.00000
66.68008	3308.00000
66.69680	3366.00000
66.71352	3329.00000
66.73024	3293.00000
66.74696	3318.00000
66.76368	3247.00000
66.78040	3332.00000
66.79712	3305.00000
66.81384	3273.00000
66.83056	3332.00000
66.84728	3294.00000
66.86400	3253.00000
66.88072	3326.00000
66.89744	3280.00000
66.91416	3326.00000
66.93088	3261.00000
66.94760	3257.00000
66.96432	3265.00000
66.98104	3186.00000
66.99776	3213.00000
67.01448	3299.00000
67.03120	3318.00000
67.04792	3296.00000
67.06464	3346.00000
67.08136	3254.00000
67.09808	3353.00000
67.11480	3289.00000
67.13152	3261.00000
67.14824	3156.00000
67.16496	3340.00000
67.18168	3266.00000
67.19840	3347.00000
67.21512	3374.00000
67.23184	3374.00000
67.24856	3249.00000
67.26528	3295.00000
67.28200	3336.00000
67.29872	3300.00000
67.31544	3409.00000
67.33216	3302.00000
67.34888	3317.00000
67.36560	3336.00000
67.38232	3247.00000
67.39904	3302.00000
67.41576	3282.00000
67.43248	3335.00000
67.44920	3320.00000
67.46592	3283.00000
67.48264	3209.00000
67.49936	3198.00000
67.51608	3319.00000
67.53280	3262.00000
67.54952	3237.00000
67.56624	3324.00000
67.58296	3320.00000
67.59968	3119.00000
67.61640	3222.00000
67.63312	3250.00000
67.64984	3156.00000
67.66656	3353.00000
67.68328	3273.00000
67.70000	3218.00000
67.71672	3226.00000
67.73344	3240.00000
67.75016	3165.00000
67.76688	3215.00000
67.78360	3251.00000
67.80032	3224.00000
67.81704	3301.00000
67.83376	3193.00000
67.85048	3307.00000
67.86720	3176.00000
67.88392	3227.00000
67.90064	3327.00000
67.91736	3200.00000
67.93408	3354.00000
67.95080	3235.00000
67.96752	3303.00000
67.98424	3245.00000
68.00096	3249.00000
68.01768	3226.00000
68.03440	3350.00000
68.05112	3287.00000
68.06784	3319.00000
68.08456	3316.00000
68.10128	3144.00000
68.11800	3174.00000
68.13472	3188.00000
68.15144	3242.00000
68.16816	3299.00000
68.18488	3256.00000
68.20160	3196.00000
68.21832	3204.00000
68.23504	3254.00000
68.25176	3235.00000
68.26848	3200.00000
68.28520	3297.00000
68.30192	3294.00000
68.31864	3241.00000
68.33536	3156.00000
68.35208	3123.00000
68.36880	3215.00000
68.38552	3227.00000
68.40224	3131.00000
68.41896	3109.00000
68.43568	3082.00000
68.45240	3032.00000
68.46912	3225.00000
68.48584	3112.00000
68.50256	3178.00000
68.51928	3100.00000
68.53600	3183.00000
68.55272	3166.00000
68.56944	3110.00000
68.58616	3278.00000
68.60288	3164.00000
68.61960	3094.00000
68.63632	3093.00000
68.65304	3174.00000
68.66976	3106.00000
68.68648	3210.00000
68.70320	3158.00000
68.71992	3280.00000
68.73664	3170.00000
68.75336	3217.00000
68.77008	3279.00000
68.78680	3184.00000
68.80352	3143.00000
68.82024	3239.00000
68.83696	3172.00000
68.85368	3212.00000
68.87040	3241.00000
68.88712	3130.00000
68.90384	3132.00000
68.92056	3107.00000
68.93728	3192.00000
68.95400	3171.00000
68.97072	3193.00000
