8.00000	1733.00000
8.02200	1620.00000
8.04400	1629.00000
8.06600	1599.00000
8.08800	1638.00000
8.11000	1537.00000
8.13200	1504.00000
8.15400	1498.00000
8.17600	1573.00000
8.19800	1481.00000
8.22000	1541.00000
8.24200	1495.00000
8.26400	1426.00000
8.28600	1470.00000
8.30800	1439.00000
8.33000	1497.00000
8.35200	1448.00000
8.37400	1440.00000
8.39600	1404.00000
8.41800	1489.00000
8.44000	1408.00000
8.46200	1374.00000
8.48400	1300.00000
8.50600	1326.00000
8.52800	1305.00000
8.55000	1331.00000
8.57200	1340.00000
8.59400	1308.00000
8.61600	1274.00000
8.63800	1320.00000
8.66000	1330.00000
8.68200	1233.00000
8.70400	1276.00000
8.72600	1256.00000
8.74800	1226.00000
8.77000	1295.00000
8.79200	1312.00000
8.81400	1225.00000
8.83600	1240.00000
8.85800	1220.00000
8.88000	1267.00000
8.90200	1200.00000
8.92400	1281.00000
8.94600	1181.00000
8.96800	1227.00000
8.99000	1203.00000
9.01200	1245.00000
9.03400	1211.00000
9.05600	1232.00000
9.07800	1207.00000
9.10000	1214.00000
9.12200	1246.00000
9.14400	1176.00000
9.16600	1215.00000
9.18800	1161.00000
9.21000	1169.00000
9.23200	1172.00000
9.25400	1228.00000
9.27600	1130.00000
9.29800	1135.00000
9.32000	1175.00000
9.34200	1188.00000
9.36400	1205.00000
9.38600	1175.00000
9.40800	1180.00000
9.43000	1122.00000
9.45200	1187.00000
9.47400	1187.00000
9.49600	1191.00000
9.51800	1113.00000
9.54000	1174.00000
9.56200	1154.00000
9.58400	1098.00000
9.60600	1201.00000
9.62800	1124.00000
9.65000	1170.00000
9.67200	1190.00000
9.69400	1112.00000
9.71600	1118.00000
9.73800	1184.00000
9.76000	1158.00000
9.78200	1136.00000
9.80400	1192.00000
9.82600	1172.00000
9.84800	1123.00000
9.87000	1197.00000
9.89200	1087.00000
9.91400	1178.00000
9.93600	1148.00000
9.95800	1115.00000
9.98000	1151.00000
10.00200	1118.00000
10.02400	1174.00000
10.04600	1161.00000
10.06800	1138.00000
10.09000	1149.00000
10.11200	1115.00000
10.13400	1091.00000
10.15600	1117.00000
10.17800	1133.00000
10.20000	1080.00000
10.22200	1073.00000
10.24400	1137.00000
10.26600	1140.00000
10.28800	1125.00000
10.31000	1134.00000
10.33200	1121.00000
10.35400	1152.00000
10.37600	1169.00000
10.39800	1155.00000
10.42000	1193.00000
10.44200	1186.00000
10.46400	1256.00000
10.48600	1211.00000
10.50800	1251.00000
10.53000	1278.00000
10.55200	1246.00000
10.57400	1313.00000
10.59600	1413.00000
10.61800	1506.00000
10.64000	1802.00000
10.66200	1948.00000
10.68400	2410.00000
10.70600	3124.00000
10.72800	3823.00000
10.75000	4722.00000
10.77200	5561.00000
10.79400	6231.00000
10.81600	6727.00000
10.83800	5796.00000
10.86000	4003.00000
10.88200	2298.00000
10.90400	1468.00000
10.92600	1194.00000
10.94800	1084.00000
10.97000	1083.00000
10.99200	1039.00000
11.01400	1029.00000
11.03600	1011.00000
11.05800	1030.00000
11.08000	956.00000
11.10200	927.00000
11.12400	968.00000
11.14600	1040.00000
11.16800	964.00000
11.19000	960.00000
11.21200	955.00000
11.23400	969.00000
11.25600	926.00000
11.27800	914.00000
11.30000	944.00000
11.32200	986.00000
11.34400	929.00000
11.36600	1019.00000
11.38800	918.00000
11.41000	912.00000
11.43200	946.00000
11.45400	938.00000
11.47600	891.00000
11.49800	980.00000
11.52000	943.00000
11.54200	969.00000
11.56400	942.00000
11.58600	899.00000
11.60800	901.00000
11.63000	931.00000
11.65200	882.00000
11.67400	884.00000
11.69600	882.00000
11.71800	898.00000
11.74000	934.00000
11.76200	861.00000
11.78400	901.00000
11.80600	848.00000
11.82800	893.00000
11.85000	879.00000
11.87200	880.00000
11.89400	867.00000
11.91600	863.00000
11.93800	882.00000
11.96000	894.00000
11.98200	939.00000
12.00400	878.00000
12.02600	867.00000
12.04800	849.00000
12.07000	901.00000
12.09200	875.00000
12.11400	889.00000
12.13600	859.00000
12.15800	882.00000
12.18000	831.00000
12.20200	851.00000
12.22400	888.00000
12.24600	879.00000
12.26800	875.00000
12.29000	857.00000
12.31200	839.00000
12.33400	836.00000
12.35600	841.00000
12.37800	893.00000
12.40000	857.00000
12.42200	798.00000
12.44400	862.00000
12.46600	820.00000
12.48800	829.00000
12.51000	847.00000
12.53200	807.00000
12.55400	769.00000
12.57600	848.00000
12.59800	820.00000
12.62000	801.00000
12.64200	809.00000
12.66400	818.00000
12.68600	833.00000
12.70800	836.00000
12.73000	813.00000
12.75200	825.00000
12.77400	819.00000
12.79600	776.00000
12.81800	797.00000
12.84000	794.00000
12.86200	790.00000
12.88400	791.00000
12.90600	814.00000
12.92800	817.00000
12.95000	802.00000
12.97200	829.00000
12.99400	803.00000
13.01600	757.00000
13.03800	834.00000
13.06000	785.00000
13.08200	754.00000
13.10400	834.00000
13.12600	786.00000
13.14800	784.00000
13.17000	803.00000
13.19200	777.00000
13.21400	852.00000
13.23600	735.00000
13.25800	838.00000
13.28000	759.00000
13.30200	764.00000
13.32400	792.00000
13.34600	741.00000
13.36800	768.00000
13.39000	759.00000
13.41200	735.00000
13.43400	729.00000
13.45600	775.00000
13.47800	796.00000
13.50000	771.00000
13.52200	724.00000
13.54400	781.00000
13.56600	748.00000
13.58800	777.00000
13.61000	755.00000
13.63200	725.00000
13.65400	734.00000
13.67600	821.00000
13.69800	751.00000
13.72000	726.00000
13.74200	720.00000
13.76400	759.00000
13.78600	738.00000
13.80800	760.00000
13.83000	750.00000
13.85200	713.00000
13.87400	714.00000
13.89600	749.00000
13.91800	741.00000
13.94000	771.00000
13.96200	751.00000
13.98400	737.00000
14.00600	704.00000
14.02800	718.00000
14.05000	679.00000
14.07200	712.00000
14.09400	746.00000
14.11600	766.00000
14.13800	768.00000
14.16000	703.00000
14.18200	754.00000
14.20400	740.00000
14.22600	698.00000
14.24800	716.00000
14.27000	695.00000
14.29200	718.00000
14.31400	770.00000
14.33600	749.00000
14.35800	745.00000
14.38000	757.00000
14.40200	733.00000
14.42400	692.00000
14.44600	696.00000
14.46800	707.00000
14.49000	674.00000
14.51200	693.00000
14.53400	738.00000
14.55600	730.00000
14.57800	671.00000
14.60000	707.00000
14.62200	708.00000
14.64400	692.00000
14.66600	703.00000
14.68800	672.00000
14.71000	724.00000
14.73200	692.00000
14.75400	701.00000
14.77600	668.00000
14.79800	694.00000
14.82000	647.00000
14.84200	728.00000
14.86400	680.00000
14.88600	653.00000
14.90800	673.00000
14.93000	767.00000
14.95200	649.00000
14.97400	665.00000
14.99600	646.00000
15.01800	677.00000
15.04000	698.00000
15.06200	734.00000
15.08400	690.00000
15.10600	672.00000
15.12800	658.00000
15.15000	667.00000
15.17200	673.00000
15.19400	651.00000
15.21600	643.00000
15.23800	704.00000
15.26000	663.00000
15.28200	728.00000
15.30400	654.00000
15.32600	673.00000
15.34800	682.00000
15.37000	702.00000
15.39200	664.00000
15.41400	680.00000
15.43600	694.00000
15.45800	689.00000
15.48000	675.00000
15.50200	660.00000
15.52400	686.00000
15.54600	672.00000
15.56800	661.00000
15.59000	673.00000
15.61200	677.00000
15.63400	663.00000
15.65600	666.00000
15.67800	615.00000
15.70000	678.00000
15.72200	639.00000
15.74400	658.00000
15.76600	674.00000
15.78800	631.00000
15.81000	699.00000
15.83200	694.00000
15.85400	665.00000
15.87600	665.00000
15.89800	688.00000
15.92000	620.00000
15.94200	678.00000
15.96400	645.00000
15.98600	671.00000
16.00800	659.00000
16.03000	648.00000
16.05200	636.00000
16.07400	613.00000
16.09600	642.00000
16.11800	645.00000
16.14000	626.00000
16.16200	641.00000
16.18400	653.00000
16.20600	626.00000
16.22800	626.00000
16.25000	643.00000
16.27200	654.00000
16.29400	648.00000
16.31600	668.00000
16.33800	674.00000
16.36000	613.00000
16.38200	644.00000
16.40400	661.00000
16.42600	631.00000
16.44800	645.00000
16.47000	640.00000
16.49200	616.00000
16.51400	646.00000
16.53600	645.00000
16.55800	651.00000
16.58000	624.00000
16.60200	665.00000
16.62400	653.00000
16.64600	701.00000
16.66800	659.00000
16.69000	642.00000
16.71200	660.00000
16.73400	632.00000
16.75600	670.00000
16.77800	691.00000
16.80000	602.00000
16.82200	642.00000
16.84400	588.00000
16.86600	623.00000
16.88800	613.00000
16.91000	623.00000
16.93200	625.00000
16.95400	656.00000
16.97600	635.00000
16.99800	622.00000
17.02000	662.00000
17.04200	615.00000
17.06400	655.00000
17.08600	652.00000
17.10800	606.00000
17.13000	621.00000
17.15200	674.00000
17.17400	623.00000
17.19600	625.00000
17.21800	669.00000
17.24000	616.00000
17.26200	677.00000
17.28400	608.00000
17.30600	644.00000
17.32800	615.00000
17.35000	628.00000
17.37200	643.00000
17.39400	627.00000
17.41600	616.00000
17.43800	604.00000
17.46000	649.00000
17.48200	659.00000
17.50400	674.00000
17.52600	640.00000
17.54800	620.00000
17.57000	617.00000
17.59200	675.00000
17.61400	629.00000
17.63600	629.00000
17.65800	623.00000
17.68000	609.00000
17.70200	659.00000
17.72400	603.00000
17.74600	635.00000
17.76800	660.00000
17.79000	604.00000
17.81200	603.00000
17.83400	629.00000
17.85600	645.00000
17.87800	638.00000
17.90000	626.00000
17.92200	595.00000
17.94400	607.00000
17.96600	653.00000
17.98800	642.00000
18.01000	616.00000
18.03200	588.00000
18.05400	643.00000
18.07600	581.00000
18.09800	658.00000
18.12000	570.00000
18.14200	584.00000
18.16400	645.00000
18.18600	639.00000
18.20800	605.00000
18.23000	634.00000
18.25200	597.00000
18.27400	669.00000
18.29600	675.00000
18.31800	715.00000
18.34000	707.00000
18.36200	680.00000
18.38400	707.00000
18.40600	603.00000
18.42800	647.00000
18.45000	649.00000
18.47200	615.00000
18.49400	628.00000
18.51600	536.00000
18.53800	620.00000
18.56000	595.00000
18.58200	621.00000
18.60400	559.00000
18.62600	640.00000
18.64800	641.00000
18.67000	590.00000
18.69200	627.00000
18.71400	587.00000
18.73600	605.00000
18.75800	628.00000
18.78000	609.00000
18.80200	610.00000
18.82400	620.00000
18.84600	559.00000
18.86800	631.00000
18.89000	609.00000
18.91200	584.00000
18.93400	644.00000
18.95600	594.00000
18.97800	633.00000
19.00000	597.00000
19.02200	602.00000
19.04400	650.00000
19.06600	631.00000
19.08800	564.00000
19.11000	621.00000
19.13200	601.00000
19.15400	625.00000
19.17600	659.00000
19.19800	581.00000
19.22000	642.00000
19.24200	638.00000
19.26400	577.00000
19.28600	645.00000
19.30800	602.00000
19.33000	593.00000
19.35200	612.00000
19.37400	621.00000
19.39600	614.00000
19.41800	642.00000
19.44000	651.00000
19.46200	680.00000
19.48400	649.00000
19.50600	666.00000
19.52800	616.00000
19.55000	653.00000
19.57200	708.00000
19.59400	694.00000
19.61600	688.00000
19.63800	653.00000
19.66000	630.00000
19.68200	633.00000
19.70400	612.00000
19.72600	639.00000
19.74800	617.00000
19.77000	629.00000
19.79200	646.00000
19.81400	602.00000
19.83600	652.00000
19.85800	625.00000
19.88000	666.00000
19.90200	626.00000
19.92400	607.00000
19.94600	572.00000
19.96800	620.00000
19.99000	594.00000
20.01200	634.00000
20.03400	627.00000
20.05600	611.00000
20.07800	599.00000
20.10000	615.00000
20.12200	605.00000
20.14400	623.00000
20.16600	583.00000
20.18800	615.00000
20.21000	643.00000
20.23200	630.00000
20.25400	611.00000
20.27600	649.00000
20.29800	636.00000
20.32000	650.00000
20.34200	555.00000
20.36400	563.00000
20.38600	595.00000
20.40800	614.00000
20.43000	601.00000
20.45200	588.00000
20.47400	651.00000
20.49600	619.00000
20.51800	650.00000
20.54000	660.00000
20.56200	613.00000
20.58400	585.00000
20.60600	669.00000
20.62800	634.00000
20.65000	604.00000
20.67200	674.00000
20.69400	695.00000
20.71600	660.00000
20.73800	714.00000
20.76000	691.00000
20.78200	683.00000
20.80400	648.00000
20.82600	708.00000
20.84800	667.00000
20.87000	679.00000
20.89200	683.00000
20.91400	683.00000
20.93600	684.00000
20.95800	688.00000
20.98000	688.00000
21.00200	696.00000
21.02400	688.00000
21.04600	713.00000
21.06800	730.00000
21.09000	705.00000
21.11200	683.00000
21.13400	728.00000
21.15600	665.00000
21.17800	685.00000
21.20000	599.00000
21.22200	641.00000
21.24400	683.00000
21.26600	654.00000
21.28800	656.00000
21.31000	642.00000
21.33200	646.00000
21.35400	607.00000
21.37600	644.00000
21.39800	685.00000
21.42000	646.00000
21.44200	665.00000
21.46400	716.00000
21.48600	706.00000
21.50800	703.00000
21.53000	712.00000
21.55200	785.00000
21.57400	902.00000
21.59600	1066.00000
21.61800	1267.00000
21.64000	1616.00000
21.66200	1969.00000
21.68400	2160.00000
21.70600	2166.00000
21.72800	2257.00000
21.75000	1908.00000
21.77200	1583.00000
21.79400	1247.00000
21.81600	991.00000
21.83800	786.00000
21.86000	676.00000
21.88200	692.00000
21.90400	653.00000
21.92600	681.00000
21.94800	658.00000
21.97000	715.00000
21.99200	686.00000
22.01400	629.00000
22.03600	698.00000
22.05800	629.00000
22.08000	630.00000
22.10200	669.00000
22.12400	693.00000
22.14600	662.00000
22.16800	694.00000
22.19000	687.00000
22.21200	717.00000
22.23400	683.00000
22.25600	706.00000
22.27800	685.00000
22.30000	690.00000
22.32200	707.00000
22.34400	723.00000
22.36600	717.00000
22.38800	709.00000
22.41000	675.00000
22.43200	706.00000
22.45400	724.00000
22.47600	738.00000
22.49800	688.00000
22.52000	711.00000
22.54200	685.00000
22.56400	697.00000
22.58600	755.00000
22.60800	745.00000
22.63000	724.00000
22.65200	725.00000
22.67400	741.00000
22.69600	767.00000
22.71800	715.00000
22.74000	750.00000
22.76200	724.00000
22.78400	763.00000
22.80600	769.00000
22.82800	737.00000
22.85000	829.00000
22.87200	926.00000
22.89400	1106.00000
22.91600	1453.00000
22.93800	2048.00000
22.96000	2987.00000
22.98200	4120.00000
23.00400	5449.00000
23.02600	6399.00000
23.04800	6893.00000
23.07000	6376.00000
23.09200	5187.00000
23.11400	3664.00000
23.13600	2451.00000
23.15800	1655.00000
23.18000	1041.00000
23.20200	860.00000
23.22400	789.00000
23.24600	723.00000
23.26800	748.00000
23.29000	670.00000
23.31200	747.00000
23.33400	617.00000
23.35600	636.00000
23.37800	663.00000
23.40000	668.00000
23.42200	670.00000
23.44400	649.00000
23.46600	620.00000
23.48800	692.00000
23.51000	708.00000
23.53200	664.00000
23.55400	700.00000
23.57600	664.00000
23.59800	614.00000
23.62000	627.00000
23.64200	650.00000
23.66400	684.00000
23.68600	725.00000
23.70800	731.00000
23.73000	799.00000
23.75200	781.00000
23.77400	827.00000
23.79600	750.00000
23.81800	778.00000
23.84000	760.00000
23.86200	728.00000
23.88400	792.00000
23.90600	806.00000
23.92800	767.00000
23.95000	845.00000
23.97200	840.00000
23.99400	771.00000
24.01600	778.00000
24.03800	815.00000
24.06000	787.00000
24.08200	797.00000
24.10400	753.00000
24.12600	712.00000
24.14800	673.00000
24.17000	688.00000
24.19200	665.00000
24.21400	668.00000
24.23600	650.00000
24.25800	644.00000
24.28000	637.00000
24.30200	614.00000
24.32400	620.00000
24.34600	655.00000
24.36800	626.00000
24.39000	638.00000
24.41200	623.00000
24.43400	632.00000
24.45600	643.00000
24.47800	626.00000
24.50000	667.00000
24.52200	668.00000
24.54400	689.00000
24.56600	747.00000
24.58800	712.00000
24.61000	743.00000
24.63200	685.00000
24.65400	724.00000
24.67600	696.00000
24.69800	647.00000
24.72000	676.00000
24.74200	629.00000
24.76400	690.00000
24.78600	682.00000
24.80800	671.00000
24.83000	713.00000
24.85200	681.00000
24.87400	633.00000
24.89600	697.00000
24.91800	680.00000
24.94000	658.00000
24.96200	730.00000
24.98400	645.00000
25.00600	692.00000
25.02800	702.00000
25.05000	696.00000
25.07200	709.00000
25.09400	695.00000
25.11600	704.00000
25.13800	706.00000
25.16000	729.00000
25.18200	727.00000
25.20400	692.00000
25.22600	748.00000
25.24800	654.00000
25.27000	770.00000
25.29200	699.00000
25.31400	750.00000
25.33600	724.00000
25.35800	729.00000
25.38000	728.00000
25.40200	759.00000
25.42400	758.00000
25.44600	729.00000
25.46800	759.00000
25.49000	763.00000
25.51200	795.00000
25.53400	807.00000
25.55600	830.00000
25.57800	806.00000
25.60000	784.00000
25.62200	804.00000
25.64400	833.00000
25.66600	793.00000
25.68800	798.00000
25.71000	824.00000
25.73200	839.00000
25.75400	829.00000
25.77600	833.00000
25.79800	853.00000
25.82000	819.00000
25.84200	850.00000
25.86400	825.00000
25.88600	834.00000
25.90800	833.00000
25.93000	887.00000
25.95200	837.00000
25.97400	832.00000
25.99600	865.00000
26.01800	878.00000
26.04000	907.00000
26.06200	905.00000
26.08400	957.00000
26.10600	981.00000
26.12800	1059.00000
26.15000	1114.00000
26.17200	1358.00000
26.19400	1637.00000
26.21600	2378.00000
26.23800	3290.00000
26.26000	5021.00000
26.28200	7600.00000
26.30400	11155.00000
26.32600	14154.00000
26.34800	16146.00000
26.37000	16799.00000
26.39200	15088.00000
26.41400	12269.00000
26.43600	8852.00000
26.45800	5901.00000
26.48000	3979.00000
26.50200	2361.00000
26.52400	1414.00000
26.54600	1170.00000
26.56800	930.00000
26.59000	891.00000
26.61200	896.00000
26.63400	836.00000
26.65600	759.00000
26.67800	779.00000
26.70000	809.00000
26.72200	729.00000
26.74400	736.00000
26.76600	715.00000
26.78800	817.00000
26.81000	785.00000
26.83200	751.00000
26.85400	778.00000
26.87600	698.00000
26.89800	757.00000
26.92000	748.00000
26.94200	755.00000
26.96400	706.00000
26.98600	795.00000
27.00800	749.00000
27.03000	697.00000
27.05200	737.00000
27.07400	766.00000
27.09600	756.00000
27.11800	734.00000
27.14000	738.00000
27.16200	743.00000
27.18400	705.00000
27.20600	719.00000
27.22800	699.00000
27.25000	713.00000
27.27200	686.00000
27.29400	701.00000
27.31600	806.00000
27.33800	883.00000
27.36000	1015.00000
27.38200	1420.00000
27.40400	1960.00000
27.42600	2643.00000
27.44800	3359.00000
27.47000	3617.00000
27.49200	3668.00000
27.51400	3466.00000
27.53600	2682.00000
27.55800	2042.00000
27.58000	1628.00000
27.60200	1205.00000
27.62400	938.00000
27.64600	717.00000
27.66800	644.00000
27.69000	690.00000
27.71200	651.00000
27.73400	610.00000
27.75600	616.00000
27.77800	611.00000
27.80000	597.00000
27.82200	598.00000
27.84400	610.00000
27.86600	629.00000
27.88800	602.00000
27.91000	579.00000
27.93200	641.00000
27.95400	615.00000
27.97600	584.00000
27.99800	597.00000
28.02000	630.00000
28.04200	559.00000
28.06400	628.00000
28.08600	604.00000
28.10800	602.00000
28.13000	637.00000
28.15200	650.00000
28.17400	701.00000
28.19600	743.00000
28.21800	999.00000
28.24000	1208.00000
28.26200	1469.00000
28.28400	1856.00000
28.30600	1912.00000
28.32800	1948.00000
28.35000	1772.00000
28.37200	1440.00000
28.39400	1199.00000
28.41600	901.00000
28.43800	823.00000
28.46000	703.00000
28.48200	686.00000
28.50400	616.00000
28.52600	598.00000
28.54800	603.00000
28.57000	589.00000
28.59200	578.00000
28.61400	644.00000
28.63600	651.00000
28.65800	590.00000
28.68000	599.00000
28.70200	615.00000
28.72400	596.00000
28.74600	583.00000
28.76800	616.00000
28.79000	609.00000
28.81200	578.00000
28.83400	575.00000
28.85600	596.00000
28.87800	613.00000
28.90000	658.00000
28.92200	659.00000
28.94400	591.00000
28.96600	599.00000
28.98800	577.00000
29.01000	618.00000
29.03200	625.00000
29.05400	621.00000
29.07600	608.00000
29.09800	632.00000
29.12000	623.00000
29.14200	622.00000
29.16400	605.00000
29.18600	614.00000
29.20800	587.00000
29.23000	603.00000
29.25200	602.00000
29.27400	639.00000
29.29600	632.00000
29.31800	644.00000
29.34000	645.00000
29.36200	680.00000
29.38400	595.00000
29.40600	635.00000
29.42800	664.00000
29.45000	678.00000
29.47200	701.00000
29.49400	690.00000
29.51600	680.00000
29.53800	683.00000
29.56000	746.00000
29.58200	741.00000
29.60400	826.00000
29.62600	885.00000
29.64800	1055.00000
29.67000	1405.00000
29.69200	2043.00000
29.71400	3083.00000
29.73600	4582.00000
29.75800	5933.00000
29.78000	6653.00000
29.80200	6837.00000
29.82400	6437.00000
29.84600	5288.00000
29.86800	3964.00000
29.89000	2973.00000
29.91200	2143.00000
29.93400	1464.00000
29.95600	989.00000
29.97800	732.00000
30.00000	667.00000
30.02200	623.00000
30.04400	609.00000
30.06600	600.00000
30.08800	617.00000
30.11000	589.00000
30.13200	621.00000
30.15400	556.00000
30.17600	597.00000
30.19800	611.00000
30.22000	664.00000
30.24200	628.00000
30.26400	728.00000
30.28600	864.00000
30.30800	1070.00000
30.33000	1158.00000
30.35200	1202.00000
30.37400	1206.00000
30.39600	1166.00000
30.41800	981.00000
30.44000	877.00000
30.46200	775.00000
30.48400	671.00000
30.50600	648.00000
30.52800	591.00000
30.55000	571.00000
30.57200	550.00000
30.59400	535.00000
30.61600	534.00000
30.63800	548.00000
30.66000	545.00000
30.68200	552.00000
30.70400	552.00000
30.72600	533.00000
30.74800	542.00000
30.77000	495.00000
30.79200	556.00000
30.81400	584.00000
30.83600	522.00000
30.85800	560.00000
30.88000	518.00000
30.90200	561.00000
30.92400	572.00000
30.94600	515.00000
30.96800	524.00000
30.99000	524.00000
31.01200	479.00000
31.03400	514.00000
31.05600	475.00000
31.07800	499.00000
31.10000	484.00000
31.12200	514.00000
31.14400	502.00000
31.16600	447.00000
31.18800	486.00000
31.21000	497.00000
31.23200	515.00000
31.25400	509.00000
31.27600	490.00000
31.29800	513.00000
31.32000	500.00000
31.34200	496.00000
31.36400	502.00000
31.38600	519.00000
31.40800	497.00000
31.43000	493.00000
31.45200	504.00000
31.47400	498.00000
31.49600	545.00000
31.51800	509.00000
31.54000	521.00000
31.56200	529.00000
31.58400	506.00000
31.60600	512.00000
31.62800	587.00000
31.65000	591.00000
31.67200	754.00000
31.69400	865.00000
31.71600	1041.00000
31.73800	1197.00000
31.76000	1295.00000
31.78200	1307.00000
31.80400	1281.00000
31.82600	1150.00000
31.84800	853.00000
31.87000	782.00000
31.89200	737.00000
31.91400	593.00000
31.93600	529.00000
31.95800	566.00000
31.98000	584.00000
32.00200	557.00000
32.02400	640.00000
32.04600	609.00000
32.06800	651.00000
32.09000	629.00000
32.11200	650.00000
32.13400	578.00000
32.15600	606.00000
32.17800	535.00000
32.20000	492.00000
32.22200	490.00000
32.24400	476.00000
32.26600	501.00000
32.28800	485.00000
32.31000	517.00000
32.33200	477.00000
32.35400	482.00000
32.37600	496.00000
32.39800	501.00000
32.42000	476.00000
32.44200	479.00000
32.46400	486.00000
32.48600	473.00000
32.50800	480.00000
32.53000	543.00000
32.55200	512.00000
32.57400	560.00000
32.59600	593.00000
32.61800	736.00000
32.64000	905.00000
32.66200	1130.00000
32.68400	1346.00000
32.70600	1565.00000
32.72800	1881.00000
32.75000	1962.00000
32.77200	1933.00000
32.79400	1830.00000
32.81600	1468.00000
32.83800	1110.00000
32.86000	1028.00000
32.88200	884.00000
32.90400	700.00000
32.92600	634.00000
32.94800	502.00000
32.97000	485.00000
32.99200	488.00000
33.01400	473.00000
33.03600	456.00000
33.05800	488.00000
33.08000	484.00000
33.10200	458.00000
33.12400	515.00000
33.14600	420.00000
33.16800	498.00000
33.19000	479.00000
33.21200	479.00000
33.23400	492.00000
33.25600	490.00000
33.27800	474.00000
33.30000	476.00000
33.32200	492.00000
33.34400	462.00000
33.36600	452.00000
33.38800	469.00000
33.41000	512.00000
33.43200	441.00000
33.45400	480.00000
33.47600	503.00000
33.49800	499.00000
33.52000	511.00000
33.54200	478.00000
33.56400	449.00000
33.58600	495.00000
33.60800	479.00000
33.63000	483.00000
33.65200	554.00000
33.67400	514.00000
33.69600	509.00000
33.71800	592.00000
33.74000	607.00000
33.76200	683.00000
33.78400	877.00000
33.80600	1240.00000
33.82800	1764.00000
33.85000	2645.00000
33.87200	3308.00000
33.89400	3663.00000
33.91600	3775.00000
33.93800	3658.00000
33.96000	3367.00000
33.98200	2644.00000
34.00400	1992.00000
34.02600	1596.00000
34.04800	1286.00000
34.07000	874.00000
34.09200	647.00000
34.11400	528.00000
34.13600	450.00000
34.15800	526.00000
34.18000	492.00000
34.20200	489.00000
34.22400	513.00000
34.24600	472.00000
34.26800	460.00000
34.29000	397.00000
34.31200	403.00000
34.33400	464.00000
34.35600	432.00000
34.37800	409.00000
34.40000	425.00000
34.42200	417.00000
34.44400	453.00000
34.46600	423.00000
34.48800	417.00000
34.51000	376.00000
34.53200	389.00000
34.55400	394.00000
34.57600	381.00000
34.59800	377.00000
34.62000	390.00000
34.64200	406.00000
34.66400	381.00000
34.68600	416.00000
34.70800	375.00000
34.73000	380.00000
34.75200	344.00000
34.77400	360.00000
34.79600	386.00000
34.81800	351.00000
34.84000	364.00000
34.86200	383.00000
34.88400	386.00000
34.90600	382.00000
34.92800	386.00000
34.95000	360.00000
34.97200	390.00000
34.99400	394.00000
35.01600	385.00000
35.03800	381.00000
35.06000	407.00000
35.08200	397.00000
35.10400	377.00000
35.12600	363.00000
35.14800	348.00000
35.17000	412.00000
35.19200	351.00000
35.21400	380.00000
35.23600	353.00000
35.25800	390.00000
35.28000	398.00000
35.30200	383.00000
35.32400	350.00000
35.34600	369.00000
35.36800	353.00000
35.39000	399.00000
35.41200	354.00000
35.43400	377.00000
35.45600	354.00000
35.47800	353.00000
35.50000	377.00000
35.52200	379.00000
35.54400	358.00000
35.56600	368.00000
35.58800	388.00000
35.61000	394.00000
35.63200	330.00000
35.65400	370.00000
35.67600	358.00000
35.69800	374.00000
35.72000	357.00000
35.74200	416.00000
35.76400	378.00000
35.78600	398.00000
35.80800	396.00000
35.83000	376.00000
35.85200	360.00000
35.87400	351.00000
35.89600	404.00000
35.91800	378.00000
35.94000	387.00000
35.96200	404.00000
35.98400	324.00000
36.00600	374.00000
36.02800	398.00000
36.05000	364.00000
36.07200	377.00000
36.09400	396.00000
36.11600	396.00000
36.13800	377.00000
36.16000	388.00000
36.18200	362.00000
36.20400	401.00000
36.22600	347.00000
36.24800	355.00000
36.27000	370.00000
36.29200	405.00000
36.31400	361.00000
36.33600	363.00000
36.35800	398.00000
36.38000	358.00000
36.40200	380.00000
36.42400	392.00000
36.44600	377.00000
36.46800	391.00000
36.49000	338.00000
36.51200	380.00000
36.53400	336.00000
36.55600	372.00000
36.57800	346.00000
36.60000	348.00000
36.62200	347.00000
36.64400	377.00000
36.66600	393.00000
36.68800	384.00000
36.71000	396.00000
36.73200	378.00000
36.75400	376.00000
36.77600	354.00000
36.79800	367.00000
36.82000	402.00000
36.84200	382.00000
36.86400	388.00000
36.88600	383.00000
36.90800	372.00000
36.93000	381.00000
36.95200	410.00000
36.97400	384.00000
36.99600	448.00000
37.01800	464.00000
37.04000	611.00000
37.06200	698.00000
37.08400	904.00000
37.10600	1204.00000
37.12800	1510.00000
37.15000	1811.00000
37.17200	1931.00000
37.19400	1929.00000
37.21600	1894.00000
37.23800	1845.00000
37.26000	1560.00000
37.28200	1183.00000
37.30400	976.00000
37.32600	791.00000
37.34800	685.00000
37.37000	556.00000
37.39200	451.00000
37.41400	440.00000
37.43600	445.00000
37.45800	392.00000
37.48000	403.00000
37.50200	391.00000
37.52400	440.00000
37.54600	361.00000
37.56800	350.00000
37.59000	400.00000
37.61200	399.00000
37.63400	418.00000
37.65600	393.00000
37.67800	365.00000
37.70000	375.00000
37.72200	399.00000
37.74400	419.00000
37.76600	464.00000
37.78800	423.00000
37.81000	435.00000
37.83200	502.00000
37.85400	578.00000
37.87600	829.00000
37.89800	1134.00000
37.92000	1519.00000
37.94200	1895.00000
37.96400	2175.00000
37.98600	2320.00000
38.00800	2304.00000
38.03000	2168.00000
38.05200	1683.00000
38.07400	1317.00000
38.09600	1051.00000
38.11800	979.00000
38.14000	714.00000
38.16200	566.00000
38.18400	439.00000
38.20600	446.00000
38.22800	373.00000
38.25000	380.00000
38.27200	402.00000
38.29400	358.00000
38.31600	366.00000
38.33800	338.00000
38.36000	345.00000
38.38200	342.00000
38.40400	367.00000
38.42600	352.00000
38.44800	354.00000
38.47000	333.00000
38.49200	360.00000
38.51400	348.00000
38.53600	343.00000
38.55800	375.00000
38.58000	350.00000
38.60200	334.00000
38.62400	314.00000
38.64600	338.00000
38.66800	331.00000
38.69000	289.00000
38.71200	319.00000
38.73400	349.00000
38.75600	326.00000
38.77800	340.00000
38.80000	319.00000
38.82200	335.00000
38.84400	278.00000
38.86600	308.00000
38.88800	301.00000
38.91000	300.00000
38.93200	306.00000
38.95400	303.00000
38.97600	308.00000
38.99800	323.00000
39.02000	331.00000
39.04200	318.00000
39.06400	315.00000
39.08600	308.00000
39.10800	341.00000
39.13000	322.00000
39.15200	327.00000
39.17400	310.00000
39.19600	315.00000
39.21800	291.00000
39.24000	318.00000
39.26200	292.00000
39.28400	311.00000
39.30600	294.00000
39.32800	289.00000
39.35000	331.00000
39.37200	308.00000
39.39400	318.00000
39.41600	308.00000
39.43800	306.00000
39.46000	327.00000
39.48200	319.00000
39.50400	331.00000
39.52600	316.00000
39.54800	338.00000
39.57000	308.00000
39.59200	329.00000
39.61400	353.00000
39.63600	344.00000
39.65800	337.00000
39.68000	351.00000
39.70200	329.00000
39.72400	339.00000
39.74600	323.00000
39.76800	314.00000
39.79000	336.00000
39.81200	315.00000
39.83400	311.00000
39.85600	337.00000
39.87800	290.00000
39.90000	322.00000
39.92200	338.00000
39.94400	315.00000
39.96600	318.00000
39.98800	324.00000
40.01000	346.00000
40.03200	335.00000
40.05400	275.00000
40.07600	317.00000
40.09800	305.00000
40.12000	350.00000
40.14200	312.00000
40.16400	342.00000
40.18600	306.00000
40.20800	335.00000
40.23000	348.00000
40.25200	302.00000
40.27400	320.00000
40.29600	318.00000
40.31800	334.00000
40.34000	309.00000
40.36200	350.00000
40.38400	348.00000
40.40600	372.00000
40.42800	439.00000
40.45000	399.00000
40.47200	431.00000
40.49400	432.00000
40.51600	428.00000
40.53800	487.00000
40.56000	414.00000
40.58200	394.00000
40.60400	356.00000
40.62600	380.00000
40.64800	362.00000
40.67000	333.00000
40.69200	329.00000
40.71400	311.00000
40.73600	304.00000
40.75800	341.00000
40.78000	296.00000
40.80200	332.00000
40.82400	356.00000
40.84600	325.00000
40.86800	315.00000
40.89000	307.00000
40.91200	335.00000
40.93400	322.00000
40.95600	332.00000
40.97800	338.00000
41.00000	312.00000
41.02200	359.00000
41.04400	341.00000
41.06600	316.00000
41.08800	324.00000
41.11000	332.00000
41.13200	317.00000
41.15400	335.00000
41.17600	342.00000
41.19800	320.00000
41.22000	327.00000
41.24200	393.00000
41.26400	349.00000
41.28600	351.00000
41.30800	322.00000
41.33000	325.00000
41.35200	358.00000
41.37400	342.00000
41.39600	370.00000
41.41800	437.00000
41.44000	495.00000
41.46200	650.00000
41.48400	744.00000
41.50600	893.00000
41.52800	1015.00000
41.55000	1044.00000
41.57200	1078.00000
41.59400	970.00000
41.61600	868.00000
41.63800	735.00000
41.66000	629.00000
41.68200	587.00000
41.70400	506.00000
41.72600	493.00000
41.74800	415.00000
41.77000	380.00000
41.79200	342.00000
41.81400	344.00000
41.83600	333.00000
41.85800	358.00000
41.88000	388.00000
41.90200	436.00000
41.92400	470.00000
41.94600	526.00000
41.96800	568.00000
41.99000	588.00000
42.01200	606.00000
42.03400	634.00000
42.05600	647.00000
42.07800	567.00000
42.10000	526.00000
42.12200	494.00000
42.14400	419.00000
42.16600	416.00000
42.18800	399.00000
42.21000	350.00000
42.23200	362.00000
42.25400	338.00000
42.27600	365.00000
42.29800	334.00000
42.32000	375.00000
42.34200	384.00000
42.36400	445.00000
42.38600	423.00000
42.40800	508.00000
42.43000	551.00000
42.45200	753.00000
42.47400	980.00000
42.49600	1389.00000
42.51800	1653.00000
42.54000	1723.00000
42.56200	1779.00000
42.58400	1922.00000
42.60600	1955.00000
42.62800	1756.00000
42.65000	1317.00000
42.67200	1082.00000
42.69400	972.00000
42.71600	883.00000
42.73800	743.00000
42.76000	535.00000
42.78200	439.00000
42.80400	428.00000
42.82600	338.00000
42.84800	365.00000
42.87000	397.00000
42.89200	362.00000
42.91400	395.00000
42.93600	410.00000
42.95800	483.00000
42.98000	538.00000
43.00200	561.00000
43.02400	549.00000
43.04600	566.00000
43.06800	554.00000
43.09000	557.00000
43.11200	493.00000
43.13400	437.00000
43.15600	410.00000
43.17800	410.00000
43.20000	422.00000
43.22200	475.00000
43.24400	508.00000
43.26600	524.00000
43.28800	581.00000
43.31000	613.00000
43.33200	638.00000
43.35400	617.00000
43.37600	625.00000
43.39800	543.00000
43.42000	435.00000
43.44200	419.00000
43.46400	435.00000
43.48600	385.00000
43.50800	363.00000
43.53000	344.00000
43.55200	341.00000
43.57400	344.00000
43.59600	315.00000
43.61800	319.00000
43.64000	338.00000
43.66200	299.00000
43.68400	360.00000
43.70600	315.00000
43.72800	311.00000
43.75000	330.00000
43.77200	316.00000
43.79400	315.00000
43.81600	287.00000
43.83800	295.00000
43.86000	288.00000
43.88200	307.00000
43.90400	297.00000
43.92600	323.00000
43.94800	344.00000
43.97000	335.00000
43.99200	323.00000
44.01400	349.00000
44.03600	424.00000
44.05800	457.00000
44.08000	508.00000
44.10200	505.00000
44.12400	546.00000
44.14600	546.00000
44.16800	670.00000
44.19000	725.00000
44.21200	771.00000
44.23400	765.00000
44.25600	707.00000
44.27800	719.00000
44.30000	642.00000
44.32200	608.00000
44.34400	480.00000
44.36600	470.00000
44.38800	431.00000
44.41000	396.00000
44.43200	350.00000
44.45400	336.00000
44.47600	316.00000
44.49800	323.00000
44.52000	310.00000
44.54200	343.00000
44.56400	307.00000
44.58600	314.00000
44.60800	371.00000
44.63000	366.00000
44.65200	401.00000
44.67400	411.00000
44.69600	514.00000
44.71800	656.00000
44.74000	801.00000
44.76200	948.00000
44.78400	1175.00000
44.80600	1175.00000
44.82800	1262.00000
44.85000	1319.00000
44.87200	1325.00000
44.89400	1249.00000
44.91600	999.00000
44.93800	802.00000
44.96000	695.00000
44.98200	632.00000
45.00400	614.00000
45.02600	533.00000
45.04800	406.00000
45.07000	312.00000
45.09200	320.00000
45.11400	315.00000
45.13600	304.00000
45.15800	271.00000
45.18000	273.00000
45.20200	278.00000
45.22400	325.00000
45.24600	274.00000
45.26800	297.00000
45.29000	304.00000
45.31200	322.00000
45.33400	275.00000
45.35600	278.00000
45.37800	292.00000
45.40000	270.00000
45.42200	253.00000
45.44400	312.00000
45.46600	293.00000
45.48800	311.00000
45.51000	293.00000
45.53200	313.00000
45.55400	255.00000
45.57600	276.00000
45.59800	297.00000
45.62000	287.00000
45.64200	283.00000
45.66400	292.00000
45.68600	297.00000
45.70800	282.00000
45.73000	309.00000
45.75200	273.00000
45.77400	274.00000
45.79600	280.00000
45.81800	293.00000
45.84000	302.00000
45.86200	287.00000
45.88400	246.00000
45.90600	279.00000
45.92800	289.00000
45.95000	263.00000
45.97200	279.00000
45.99400	263.00000
46.01600	307.00000
46.03800	282.00000
46.06000	263.00000
46.08200	268.00000
46.10400	286.00000
46.12600	290.00000
46.14800	250.00000
46.17000	277.00000
46.19200	263.00000
46.21400	269.00000
46.23600	258.00000
46.25800	265.00000
46.28000	274.00000
46.30200	266.00000
46.32400	287.00000
46.34600	261.00000
46.36800	246.00000
46.39000	280.00000
46.41200	286.00000
46.43400	270.00000
46.45600	269.00000
46.47800	255.00000
46.50000	269.00000
46.52200	272.00000
46.54400	300.00000
46.56600	231.00000
46.58800	280.00000
46.61000	278.00000
46.63200	276.00000
46.65400	314.00000
46.67600	324.00000
46.69800	374.00000
46.72000	407.00000
46.74200	426.00000
46.76400	439.00000
46.78600	453.00000
46.80800	482.00000
46.83000	433.00000
46.85200	420.00000
46.87400	466.00000
46.89600	363.00000
46.91800	405.00000
46.94000	342.00000
46.96200	360.00000
46.98400	340.00000
47.00600	304.00000
47.02800	276.00000
47.05000	321.00000
47.07200	279.00000
47.09400	289.00000
47.11600	337.00000
47.13800	277.00000
47.16000	279.00000
47.18200	273.00000
47.20400	266.00000
47.22600	282.00000
47.24800	318.00000
47.27000	255.00000
47.29200	284.00000
47.31400	282.00000
47.33600	249.00000
47.35800	284.00000
47.38000	277.00000
47.40200	271.00000
47.42400	288.00000
47.44600	276.00000
47.46800	261.00000
47.49000	277.00000
47.51200	272.00000
47.53400	300.00000
47.55600	273.00000
47.57800	278.00000
47.60000	280.00000
47.62200	281.00000
47.64400	278.00000
47.66600	285.00000
47.68800	246.00000
47.71000	284.00000
47.73200	273.00000
47.75400	298.00000
47.77600	275.00000
47.79800	244.00000
47.82000	259.00000
47.84200	296.00000
47.86400	269.00000
47.88600	262.00000
47.90800	286.00000
47.93000	274.00000
47.95200	277.00000
47.97400	283.00000
47.99600	270.00000
48.01800	279.00000
48.04000	245.00000
48.06200	291.00000
48.08400	289.00000
48.10600	281.00000
48.12800	320.00000
48.15000	312.00000
48.17200	308.00000
48.19400	338.00000
48.21600	336.00000
48.23800	484.00000
48.26000	605.00000
48.28200	697.00000
48.30400	745.00000
48.32600	796.00000
48.34800	792.00000
48.37000	915.00000
48.39200	919.00000
48.41400	855.00000
48.43600	669.00000
48.45800	576.00000
48.48000	514.00000
48.50200	511.00000
48.52400	487.00000
48.54600	430.00000
48.56800	367.00000
48.59000	319.00000
48.61200	295.00000
48.63400	304.00000
48.65600	313.00000
48.67800	266.00000
48.70000	255.00000
48.72200	279.00000
48.74400	276.00000
48.76600	255.00000
48.78800	294.00000
48.81000	246.00000
48.83200	269.00000
48.85400	292.00000
48.87600	298.00000
48.89800	296.00000
48.92000	280.00000
48.94200	240.00000
48.96400	267.00000
48.98600	253.00000
49.00800	279.00000
49.03000	270.00000
49.05200	268.00000
49.07400	271.00000
49.09600	291.00000
49.11800	262.00000
49.14000	262.00000
49.16200	267.00000
49.18400	282.00000
49.20600	253.00000
49.22800	270.00000
49.25000	226.00000
49.27200	263.00000
49.29400	292.00000
49.31600	268.00000
49.33800	270.00000
49.36000	247.00000
49.38200	248.00000
49.40400	267.00000
49.42600	267.00000
49.44800	266.00000
49.47000	278.00000
49.49200	294.00000
49.51400	280.00000
49.53600	302.00000
49.55800	291.00000
49.58000	305.00000
49.60200	273.00000
49.62400	305.00000
49.64600	299.00000
49.66800	258.00000
49.69000	339.00000
49.71200	301.00000
49.73400	306.00000
49.75600	315.00000
49.77800	312.00000
49.80000	379.00000
49.82200	380.00000
49.84400	390.00000
49.86600	383.00000
49.88800	415.00000
49.91000	432.00000
49.93200	497.00000
49.95400	560.00000
49.97600	548.00000
49.99800	591.00000
50.02000	624.00000
50.04200	624.00000
50.06400	639.00000
50.08600	626.00000
50.10800	590.00000
50.13000	474.00000
50.15200	430.00000
50.17400	439.00000
50.19600	407.00000
50.21800	382.00000
50.24000	323.00000
50.26200	312.00000
50.28400	319.00000
50.30600	337.00000
50.32800	312.00000
50.35000	338.00000
50.37200	347.00000
50.39400	338.00000
50.41600	323.00000
50.43800	314.00000
50.46000	317.00000
50.48200	350.00000
50.50400	335.00000
50.52600	394.00000
50.54800	355.00000
50.57000	349.00000
50.59200	388.00000
50.61400	350.00000
50.63600	358.00000
50.65800	428.00000
50.68000	571.00000
50.70200	774.00000
50.72400	984.00000
50.74600	1055.00000
50.76800	1102.00000
50.79000	1294.00000
50.81200	1337.00000
50.83400	1453.00000
50.85600	1290.00000
50.87800	1016.00000
50.90000	821.00000
50.92200	737.00000
50.94400	725.00000
50.96600	732.00000
50.98800	702.00000
51.01000	564.00000
51.03200	428.00000
51.05400	451.00000
51.07600	344.00000
51.09800	360.00000
51.12000	364.00000
51.14200	341.00000
51.16400	290.00000
51.18600	302.00000
51.20800	300.00000
51.23000	311.00000
51.25200	280.00000
51.27400	296.00000
51.29600	300.00000
51.31800	327.00000
51.34000	340.00000
51.36200	349.00000
51.38400	369.00000
51.40600	423.00000
51.42800	417.00000
51.45000	423.00000
51.47200	445.00000
51.49400	456.00000
51.51600	395.00000
51.53800	364.00000
51.56000	358.00000
51.58200	304.00000
51.60400	332.00000
51.62600	324.00000
51.64800	297.00000
51.67000	273.00000
51.69200	279.00000
51.71400	274.00000
51.73600	239.00000
51.75800	237.00000
51.78000	285.00000
51.80200	256.00000
51.82400	229.00000
51.84600	289.00000
51.86800	283.00000
51.89000	261.00000
51.91200	268.00000
51.93400	281.00000
51.95600	281.00000
51.97800	290.00000
52.00000	283.00000
52.02200	290.00000
52.04400	288.00000
52.06600	241.00000
52.08800	268.00000
52.11000	271.00000
52.13200	260.00000
52.15400	264.00000
52.17600	275.00000
52.19800	293.00000
52.22000	302.00000
52.24200	359.00000
52.26400	383.00000
52.28600	428.00000
52.30800	357.00000
52.33000	431.00000
52.35200	458.00000
52.37400	484.00000
52.39600	458.00000
52.41800	354.00000
52.44000	399.00000
52.46200	390.00000
52.48400	396.00000
52.50600	394.00000
52.52800	373.00000
52.55000	299.00000
52.57200	309.00000
52.59400	275.00000
52.61600	290.00000
52.63800	274.00000
52.66000	273.00000
52.68200	303.00000
52.70400	307.00000
52.72600	305.00000
52.74800	329.00000
52.77000	420.00000
52.79200	396.00000
52.81400	438.00000
52.83600	414.00000
52.85800	444.00000
52.88000	455.00000
52.90200	450.00000
52.92400	424.00000
52.94600	352.00000
52.96800	359.00000
52.99000	344.00000
53.01200	332.00000
53.03400	316.00000
53.05600	293.00000
53.07800	315.00000
53.10000	268.00000
53.12200	288.00000
53.14400	291.00000
53.16600	254.00000
53.18800	289.00000
53.21000	269.00000
53.23200	274.00000
53.25400	269.00000
53.27600	253.00000
53.29800	288.00000
53.32000	259.00000
53.34200	245.00000
53.36400	282.00000
53.38600	272.00000
53.40800	262.00000
53.43000	252.00000
53.45200	257.00000
53.47400	273.00000
53.49600	279.00000
53.51800	259.00000
53.54000	278.00000
53.56200	224.00000
53.58400	250.00000
53.60600	267.00000
53.62800	268.00000
53.65000	269.00000
53.67200	276.00000
53.69400	301.00000
53.71600	288.00000
53.73800	275.00000
53.76000	293.00000
53.78200	250.00000
53.80400	290.00000
53.82600	300.00000
53.84800	275.00000
53.87000	261.00000
53.89200	285.00000
53.91400	285.00000
53.93600	277.00000
53.95800	308.00000
53.98000	279.00000
54.00200	306.00000
54.02400	299.00000
54.04600	372.00000
54.06800	407.00000
54.09000	431.00000
54.11200	481.00000
54.13400	620.00000
54.15600	614.00000
54.17800	612.00000
54.20000	708.00000
54.22200	733.00000
54.24400	708.00000
54.26600	664.00000
54.28800	640.00000
54.31000	569.00000
54.33200	561.00000
54.35400	520.00000
54.37600	466.00000
54.39800	454.00000
54.42000	381.00000
54.44200	358.00000
54.46400	341.00000
54.48600	307.00000
54.50800	274.00000
54.53000	285.00000
54.55200	297.00000
54.57400	276.00000
54.59600	270.00000
54.61800	245.00000
54.64000	307.00000
54.66200	271.00000
54.68400	293.00000
54.70600	272.00000
54.72800	267.00000
54.75000	237.00000
54.77200	263.00000
54.79400	269.00000
54.81600	268.00000
54.83800	263.00000
54.86000	265.00000
54.88200	282.00000
54.90400	243.00000
54.92600	249.00000
54.94800	286.00000
54.97000	268.00000
54.99200	269.00000
55.01400	309.00000
55.03600	268.00000
55.05800	278.00000
55.08000	278.00000
55.10200	263.00000
55.12400	274.00000
55.14600	273.00000
55.16800	259.00000
55.19000	255.00000
55.21200	244.00000
55.23400	291.00000
55.25600	281.00000
55.27800	286.00000
55.30000	256.00000
55.32200	279.00000
55.34400	326.00000
55.36600	342.00000
55.38800	313.00000
55.41000	364.00000
55.43200	394.00000
55.45400	470.00000
55.47600	512.00000
55.49800	481.00000
55.52000	532.00000
55.54200	607.00000
55.56400	571.00000
55.58600	541.00000
55.60800	520.00000
55.63000	433.00000
55.65200	410.00000
55.67400	376.00000
55.69600	351.00000
55.71800	370.00000
55.74000	394.00000
55.76200	330.00000
55.78400	311.00000
55.80600	307.00000
55.82800	272.00000
55.85000	264.00000
55.87200	280.00000
55.89400	307.00000
55.91600	259.00000
55.93800	296.00000
55.96000	263.00000
55.98200	233.00000
56.00400	276.00000
56.02600	256.00000
56.04800	248.00000
56.07000	261.00000
56.09200	289.00000
56.11400	301.00000
56.13600	300.00000
56.15800	274.00000
56.18000	275.00000
56.20200	280.00000
56.22400	294.00000
56.24600	304.00000
56.26800	303.00000
56.29000	291.00000
56.31200	299.00000
56.33400	307.00000
56.35600	308.00000
56.37800	349.00000
56.40000	366.00000
56.42200	472.00000
56.44400	567.00000
56.46600	662.00000
56.48800	741.00000
56.51000	736.00000
56.53200	789.00000
56.55400	875.00000
56.57600	867.00000
56.59800	744.00000
56.62000	640.00000
56.64200	567.00000
56.66400	537.00000
56.68600	524.00000
56.70800	548.00000
56.73000	510.00000
56.75200	461.00000
56.77400	361.00000
56.79600	321.00000
56.81800	309.00000
56.84000	318.00000
56.86200	301.00000
56.88400	281.00000
56.90600	262.00000
56.92800	308.00000
56.95000	292.00000
56.97200	288.00000
56.99400	298.00000
57.01600	275.00000
57.03800	276.00000
57.06000	284.00000
57.08200	253.00000
57.10400	282.00000
57.12600	268.00000
57.14800	262.00000
57.17000	278.00000
57.19200	269.00000
57.21400	249.00000
57.23600	275.00000
57.25800	255.00000
57.28000	257.00000
57.30200	274.00000
57.32400	249.00000
57.34600	253.00000
57.36800	254.00000
57.39000	265.00000
57.41200	260.00000
57.43400	253.00000
57.45600	262.00000
57.47800	261.00000
57.50000	264.00000
57.52200	271.00000
57.54400	261.00000
57.56600	279.00000
57.58800	265.00000
57.61000	256.00000
57.63200	270.00000
57.65400	262.00000
57.67600	271.00000
57.69800	263.00000
57.72000	260.00000
57.74200	250.00000
57.76400	286.00000
57.78600	282.00000
57.80800	270.00000
57.83000	251.00000
57.85200	293.00000
57.87400	261.00000
57.89600	279.00000
57.91800	274.00000
57.94000	280.00000
57.96200	267.00000
57.98400	284.00000
58.00600	283.00000
58.02800	261.00000
58.05000	284.00000
58.07200	273.00000
58.09400	296.00000
58.11600	273.00000
58.13800	305.00000
58.16000	313.00000
58.18200	365.00000
58.20400	395.00000
58.22600	414.00000
58.24800	407.00000
58.27000	505.00000
58.29200	459.00000
58.31400	478.00000
58.33600	496.00000
58.35800	454.00000
58.38000	440.00000
58.40200	412.00000
58.42400	465.00000
58.44600	441.00000
58.46800	447.00000
58.49000	461.00000
58.51200	435.00000
58.53400	398.00000
58.55600	412.00000
58.57800	348.00000
58.60000	356.00000
58.62200	293.00000
58.64400	327.00000
58.66600	318.00000
58.68800	294.00000
58.71000	287.00000
58.73200	261.00000
58.75400	286.00000
58.77600	269.00000
58.79800	261.00000
58.82000	245.00000
58.84200	260.00000
58.86400	331.00000
58.88600	246.00000
58.90800	275.00000
58.93000	267.00000
58.95200	275.00000
58.97400	246.00000
58.99600	243.00000
59.01800	280.00000
59.04000	277.00000
59.06200	277.00000
59.08400	278.00000
59.10600	280.00000
59.12800	276.00000
59.15000	282.00000
59.17200	288.00000
59.19400	335.00000
59.21600	402.00000
59.23800	428.00000
59.26000	482.00000
59.28200	504.00000
59.30400	517.00000
59.32600	495.00000
59.34800	474.00000
59.37000	483.00000
59.39200	431.00000
59.41400	377.00000
59.43600	375.00000
59.45800	349.00000
59.48000	371.00000
59.50200	402.00000
59.52400	346.00000
59.54600	330.00000
59.56800	306.00000
59.59000	280.00000
59.61200	310.00000
59.63400	297.00000
59.65600	282.00000
59.67800	247.00000
59.70000	257.00000
59.72200	268.00000
59.74400	250.00000
59.76600	257.00000
59.78800	279.00000
59.81000	270.00000
59.83200	277.00000
59.85400	301.00000
59.87600	298.00000
59.89800	261.00000
59.92000	293.00000
59.94200	284.00000
59.96400	271.00000
59.98600	230.00000
60.00800	271.00000
60.03000	299.00000
60.05200	280.00000
60.07400	261.00000
60.09600	282.00000
60.11800	289.00000
60.14000	278.00000
60.16200	258.00000
60.18400	266.00000
60.20600	270.00000
60.22800	260.00000
60.25000	282.00000
60.27200	256.00000
60.29400	256.00000
60.31600	297.00000
60.33800	279.00000
60.36000	265.00000
60.38200	274.00000
60.40400	292.00000
60.42600	259.00000
60.44800	287.00000
60.47000	275.00000
60.49200	293.00000
60.51400	265.00000
60.53600	299.00000
60.55800	329.00000
60.58000	368.00000
60.60200	414.00000
60.62400	471.00000
60.64600	520.00000
60.66800	592.00000
60.69000	579.00000
60.71200	569.00000
60.73400	606.00000
60.75600	583.00000
60.77800	574.00000
60.80000	509.00000
60.82200	444.00000
60.84400	405.00000
60.86600	419.00000
60.88800	428.00000
60.91000	388.00000
60.93200	375.00000
60.95400	342.00000
60.97600	344.00000
60.99800	293.00000
61.02000	286.00000
61.04200	285.00000
61.06400	292.00000
61.08600	284.00000
61.10800	286.00000
61.13000	282.00000
61.15200	288.00000
61.17400	273.00000
61.19600	247.00000
61.21800	290.00000
61.24000	258.00000
61.26200	289.00000
61.28400	257.00000
61.30600	285.00000
61.32800	283.00000
61.35000	295.00000
61.37200	284.00000
61.39400	300.00000
61.41600	315.00000
61.43800	303.00000
61.46000	305.00000
61.48200	276.00000
61.50400	328.00000
61.52600	332.00000
61.54800	334.00000
61.57000	340.00000
61.59200	343.00000
61.61400	357.00000
61.63600	355.00000
61.65800	403.00000
61.68000	435.00000
61.70200	491.00000
61.72400	618.00000
61.74600	709.00000
61.76800	758.00000
61.79000	743.00000
61.81200	862.00000
61.83400	863.00000
61.85600	811.00000
61.87800	763.00000
61.90000	655.00000
61.92200	546.00000
61.94400	508.00000
61.96600	521.00000
61.98800	526.00000
62.01000	478.00000
62.03200	479.00000
62.05400	395.00000
62.07600	379.00000
62.09800	324.00000
62.12000	291.00000
62.14200	298.00000
62.16400	320.00000
62.18600	259.00000
62.20800	286.00000
62.23000	281.00000
62.25200	286.00000
62.27400	247.00000
62.29600	289.00000
62.31800	276.00000
62.34000	304.00000
62.36200	278.00000
62.38400	290.00000
62.40600	339.00000
62.42800	320.00000
62.45000	280.00000
62.47200	275.00000
62.49400	286.00000
62.51600	273.00000
62.53800	260.00000
62.56000	269.00000
62.58200	278.00000
62.60400	268.00000
62.62600	281.00000
62.64800	276.00000
62.67000	276.00000
62.69200	266.00000
62.71400	281.00000
62.73600	258.00000
62.75800	241.00000
62.78000	276.00000
62.80200	252.00000
62.82400	267.00000
62.84600	255.00000
62.86800	272.00000
62.89000	285.00000
62.91200	273.00000
62.93400	322.00000
62.95600	315.00000
62.97800	323.00000
63.00000	323.00000
63.02200	310.00000
63.04400	336.00000
63.06600	303.00000
63.08800	272.00000
63.11000	297.00000
63.13200	297.00000
63.15400	270.00000
63.17600	288.00000
63.19800	267.00000
63.22000	328.00000
63.24200	316.00000
63.26400	345.00000
63.28600	330.00000
63.30800	358.00000
63.33000	338.00000
63.35200	368.00000
63.37400	416.00000
63.39600	416.00000
63.41800	398.00000
63.44000	417.00000
63.46200	380.00000
63.48400	362.00000
63.50600	418.00000
63.52800	405.00000
63.55000	401.00000
63.57200	386.00000
63.59400	325.00000
63.61600	320.00000
63.63800	313.00000
63.66000	322.00000
63.68200	311.00000
63.70400	303.00000
63.72600	289.00000
63.74800	268.00000
63.77000	267.00000
63.79200	266.00000
63.81400	257.00000
63.83600	260.00000
63.85800	261.00000
63.88000	270.00000
63.90200	241.00000
63.92400	252.00000
63.94600	265.00000
63.96800	266.00000
63.99000	250.00000
64.01200	284.00000
64.03400	236.00000
64.05600	264.00000
64.07800	265.00000
64.10000	246.00000
64.12200	287.00000
64.14400	246.00000
64.16600	269.00000
64.18800	268.00000
64.21000	273.00000
64.23200	260.00000
64.25400	278.00000
64.27600	267.00000
64.29800	252.00000
64.32000	279.00000
64.34200	286.00000
64.36400	234.00000
64.38600	251.00000
64.40800	241.00000
64.43000	219.00000
64.45200	240.00000
64.47400	238.00000
64.49600	250.00000
64.51800	229.00000
64.54000	252.00000
64.56200	254.00000
64.58400	239.00000
64.60600	253.00000
64.62800	237.00000
64.65000	257.00000
64.67200	236.00000
64.69400	245.00000
64.71600	233.00000
64.73800	243.00000
64.76000	254.00000
64.78200	264.00000
64.80400	256.00000
64.82600	244.00000
64.84800	276.00000
64.87000	241.00000
64.89200	259.00000
64.91400	256.00000
64.93600	250.00000
64.95800	263.00000
64.98000	254.00000
65.00200	245.00000
65.02400	292.00000
65.04600	298.00000
65.06800	310.00000
65.09000	292.00000
65.11200	316.00000
65.13400	336.00000
65.15600	352.00000
65.17800	361.00000
65.20000	321.00000
65.22200	393.00000
65.24400	426.00000
65.26600	376.00000
65.28800	405.00000
65.31000	383.00000
65.33200	366.00000
65.35400	389.00000
65.37600	333.00000
65.39800	298.00000
65.42000	329.00000
65.44200	322.00000
65.46400	255.00000
65.48600	304.00000
65.50800	305.00000
65.53000	257.00000
65.55200	261.00000
65.57400	284.00000
65.59600	269.00000
65.61800	257.00000
65.64000	253.00000
65.66200	262.00000
65.68400	234.00000
65.70600	264.00000
65.72800	244.00000
65.75000	284.00000
65.77200	277.00000
65.79400	229.00000
65.81600	247.00000
65.83800	220.00000
65.86000	251.00000
65.88200	252.00000
65.90400	236.00000
65.92600	274.00000
65.94800	244.00000
65.97000	232.00000
65.99200	257.00000
66.01400	265.00000
66.03600	269.00000
66.05800	287.00000
66.08000	298.00000
66.10200	300.00000
66.12400	310.00000
66.14600	348.00000
66.16800	330.00000
66.19000	377.00000
66.21200	361.00000
66.23400	326.00000
66.25600	325.00000
66.27800	341.00000
66.30000	304.00000
66.32200	298.00000
66.34400	325.00000
66.36600	344.00000
66.38800	292.00000
66.41000	314.00000
66.43200	297.00000
66.45400	285.00000
66.47600	243.00000
66.49800	257.00000
66.52000	265.00000
66.54200	283.00000
66.56400	267.00000
66.58600	282.00000
66.60800	254.00000
66.63000	254.00000
66.65200	264.00000
66.67400	250.00000
66.69600	240.00000
66.71800	250.00000
66.74000	283.00000
66.76200	245.00000
66.78400	304.00000
66.80600	327.00000
66.82800	376.00000
66.85000	398.00000
66.87200	427.00000
66.89400	421.00000
66.91600	481.00000
66.93800	493.00000
66.96000	539.00000
66.98200	420.00000
67.00400	440.00000
67.02600	407.00000
67.04800	403.00000
67.07000	370.00000
67.09200	384.00000
67.11400	369.00000
67.13600	366.00000
67.15800	328.00000
67.18000	307.00000
67.20200	357.00000
67.22400	332.00000
67.24600	280.00000
67.26800	303.00000
67.29000	329.00000
67.31200	330.00000
67.33400	325.00000
67.35600	322.00000
67.37800	368.00000
67.40000	326.00000
67.42200	317.00000
67.44400	319.00000
67.46600	297.00000
67.48800	242.00000
67.51000	324.00000
67.53200	333.00000
67.55400	301.00000
67.57600	309.00000
67.59800	350.00000
67.62000	299.00000
67.64200	292.00000
67.66400	290.00000
67.68600	299.00000
67.70800	283.00000
67.73000	276.00000
67.75200	270.00000
67.77400	238.00000
67.79600	256.00000
67.81800	260.00000
67.84000	274.00000
67.86200	261.00000
67.88400	291.00000
67.90600	287.00000
67.92800	257.00000
67.95000	255.00000
67.97200	241.00000
67.99400	240.00000
68.01600	245.00000
68.03800	226.00000
68.06000	249.00000
68.08200	251.00000
68.10400	245.00000
68.12600	218.00000
68.14800	251.00000
68.17000	226.00000
68.19200	236.00000
68.21400	250.00000
68.23600	211.00000
68.25800	244.00000
68.28000	230.00000
68.30200	230.00000
68.32400	238.00000
68.34600	230.00000
68.36800	234.00000
68.39000	241.00000
68.41200	247.00000
68.43400	213.00000
68.45600	255.00000
68.47800	222.00000
68.50000	238.00000
68.52200	246.00000
68.54400	236.00000
68.56600	243.00000
68.58800	239.00000
68.61000	264.00000
68.63200	265.00000
68.65400	220.00000
68.67600	243.00000
68.69800	254.00000
68.72000	256.00000
68.74200	243.00000
68.76400	232.00000
68.78600	233.00000
68.80800	243.00000
68.83000	219.00000
68.85200	242.00000
68.87400	238.00000
68.89600	237.00000
68.91800	242.00000
68.94000	227.00000
68.96200	249.00000
68.98400	236.00000
69.00600	217.00000
69.02800	229.00000
69.05000	240.00000
69.07200	204.00000
69.09400	222.00000
69.11600	265.00000
69.13800	206.00000
69.16000	248.00000
69.18200	266.00000
69.20400	246.00000
69.22600	255.00000
69.24800	253.00000
69.27000	288.00000
69.29200	297.00000
69.31400	291.00000
69.33600	287.00000
69.35800	262.00000
69.38000	311.00000
69.40200	326.00000
69.42400	301.00000
69.44600	263.00000
69.46800	274.00000
69.49000	272.00000
69.51200	264.00000
69.53400	281.00000
69.55600	281.00000
69.57800	308.00000
69.60000	280.00000
69.62200	257.00000
69.64400	259.00000
69.66600	265.00000
69.68800	247.00000
69.71000	277.00000
69.73200	306.00000
69.75400	295.00000
69.77600	290.00000
69.79800	323.00000
69.82000	306.00000
69.84200	324.00000
69.86400	290.00000
69.88600	330.00000
69.90800	299.00000
69.93000	279.00000
69.95200	296.00000
69.97400	270.00000
69.99600	279.00000
70.01800	301.00000
70.04000	302.00000
70.06200	310.00000
70.08400	269.00000
70.10600	269.00000
70.12800	295.00000
70.15000	293.00000
70.17200	282.00000
70.19400	271.00000
70.21600	305.00000
70.23800	255.00000
70.26000	267.00000
70.28200	261.00000
70.30400	274.00000
70.32600	276.00000
70.34800	266.00000
70.37000	301.00000
70.39200	292.00000
70.41400	302.00000
70.43600	327.00000
70.45800	272.00000
70.48000	309.00000
70.50200	314.00000
70.52400	292.00000
70.54600	294.00000
70.56800	289.00000
70.59000	309.00000
70.61200	291.00000
70.63400	274.00000
70.65600	294.00000
70.67800	305.00000
70.70000	349.00000
70.72200	294.00000
70.74400	352.00000
70.76600	324.00000
70.78800	293.00000
70.81000	356.00000
70.83200	347.00000
70.85400	305.00000
70.87600	285.00000
70.89800	275.00000
70.92000	268.00000
70.94200	268.00000
70.96400	226.00000
70.98600	265.00000
71.00800	243.00000
71.03000	242.00000
71.05200	245.00000
71.07400	280.00000
71.09600	247.00000
71.11800	215.00000
71.14000	229.00000
71.16200	247.00000
71.18400	256.00000
71.20600	228.00000
71.22800	238.00000
71.25000	255.00000
71.27200	220.00000
71.29400	230.00000
71.31600	243.00000
71.33800	246.00000
71.36000	231.00000
71.38200	229.00000
71.40400	236.00000
71.42600	235.00000
71.44800	226.00000
71.47000	229.00000
71.49200	253.00000
71.51400	247.00000
71.53600	229.00000
71.55800	233.00000
71.58000	228.00000
71.60200	248.00000
71.62400	282.00000
71.64600	301.00000
71.66800	277.00000
71.69000	316.00000
71.71200	326.00000
71.73400	352.00000
71.75600	356.00000
71.77800	373.00000
71.80000	310.00000
71.82200	304.00000
71.84400	321.00000
71.86600	239.00000
71.88800	259.00000
71.91000	284.00000
71.93200	261.00000
71.95400	273.00000
71.97600	266.00000
71.99800	272.00000
72.02000	252.00000
72.04200	267.00000
72.06400	220.00000
72.08600	225.00000
72.10800	223.00000
72.13000	241.00000
72.15200	231.00000
72.17400	231.00000
72.19600	231.00000
72.21800	240.00000
72.24000	253.00000
72.26200	234.00000
72.28400	254.00000
72.30600	243.00000
72.32800	260.00000
72.35000	205.00000
72.37200	245.00000
72.39400	220.00000
72.41600	232.00000
72.43800	230.00000
72.46000	233.00000
72.48200	264.00000
72.50400	240.00000
72.52600	239.00000
72.54800	231.00000
72.57000	225.00000
72.59200	239.00000
72.61400	228.00000
72.63600	222.00000
72.65800	224.00000
72.68000	213.00000
72.70200	221.00000
72.72400	219.00000
72.74600	241.00000
72.76800	230.00000
72.79000	226.00000
72.81200	213.00000
72.83400	221.00000
72.85600	221.00000
72.87800	231.00000
72.90000	220.00000
72.92200	223.00000
72.94400	219.00000
72.96600	218.00000
72.98800	281.00000
73.01000	233.00000
73.03200	227.00000
73.05400	232.00000
73.07600	228.00000
73.09800	238.00000
73.12000	243.00000
73.14200	267.00000
73.16400	306.00000
73.18600	299.00000
73.20800	298.00000
73.23000	330.00000
73.25200	345.00000
73.27400	411.00000
73.29600	404.00000
73.31800	392.00000
73.34000	376.00000
73.36200	344.00000
73.38400	330.00000
73.40600	313.00000
73.42800	300.00000
73.45000	321.00000
73.47200	300.00000
73.49400	359.00000
73.51600	328.00000
73.53800	311.00000
73.56000	284.00000
73.58200	296.00000
73.60400	225.00000
73.62600	256.00000
73.64800	243.00000
73.67000	234.00000
73.69200	280.00000
73.71400	230.00000
73.73600	214.00000
73.75800	236.00000
73.78000	232.00000
73.80200	227.00000
73.82400	210.00000
73.84600	246.00000
73.86800	238.00000
73.89000	217.00000
73.91200	225.00000
73.93400	245.00000
73.95600	226.00000
73.97800	211.00000
74.00000	210.00000
74.02200	211.00000
74.04400	228.00000
74.06600	237.00000
74.08800	242.00000
74.11000	229.00000
74.13200	235.00000
74.15400	238.00000
74.17600	223.00000
74.19800	243.00000
74.22000	235.00000
74.24200	244.00000
74.26400	237.00000
74.28600	263.00000
74.30800	254.00000
74.33000	283.00000
74.35200	283.00000
74.37400	278.00000
74.39600	308.00000
74.41800	329.00000
74.44000	328.00000
74.46200	292.00000
74.48400	308.00000
74.50600	277.00000
74.52800	258.00000
74.55000	257.00000
74.57200	249.00000
74.59400	269.00000
74.61600	237.00000
74.63800	272.00000
74.66000	281.00000
74.68200	263.00000
74.70400	286.00000
74.72600	235.00000
74.74800	273.00000
74.77000	264.00000
74.79200	273.00000
74.81400	273.00000
74.83600	280.00000
74.85800	295.00000
74.88000	296.00000
74.90200	271.00000
74.92400	250.00000
74.94600	249.00000
74.96800	253.00000
74.99000	291.00000
75.01200	266.00000
75.03400	260.00000
75.05600	252.00000
75.07800	272.00000
75.10000	220.00000
75.12200	267.00000
75.14400	231.00000
75.16600	233.00000
75.18800	231.00000
75.21000	265.00000
75.23200	229.00000
75.25400	302.00000
75.27600	299.00000
75.29800	307.00000
75.32000	313.00000
75.34200	343.00000
75.36400	346.00000
75.38600	363.00000
75.40800	381.00000
75.43000	344.00000
75.45200	306.00000
75.47400	279.00000
75.49600	285.00000
75.51800	339.00000
75.54000	333.00000
75.56200	309.00000
75.58400	344.00000
75.60600	364.00000
75.62800	361.00000
75.65000	345.00000
75.67200	321.00000
75.69400	334.00000
75.71600	306.00000
75.73800	284.00000
75.76000	260.00000
75.78200	255.00000
75.80400	262.00000
75.82600	238.00000
75.84800	276.00000
75.87000	248.00000
75.89200	306.00000
75.91400	242.00000
75.93600	262.00000
75.95800	287.00000
75.98000	267.00000
76.00200	258.00000
76.02400	226.00000
76.04600	230.00000
76.06800	236.00000
76.09000	224.00000
76.11200	246.00000
76.13400	237.00000
76.15600	253.00000
76.17800	246.00000
76.20000	234.00000
76.22200	260.00000
76.24400	184.00000
76.26600	226.00000
76.28800	210.00000
76.31000	245.00000
76.33200	228.00000
76.35400	258.00000
76.37600	229.00000
76.39800	229.00000
76.42000	227.00000
76.44200	235.00000
76.46400	218.00000
76.48600	209.00000
76.50800	250.00000
76.53000	257.00000
76.55200	235.00000
76.57400	255.00000
76.59600	235.00000
76.61800	265.00000
76.64000	245.00000
76.66200	260.00000
76.68400	268.00000
76.70600	232.00000
76.72800	202.00000
76.75000	213.00000
76.77200	255.00000
76.79400	238.00000
76.81600	243.00000
76.83800	264.00000
76.86000	283.00000
76.88200	289.00000
76.90400	307.00000
76.92600	300.00000
76.94800	284.00000
76.97000	327.00000
76.99200	336.00000
77.01400	362.00000
77.03600	293.00000
77.05800	295.00000
77.08000	277.00000
77.10200	236.00000
77.12400	278.00000
77.14600	221.00000
77.16800	246.00000
77.19000	291.00000
77.21200	278.00000
77.23400	259.00000
77.25600	241.00000
77.27800	266.00000
77.30000	215.00000
77.32200	221.00000
77.34400	232.00000
77.36600	209.00000
77.38800	255.00000
77.41000	219.00000
77.43200	202.00000
77.45400	222.00000
77.47600	244.00000
77.49800	236.00000
77.52000	240.00000
77.54200	262.00000
77.56400	250.00000
77.58600	246.00000
77.60800	241.00000
77.63000	245.00000
77.65200	242.00000
77.67400	214.00000
77.69600	233.00000
77.71800	253.00000
77.74000	259.00000
77.76200	222.00000
77.78400	238.00000
77.80600	222.00000
77.82800	246.00000
77.85000	234.00000
77.87200	235.00000
77.89400	236.00000
77.91600	219.00000
77.93800	197.00000
77.96000	220.00000
77.98200	209.00000
78.00400	227.00000
78.02600	216.00000
78.04800	214.00000
78.07000	248.00000
78.09200	205.00000
78.11400	221.00000
78.13600	230.00000
78.15800	214.00000
78.18000	219.00000
78.20200	213.00000
78.22400	209.00000
78.24600	222.00000
78.26800	256.00000
78.29000	284.00000
78.31200	266.00000
78.33400	249.00000
78.35600	256.00000
78.37800	266.00000
78.40000	316.00000
78.42200	307.00000
78.44400	281.00000
78.46600	259.00000
78.48800	265.00000
78.51000	240.00000
78.53200	268.00000
78.55400	199.00000
78.57600	233.00000
78.59800	204.00000
78.62000	274.00000
78.64200	250.00000
78.66400	221.00000
78.68600	254.00000
78.70800	239.00000
78.73000	250.00000
78.75200	200.00000
78.77400	227.00000
78.79600	225.00000
78.81800	206.00000
78.84000	214.00000
78.86200	252.00000
78.88400	221.00000
78.90600	214.00000
78.92800	230.00000
78.95000	240.00000
78.97200	243.00000
78.99400	257.00000
79.01600	297.00000
79.03800	277.00000
79.06000	309.00000
79.08200	301.00000
79.10400	306.00000
79.12600	309.00000
79.14800	313.00000
79.17000	300.00000
79.19200	293.00000
79.21400	286.00000
79.23600	280.00000
79.25800	280.00000
79.28000	280.00000
79.30200	296.00000
79.32400	288.00000
79.34600	266.00000
79.36800	293.00000
79.39000	318.00000
79.41200	249.00000
79.43400	266.00000
79.45600	249.00000
79.47800	253.00000
79.50000	262.00000
79.52200	254.00000
79.54400	249.00000
79.56600	220.00000
79.58800	242.00000
79.61000	234.00000
79.63200	213.00000
79.65400	230.00000
79.67600	237.00000
79.69800	233.00000
79.72000	210.00000
79.74200	248.00000
79.76400	220.00000
79.78600	240.00000
79.80800	225.00000
79.83000	219.00000
79.85200	243.00000
79.87400	230.00000
79.89600	202.00000
79.91800	205.00000
79.94000	212.00000
79.96200	201.00000
79.98400	205.00000
80.00600	183.00000
80.02800	202.00000
80.05000	212.00000
80.07200	200.00000
80.09400	243.00000
80.11600	217.00000
80.13800	192.00000
80.16000	198.00000
80.18200	239.00000
80.20400	215.00000
80.22600	194.00000
80.24800	233.00000
80.27000	215.00000
80.29200	199.00000
80.31400	205.00000
80.33600	221.00000
80.35800	199.00000
80.38000	204.00000
80.40200	192.00000
80.42400	238.00000
80.44600	239.00000
80.46800	224.00000
80.49000	206.00000
80.51200	212.00000
80.53400	187.00000
80.55600	214.00000
80.57800	223.00000
80.60000	212.00000
80.62200	207.00000
80.64400	195.00000
80.66600	224.00000
80.68800	248.00000
80.71000	193.00000
80.73200	213.00000
80.75400	243.00000
80.77600	222.00000
80.79800	218.00000
80.82000	195.00000
80.84200	219.00000
80.86400	232.00000
80.88600	214.00000
80.90800	240.00000
80.93000	214.00000
80.95200	222.00000
80.97400	216.00000
80.99600	273.00000
81.01800	253.00000
81.04000	303.00000
81.06200	282.00000
81.08400	302.00000
81.10600	316.00000
81.12800	326.00000
81.15000	313.00000
81.17200	318.00000
81.19400	330.00000
81.21600	306.00000
81.23800	285.00000
81.26000	326.00000
81.28200	297.00000
81.30400	272.00000
81.32600	298.00000
81.34800	245.00000
81.37000	267.00000
81.39200	272.00000
81.41400	290.00000
81.43600	267.00000
81.45800	270.00000
81.48000	236.00000
81.50200	268.00000
81.52400	213.00000
81.54600	223.00000
81.56800	245.00000
81.59000	247.00000
81.61200	228.00000
81.63400	208.00000
81.65600	218.00000
81.67800	244.00000
81.70000	210.00000
81.72200	240.00000
81.74400	235.00000
81.76600	246.00000
81.78800	231.00000
81.81000	202.00000
81.83200	224.00000
81.85400	250.00000
81.87600	244.00000
81.89800	275.00000
81.92000	266.00000
81.94200	260.00000
81.96400	282.00000
81.98600	248.00000
82.00800	246.00000
82.03000	237.00000
82.05200	244.00000
82.07400	247.00000
82.09600	242.00000
82.11800	231.00000
82.14000	250.00000
82.16200	226.00000
82.18400	266.00000
82.20600	258.00000
82.22800	305.00000
82.25000	259.00000
82.27200	247.00000
82.29400	247.00000
82.31600	231.00000
82.33800	226.00000
82.36000	223.00000
82.38200	216.00000
82.40400	217.00000
82.42600	234.00000
82.44800	244.00000
82.47000	208.00000
82.49200	230.00000
82.51400	201.00000
82.53600	227.00000
82.55800	211.00000
82.58000	230.00000
82.60200	224.00000
82.62400	215.00000
82.64600	209.00000
82.66800	225.00000
82.69000	193.00000
82.71200	221.00000
82.73400	210.00000
82.75600	221.00000
82.77800	229.00000
82.80000	213.00000
82.82200	217.00000
82.84400	192.00000
82.86600	213.00000
82.88800	220.00000
82.91000	186.00000
82.93200	221.00000
82.95400	216.00000
82.97600	198.00000
82.99800	209.00000
83.02000	226.00000
83.04200	221.00000
83.06400	216.00000
83.08600	232.00000
83.10800	219.00000
83.13000	227.00000
83.15200	251.00000
83.17400	234.00000
83.19600	213.00000
83.21800	255.00000
83.24000	219.00000
83.26200	243.00000
83.28400	252.00000
83.30600	255.00000
83.32800	236.00000
83.35000	271.00000
83.37200	266.00000
83.39400	280.00000
83.41600	306.00000
83.43800	324.00000
83.46000	331.00000
83.48200	300.00000
83.50400	291.00000
83.52600	291.00000
83.54800	277.00000
83.57000	233.00000
83.59200	224.00000
83.61400	246.00000
83.63600	245.00000
83.65800	257.00000
83.68000	269.00000
83.70200	260.00000
83.72400	239.00000
83.74600	278.00000
83.76800	266.00000
83.79000	256.00000
83.81200	256.00000
83.83400	267.00000
83.85600	247.00000
83.87800	279.00000
83.90000	285.00000
83.92200	291.00000
83.94400	314.00000
83.96600	317.00000
83.98800	354.00000
84.01000	355.00000
84.03200	365.00000
84.05400	357.00000
84.07600	334.00000
84.09800	300.00000
84.12000	301.00000
84.14200	255.00000
84.16400	253.00000
84.18600	254.00000
84.20800	281.00000
84.23000	263.00000
84.25200	290.00000
84.27400	286.00000
84.29600	281.00000
84.31800	237.00000
84.34000	244.00000
84.36200	243.00000
84.38400	263.00000
84.40600	229.00000
84.42800	262.00000
84.45000	242.00000
84.47200	244.00000
84.49400	244.00000
84.51600	242.00000
84.53800	229.00000
84.56000	224.00000
84.58200	225.00000
84.60400	234.00000
84.62600	204.00000
84.64800	211.00000
84.67000	219.00000
84.69200	236.00000
84.71400	229.00000
84.73600	235.00000
84.75800	227.00000
84.78000	214.00000
84.80200	240.00000
84.82400	208.00000
84.84600	211.00000
84.86800	220.00000
84.89000	216.00000
84.91200	209.00000
84.93400	190.00000
84.95600	217.00000
84.97800	212.00000
85.00000	211.00000
85.02200	191.00000
85.04400	215.00000
85.06600	213.00000
85.08800	223.00000
85.11000	215.00000
85.13200	204.00000
85.15400	194.00000
85.17600	231.00000
85.19800	253.00000
85.22000	237.00000
85.24200	225.00000
85.26400	203.00000
85.28600	226.00000
85.30800	189.00000
85.33000	236.00000
85.35200	206.00000
85.37400	192.00000
85.39600	240.00000
85.41800	190.00000
85.44000	222.00000
85.46200	210.00000
85.48400	222.00000
85.50600	254.00000
85.52800	264.00000
85.55000	244.00000
85.57200	226.00000
85.59400	234.00000
85.61600	222.00000
85.63800	265.00000
85.66000	228.00000
85.68200	232.00000
85.70400	238.00000
85.72600	244.00000
85.74800	232.00000
85.77000	255.00000
85.79200	239.00000
85.81400	198.00000
85.83600	238.00000
85.85800	254.00000
85.88000	218.00000
85.90200	211.00000
85.92400	216.00000
85.94600	204.00000
85.96800	218.00000
85.99000	239.00000
86.01200	206.00000
86.03400	210.00000
86.05600	222.00000
86.07800	229.00000
86.10000	222.00000
86.12200	235.00000
86.14400	211.00000
86.16600	256.00000
86.18800	229.00000
86.21000	208.00000
86.23200	230.00000
86.25400	231.00000
86.27600	247.00000
86.29800	253.00000
86.32000	252.00000
86.34200	249.00000
86.36400	240.00000
86.38600	220.00000
86.40800	236.00000
86.43000	231.00000
86.45200	228.00000
86.47400	245.00000
86.49600	232.00000
86.51800	227.00000
86.54000	211.00000
86.56200	217.00000
86.58400	239.00000
86.60600	218.00000
86.62800	219.00000
86.65000	244.00000
86.67200	216.00000
86.69400	226.00000
86.71600	226.00000
86.73800	213.00000
86.76000	228.00000
86.78200	221.00000
86.80400	242.00000
86.82600	225.00000
86.84800	231.00000
86.87000	210.00000
86.89200	213.00000
86.91400	191.00000
86.93600	222.00000
86.95800	206.00000
86.98000	207.00000
87.00200	209.00000
87.02400	211.00000
87.04600	215.00000
87.06800	223.00000
87.09000	219.00000
87.11200	225.00000
87.13400	240.00000
87.15600	212.00000
87.17800	247.00000
87.20000	251.00000
87.22200	224.00000
87.24400	246.00000
87.26600	231.00000
87.28800	203.00000
87.31000	219.00000
87.33200	215.00000
87.35400	230.00000
87.37600	249.00000
87.39800	246.00000
87.42000	226.00000
87.44200	226.00000
87.46400	200.00000
87.48600	227.00000
87.50800	217.00000
87.53000	231.00000
87.55200	220.00000
87.57400	233.00000
87.59600	230.00000
87.61800	217.00000
87.64000	235.00000
87.66200	235.00000
87.68400	263.00000
87.70600	236.00000
87.72800	243.00000
87.75000	237.00000
87.77200	268.00000
87.79400	250.00000
87.81600	249.00000
87.83800	260.00000
87.86000	250.00000
87.88200	245.00000
87.90400	238.00000
87.92600	209.00000
87.94800	209.00000
87.97000	217.00000
87.99200	247.00000
88.01400	241.00000
88.03600	245.00000
88.05800	238.00000
88.08000	225.00000
88.10200	234.00000
88.12400	258.00000
88.14600	226.00000
88.16800	212.00000
88.19000	214.00000
88.21200	226.00000
88.23400	206.00000
88.25600	228.00000
88.27800	232.00000
88.30000	210.00000
88.32200	254.00000
88.34400	193.00000
88.36600	223.00000
88.38800	213.00000
88.41000	217.00000
88.43200	216.00000
88.45400	212.00000
88.47600	189.00000
88.49800	204.00000
88.52000	212.00000
88.54200	204.00000
88.56400	198.00000
88.58600	209.00000
88.60800	222.00000
88.63000	212.00000
88.65200	238.00000
88.67400	206.00000
88.69600	224.00000
88.71800	208.00000
88.74000	222.00000
88.76200	244.00000
88.78400	220.00000
88.80600	215.00000
88.82800	198.00000
88.85000	200.00000
88.87200	223.00000
88.89400	216.00000
88.91600	209.00000
88.93800	234.00000
88.96000	214.00000
88.98200	241.00000
89.00400	259.00000
89.02600	232.00000
89.04800	219.00000
89.07000	223.00000
89.09200	229.00000
89.11400	261.00000
89.13600	244.00000
89.15800	239.00000
89.18000	233.00000
89.20200	233.00000
89.22400	221.00000
89.24600	206.00000
89.26800	248.00000
89.29000	242.00000
89.31200	240.00000
89.33400	243.00000
89.35600	266.00000
89.37800	249.00000
89.40000	255.00000
89.42200	244.00000
89.44400	246.00000
89.46600	233.00000
89.48800	260.00000
89.51000	230.00000
89.53200	239.00000
89.55400	230.00000
89.57600	248.00000
89.59800	205.00000
89.62000	232.00000
89.64200	211.00000
89.66400	271.00000
89.68600	241.00000
89.70800	225.00000
89.73000	284.00000
89.75200	285.00000
89.77400	274.00000
89.79600	277.00000
89.81800	301.00000
89.84000	315.00000
89.86200	255.00000
89.88400	255.00000
89.90600	257.00000
89.92800	221.00000
89.95000	237.00000
89.97200	255.00000
89.99400	202.00000
