2.52720	2390.21000
2.53950	2397.55000
2.55190	2395.02000
2.56430	2397.80000
2.57660	2399.80000
2.58900	2395.27000
2.60140	2402.66000
2.61380	2409.47000
2.62610	2411.85000
2.63850	2416.63000
2.65090	2410.51000
2.66320	2393.32000
2.67560	2382.42000
2.68800	2383.32000
2.70030	2393.20000
2.71270	2409.79000
2.72510	2422.70000
2.73740	2422.42000
2.74980	2400.20000
2.76220	2407.78000
2.77450	2420.76000
2.78690	2430.95000
2.79930	2432.54000
2.81170	2429.78000
2.82400	2416.66000
2.83640	2410.39000
2.84880	2402.23000
2.86110	2419.84000
2.87350	2432.23000
2.88590	2449.42000
2.89820	2440.74000
2.91060	2443.73000
2.92300	2425.45000
2.93530	2430.59000
2.94770	2427.00000
2.96010	2450.63000
2.97240	2439.02000
2.98480	2434.25000
2.99720	2455.00000
3.00960	2468.03000
3.02190	2473.89000
3.03430	2478.46000
3.04670	2470.49000
3.05900	2477.17000
3.07140	2488.28000
3.08380	2493.52000
3.09610	2503.05000
3.10850	2492.09000
3.12090	2484.77000
3.13320	2470.34000
3.14560	2485.86000
3.15800	2491.67000
3.17040	2505.14000
3.18270	2504.49000
3.19510	2511.07000
3.20750	2509.83000
3.21980	2502.50000
3.23220	2507.14000
3.24460	2510.81000
3.25690	2506.22000
3.26930	2500.94000
3.28170	2502.79000
3.29400	2491.41000
3.30640	2489.81000
3.31880	2497.66000
3.33110	2519.79000
3.34350	2516.32000
3.35590	2509.40000
3.36830	2478.10000
3.38060	2456.08000
3.39300	2458.12000
3.40540	2474.03000
3.41770	2475.99000
3.43010	2490.51000
3.44250	2497.94000
3.45480	2498.12000
3.46720	2480.79000
3.47960	2489.69000
3.49190	2486.23000
3.50430	2503.94000
3.51670	2520.80000
3.52900	2539.59000
3.54140	2540.67000
3.55380	2540.68000
3.56620	2542.78000
3.57850	2547.68000
3.59090	2536.12000
3.60330	2519.45000
3.61560	2516.07000
3.62800	2510.83000
3.64040	2516.14000
3.65270	2526.79000
3.66510	2532.52000
3.67750	2534.11000
3.68980	2520.10000
3.70220	2514.28000
3.71460	2518.71000
3.72700	2536.68000
3.73930	2554.10000
3.75170	2539.03000
3.76410	2537.43000
3.77640	2545.39000
3.78880	2554.30000
3.80120	2554.01000
3.81350	2547.70000
3.82590	2545.51000
3.83830	2525.81000
3.85060	2537.20000
3.86300	2542.94000
3.87540	2527.13000
3.88770	2510.65000
3.90010	2505.67000
3.91250	2529.25000
3.92490	2530.14000
3.93720	2537.93000
3.94960	2530.98000
3.96200	2539.00000
3.97430	2532.74000
3.98670	2545.48000
3.99910	2542.96000
4.01140	2546.93000
4.02380	2551.88000
4.03620	2548.40000
4.04850	2545.63000
4.06090	2548.06000
4.07330	2547.45000
4.08570	2525.10000
4.09800	2527.30000
4.11040	2524.46000
4.12280	2524.74000
4.13510	2550.59000
4.14750	2566.38000
4.15990	2563.20000
4.17220	2548.72000
4.18460	2548.31000
4.19700	2543.60000
4.20930	2544.31000
4.22170	2551.33000
4.23410	2558.97000
4.24640	2562.02000
4.25880	2550.53000
4.27120	2558.29000
4.28360	2570.70000
4.29590	2575.21000
4.30830	2567.98000
4.32070	2566.31000
4.33300	2576.03000
4.34540	2573.14000
4.35780	2567.23000
4.37010	2562.85000
4.38250	2568.32000
4.39490	2573.87000
4.40720	2572.09000
4.41960	2583.22000
4.43200	2577.75000
4.44430	2581.56000
4.45670	2577.85000
4.46910	2582.69000
4.48150	2571.10000
4.49380	2568.22000
4.50620	2574.25000
4.51860	2576.43000
4.53090	2567.81000
4.54330	2570.40000
4.55570	2567.62000
4.56800	2569.88000
4.58040	2568.54000
4.59280	2560.59000
4.60510	2556.42000
4.61750	2571.71000
4.62990	2580.61000
4.64230	2575.67000
4.65460	2559.19000
4.66700	2548.19000
4.67940	2540.83000
4.69170	2550.14000
4.70410	2555.18000
4.71650	2553.70000
4.72880	2560.05000
4.74120	2556.77000
4.75360	2542.60000
4.76590	2534.27000
4.77830	2530.73000
4.79070	2553.06000
4.80300	2552.98000
4.81540	2544.29000
4.82780	2538.74000
4.84020	2555.36000
4.85250	2552.12000
4.86490	2548.41000
4.87730	2525.45000
4.88960	2533.33000
4.90200	2533.26000
4.91440	2546.51000
4.92670	2549.46000
4.93910	2552.99000
4.95150	2550.63000
4.96380	2556.11000
4.97620	2561.72000
4.98860	2565.57000
5.00090	2553.09000
5.01330	2558.56000
5.02570	2558.19000
5.03810	2550.01000
5.05040	2554.57000
5.06280	2558.27000
5.07520	2565.23000
5.08750	2553.33000
5.09990	2536.42000
5.11230	2541.00000
5.12460	2565.53000
5.13700	2591.27000
5.14940	2597.21000
5.16170	2590.13000
5.17410	2578.53000
5.18650	2577.27000
5.19890	2588.06000
5.21120	2582.35000
5.22360	2570.96000
5.23600	2559.71000
5.24830	2548.41000
5.26070	2555.15000
5.27310	2568.36000
5.28540	2556.38000
5.29780	2550.16000
5.31020	2561.37000
5.32250	2574.91000
5.33490	2571.71000
5.34730	2570.34000
5.35960	2559.11000
5.37200	2550.23000
5.38440	2562.74000
5.39680	2576.84000
5.40910	2599.21000
5.42150	2596.04000
5.43390	2589.99000
5.44620	2576.10000
5.45860	2571.44000
5.47100	2561.60000
5.48330	2564.65000
5.49570	2574.86000
5.50810	2582.89000
5.52040	2576.42000
5.53280	2576.79000
5.54520	2575.66000
5.55750	2587.30000
5.56990	2595.93000
5.58230	2595.92000
5.59470	2590.53000
5.60700	2565.05000
5.61940	2561.80000
5.63180	2566.42000
5.64410	2569.83000
5.65650	2561.47000
5.66890	2543.37000
5.68120	2539.00000
5.69360	2553.20000
5.70600	2558.40000
5.71830	2566.43000
5.73070	2575.47000
5.74310	2571.29000
5.75550	2574.89000
5.76780	2573.06000
5.78020	2567.56000
5.79260	2566.57000
5.80490	2569.85000
5.81730	2582.89000
5.82970	2587.12000
5.84200	2584.92000
5.85440	2580.90000
5.86680	2587.55000
5.87910	2588.66000
5.89150	2586.92000
5.90390	2582.26000
5.91620	2579.30000
5.92860	2573.60000
5.94100	2570.12000
5.95340	2561.88000
5.96570	2563.51000
5.97810	2567.01000
5.99050	2567.96000
6.00280	2558.26000
6.01520	2563.69000
6.02760	2572.51000
6.03990	2574.80000
6.05230	2574.98000
6.06470	2576.05000
6.07700	2565.88000
6.08940	2556.90000
6.10180	2566.75000
6.11410	2583.97000
6.12650	2593.79000
6.13890	2582.93000
6.15130	2574.70000
6.16360	2578.63000
6.17600	2580.20000
6.18840	2592.31000
6.20070	2593.20000
6.21310	2581.17000
6.22550	2573.54000
6.23780	2580.22000
6.25020	2590.61000
6.26260	2593.85000
6.27490	2597.74000
6.28730	2586.99000
6.29970	2588.80000
6.31210	2583.82000
6.32440	2587.20000
6.33680	2583.78000
6.34920	2585.59000
6.36150	2577.81000
6.37390	2575.36000
6.38630	2577.42000
6.39860	2571.91000
6.41100	2575.42000
6.42340	2576.87000
6.43570	2586.75000
6.44810	2582.39000
6.46050	2569.30000
6.47280	2563.88000
6.48520	2574.60000
6.49760	2572.61000
6.51000	2561.57000
6.52230	2565.84000
6.53470	2569.66000
6.54710	2574.80000
6.55940	2572.26000
6.57180	2569.95000
6.58420	2567.38000
6.59650	2571.55000
6.60890	2569.86000
6.62130	2569.67000
6.63360	2575.35000
6.64600	2588.12000
6.65840	2590.89000
6.67070	2583.94000
6.68310	2581.08000
6.69550	2583.71000
6.70790	2579.84000
6.72020	2574.75000
6.73260	2578.11000
6.74500	2578.86000
6.75730	2581.62000
6.76970	2582.73000
6.78210	2590.39000
6.79440	2600.81000
6.80680	2598.03000
6.81920	2588.87000
6.83150	2582.59000
6.84390	2594.24000
6.85630	2603.58000
6.86870	2606.54000
6.88100	2605.85000
6.89340	2618.27000
6.90580	2626.97000
6.91810	2634.33000
6.93050	2632.58000
6.94290	2635.86000
6.95520	2643.50000
6.96760	2647.19000
6.98000	2646.41000
6.99230	2641.18000
7.00470	2633.85000
7.01710	2633.41000
7.02940	2628.83000
7.04180	2633.43000
7.05420	2635.66000
7.06660	2613.10000
7.07890	2580.21000
7.09130	2580.34000
7.10370	2619.94000
7.11600	2628.94000
7.12840	2619.27000
7.14080	2610.23000
7.15310	2621.70000
7.16550	2619.54000
7.17790	2620.64000
7.19020	2605.97000
7.20260	2598.25000
7.21500	2591.26000
7.22730	2598.25000
7.23970	2608.81000
7.25210	2617.63000
7.26450	2611.22000
7.27680	2604.44000
7.28920	2606.09000
7.30160	2611.67000
7.31390	2612.12000
7.32630	2608.84000
7.33870	2620.38000
7.35100	2617.38000
7.36340	2616.34000
7.37580	2618.17000
7.38810	2625.95000
7.40050	2623.45000
7.41290	2615.42000
7.42530	2607.52000
7.43760	2623.47000
7.45000	2630.57000
7.46240	2631.79000
7.47470	2627.58000
7.48710	2631.86000
7.49950	2636.18000
7.51180	2640.85000
7.52420	2641.07000
7.53660	2647.52000
7.54890	2647.22000
7.56130	2643.93000
7.57370	2640.31000
7.58600	2642.74000
7.59840	2643.50000
7.61080	2641.46000
7.62320	2632.78000
7.63550	2646.01000
7.64790	2661.54000
7.66030	2673.66000
7.67260	2670.94000
7.68500	2660.65000
7.69740	2654.85000
7.70970	2662.07000
7.72210	2665.31000
7.73450	2669.14000
7.74680	2671.46000
7.75920	2671.63000
7.77160	2670.55000
7.78390	2668.60000
7.79630	2672.38000
7.80870	2677.82000
7.82110	2685.20000
7.83340	2677.64000
7.84580	2677.82000
7.85820	2685.62000
7.87050	2697.20000
7.88290	2707.60000
7.89530	2724.31000
7.90760	2803.44000
7.92000	3076.64000
7.93240	3854.04000
7.94470	5173.20000
7.95710	6862.10000
7.96950	8029.96000
7.98190	7962.76000
7.99420	6738.10000
8.00660	5172.75000
8.01900	3861.72000
8.03130	3116.66000
8.04370	2846.00000
8.05610	2756.03000
8.06840	2730.14000
8.08080	2709.40000
8.09320	2709.83000
8.10550	2714.66000
8.11790	2711.12000
8.13030	2707.83000
8.14260	2715.37000
8.15500	2716.61000
8.16740	2716.70000
8.17980	2733.80000
8.19210	2747.95000
8.20450	2749.77000
8.21690	2742.13000
8.22920	2744.20000
8.24160	2750.45000
8.25400	2748.02000
8.26630	2742.22000
8.27870	2741.96000
8.29110	2742.98000
8.30340	2745.85000
8.31580	2758.38000
8.32820	2766.17000
8.34060	2770.21000
8.35290	2767.65000
8.36530	2775.57000
8.37770	2775.38000
8.39000	2761.38000
8.40240	2756.72000
8.41480	2781.28000
8.42710	2811.43000
8.43950	2826.30000
8.45190	2826.59000
8.46420	2820.19000
8.47660	2815.53000
8.48900	2815.85000
8.50130	2807.52000
8.51370	2812.37000
8.52610	2809.62000
8.53850	2815.20000
8.55080	2815.81000
8.56320	2816.69000
8.57560	2811.77000
8.58790	2811.48000
8.60030	2819.23000
8.61270	2828.57000
8.62500	2839.95000
8.63740	2830.03000
8.64980	2834.65000
8.66210	2836.85000
8.67450	2834.64000
8.68690	2838.35000
8.69920	2847.53000
8.71160	2856.19000
8.72400	2867.46000
8.73640	2871.00000
8.74870	2883.13000
8.76110	2895.76000
8.77350	2905.13000
8.78580	2905.46000
8.79820	2909.36000
8.81060	2914.85000
8.82290	2929.49000
8.83530	2939.17000
8.84770	2949.65000
8.86000	2972.49000
8.87240	3013.44000
8.88480	3101.60000
8.89720	3292.00000
8.90950	3664.07000
8.92190	4512.43000
8.93430	6081.84000
8.94660	8284.65000
8.95900	10772.20000
8.97140	12299.30000
8.98370	12042.60000
8.99610	10164.70000
9.00850	7729.30000
9.02080	5693.85000
9.03320	4355.95000
9.04560	3672.38000
9.05790	3327.81000
9.07030	3172.36000
9.08270	3083.97000
9.09510	3041.41000
9.10740	3027.51000
9.11980	3027.50000
9.13220	3013.07000
9.14450	3003.22000
9.15690	3002.44000
9.16930	3002.19000
9.18160	3001.88000
9.19400	2990.62000
9.20640	2994.06000
9.21870	2996.58000
9.23110	3012.01000
9.24350	3018.76000
9.25580	3028.59000
9.26820	3038.49000
9.28060	3035.75000
9.29300	3033.38000
9.30530	3021.73000
9.31770	3025.02000
9.33010	3023.07000
9.34240	3028.79000
9.35480	3032.94000
9.36720	3049.82000
9.37950	3055.52000
9.39190	3064.14000
9.40430	3066.09000
9.41660	3073.84000
9.42900	3076.23000
9.44140	3077.95000
9.45380	3081.01000
9.46610	3083.24000
9.47850	3078.25000
9.49090	3083.74000
9.50320	3088.21000
9.51560	3102.93000
9.52800	3106.89000
9.54030	3112.49000
9.55270	3110.20000
9.56510	3120.96000
9.57740	3116.56000
9.58980	3112.51000
9.60220	3114.22000
9.61450	3132.79000
9.62690	3139.07000
9.63930	3132.67000
9.65170	3134.31000
9.66400	3145.01000
9.67640	3151.67000
9.68880	3150.76000
9.70110	3148.50000
9.71350	3148.69000
9.72590	3139.62000
9.73820	3144.62000
9.75060	3157.56000
9.76300	3163.30000
9.77530	3160.99000
9.78770	3163.54000
9.80010	3169.21000
9.81240	3174.07000
9.82480	3168.08000
9.83720	3172.50000
9.84960	3173.51000
9.86190	3184.11000
9.87430	3187.08000
9.88670	3198.66000
9.89900	3221.75000
9.91140	3278.51000
9.92380	3358.87000
9.93610	3443.92000
9.94850	3503.75000
9.96090	3493.26000
9.97320	3413.64000
9.98560	3334.41000
9.99800	3268.40000
10.01030	3219.06000
10.02270	3192.56000
10.03510	3189.32000
10.04750	3201.32000
10.05980	3200.90000
10.07220	3210.81000
10.08460	3212.70000
10.09690	3210.53000
10.10930	3204.40000
10.12170	3206.37000
10.13400	3199.42000
10.14640	3199.65000
10.15880	3204.21000
10.17110	3203.97000
10.18350	3208.89000
10.19590	3216.41000
10.20820	3216.37000
10.22060	3208.47000
10.23300	3205.02000
10.24540	3198.89000
10.25770	3202.04000
10.27010	3198.38000
10.28250	3185.02000
10.29480	3188.22000
10.30720	3205.63000
10.31960	3206.35000
10.33190	3195.27000
10.34430	3186.69000
10.35670	3185.95000
10.36900	3191.02000
10.38140	3200.93000
10.39380	3197.02000
10.40620	3193.91000
10.41850	3187.88000
10.43090	3190.33000
10.44330	3184.04000
10.45560	3184.14000
10.46800	3179.57000
10.48040	3182.09000
10.49270	3182.91000
10.50510	3175.99000
10.51750	3171.55000
10.52980	3169.86000
10.54220	3162.32000
10.55460	3158.44000
10.56700	3164.16000
10.57930	3160.18000
10.59170	3162.38000
10.60410	3154.43000
10.61640	3154.10000
10.62880	3158.29000
10.64120	3157.42000
10.65350	3151.64000
10.66590	3150.12000
10.67830	3147.31000
10.69060	3142.25000
10.70300	3135.63000
10.71540	3113.83000
10.72780	3121.08000
10.74010	3112.58000
10.75250	3099.13000
10.76490	3096.11000
10.77720	3097.61000
10.78960	3095.51000
10.80200	3107.36000
10.81430	3108.16000
10.82670	3095.18000
10.83910	3084.29000
10.85140	3077.52000
10.86380	3084.32000
10.87620	3084.78000
10.88850	3075.80000
10.90090	3076.15000
10.91330	3087.32000
10.92570	3080.03000
10.93800	3062.44000
10.95040	3050.97000
10.96280	3054.57000
10.97510	3053.69000
10.98750	3047.67000
10.99990	3047.52000
11.01220	3047.20000
11.02460	3045.64000
11.03700	3042.95000
11.04930	3036.95000
11.06170	3032.22000
11.07410	3036.16000
11.08640	3039.24000
11.09880	3038.90000
11.11120	3033.60000
11.12360	3029.05000
11.13590	3020.06000
11.14830	3002.29000
11.16070	2996.90000
11.17300	2991.97000
11.18540	2986.42000
11.19780	2978.14000
11.21010	2980.35000
11.22250	2978.92000
11.23490	2975.53000
11.24720	2971.88000
11.25960	2972.75000
11.27200	2978.23000
11.28440	3007.57000
11.29670	3059.71000
11.30910	3096.81000
11.32140	3127.48000
11.33380	3128.13000
11.34620	3096.33000
11.35860	3052.40000
11.37090	3010.07000
11.38330	2975.98000
11.39570	2951.45000
11.40800	2937.84000
11.42040	2932.47000
11.43280	2925.69000
11.44510	2927.45000
11.45750	2927.16000
11.46990	2928.90000
11.48220	2936.37000
11.49460	2961.51000
11.50700	3027.40000
11.51940	3215.47000
11.53170	3723.94000
11.54410	4648.08000
11.55650	5851.80000
11.56880	6915.76000
11.58120	7296.34000
11.59360	7167.12000
11.60590	7190.91000
11.61830	8941.84000
11.63070	13823.50000
11.64300	22228.30000
11.65540	30398.80000
11.66780	34296.90000
11.68010	32503.40000
11.69250	25274.10000
11.70490	16554.00000
11.71730	10006.10000
11.72960	5814.01000
11.74200	4017.21000
11.75440	3264.01000
11.76670	3014.73000
11.77910	2918.00000
11.79150	2871.96000
11.80380	2824.68000
11.81620	2803.14000
11.82860	2780.80000
11.84090	2757.85000
11.85330	2742.28000
11.86570	2731.34000
11.87810	2721.50000
11.89040	2709.20000
11.90280	2703.18000
11.91520	2690.20000
11.92750	2683.30000
11.93990	2676.69000
11.95230	2668.37000
11.96460	2653.50000
11.97700	2639.73000
11.98940	2628.53000
12.00170	2629.25000
12.01410	2624.19000
12.02650	2617.34000
12.03890	2614.70000
12.05120	2592.51000
12.06360	2578.62000
12.07600	2563.63000
12.08830	2565.10000
12.10070	2571.05000
12.11310	2570.73000
12.12540	2556.99000
12.13780	2539.25000
12.15020	2531.76000
12.16250	2520.29000
12.17490	2513.32000
12.18730	2509.12000
12.19960	2504.34000
12.21200	2501.06000
12.22440	2494.07000
12.23680	2492.60000
12.24910	2496.17000
12.26150	2495.26000
12.27390	2488.23000
12.28620	2480.97000
12.29860	2470.71000
12.31100	2464.12000
12.32330	2453.61000
12.33570	2446.01000
12.34810	2435.01000
12.36040	2430.53000
12.37280	2421.20000
12.38520	2420.81000
12.39760	2414.03000
12.40990	2413.58000
12.42230	2408.87000
12.43470	2403.78000
12.44700	2390.17000
12.45940	2380.55000
12.47180	2374.65000
12.48410	2375.16000
12.49650	2366.77000
12.50890	2364.97000
12.52120	2358.46000
12.53360	2356.64000
12.54600	2349.28000
12.55830	2344.42000
12.57070	2334.61000
12.58310	2328.02000
12.59550	2322.60000
12.60780	2325.13000
12.62020	2321.10000
12.63260	2313.77000
12.64490	2304.02000
12.65730	2291.17000
12.66970	2287.94000
12.68200	2298.85000
12.69440	2299.93000
12.70680	2298.80000
12.71910	2302.98000
12.73150	2339.80000
12.74390	2436.06000
12.75630	2646.29000
12.76860	2988.14000
12.78100	3404.27000
12.79330	3701.46000
12.80570	3718.92000
12.81810	3476.10000
12.83050	3091.60000
12.84280	2725.33000
12.85520	2489.48000
12.86760	2336.36000
12.87990	2260.11000
12.89230	2233.23000
12.90470	2227.88000
12.91700	2224.59000
12.92940	2231.65000
12.94180	2242.33000
12.95410	2273.04000
12.96650	2345.94000
12.97890	2503.55000
12.99120	2841.66000
13.00360	3441.98000
13.01600	4322.56000
13.02840	5290.04000
13.04070	5956.07000
13.05310	6046.20000
13.06550	5489.14000
13.07780	4537.99000
13.09020	3583.89000
13.10260	2913.23000
13.11490	2506.91000
13.12730	2305.34000
13.13970	2212.91000
13.15200	2168.01000
13.16440	2129.40000
13.17680	2112.22000
13.18920	2103.63000
13.20150	2101.29000
13.21390	2090.32000
13.22630	2085.34000
13.23860	2080.45000
13.25100	2080.66000
13.26340	2071.83000
13.27570	2059.08000
13.28810	2056.48000
13.30050	2046.18000
13.31280	2041.82000
13.32520	2038.90000
13.33760	2038.51000
13.35000	2035.83000
13.36230	2031.08000
13.37470	2024.02000
13.38710	2017.55000
13.39940	2014.00000
13.41180	2010.12000
13.42420	2004.44000
13.43650	2002.46000
13.44890	2000.45000
13.46130	1993.57000
13.47360	1987.72000
13.48600	1981.04000
13.49840	1980.50000
13.51080	1978.51000
13.52310	1974.71000
13.53550	1970.69000
13.54790	1968.85000
13.56020	1958.43000
13.57260	1948.02000
13.58500	1948.17000
13.59730	1944.10000
13.60970	1937.97000
13.62210	1933.76000
13.63440	1936.97000
13.64680	1937.55000
13.65920	1938.28000
13.67150	1931.91000
13.68390	1929.36000
13.69630	1925.69000
13.70870	1919.81000
13.72100	1914.67000
13.73340	1909.71000
13.74580	1904.68000
13.75810	1900.92000
13.77050	1896.07000
13.78290	1895.86000
13.79520	1893.87000
13.80760	1887.01000
13.82000	1884.16000
13.83230	1882.41000
13.84470	1877.36000
13.85710	1873.34000
13.86950	1874.57000
13.88180	1872.31000
13.89420	1869.11000
13.90660	1863.52000
13.91890	1850.09000
13.93130	1841.11000
13.94370	1847.31000
13.95600	1852.73000
13.96840	1844.32000
13.98080	1836.03000
13.99310	1836.00000
14.00550	1834.39000
14.01790	1825.81000
14.03020	1812.87000
14.04260	1809.58000
14.05500	1815.19000
14.06740	1816.07000
14.07970	1812.38000
14.09210	1811.45000
14.10440	1810.99000
14.11680	1802.84000
14.12920	1792.97000
14.14160	1792.60000
14.15390	1788.43000
14.16630	1787.27000
14.17870	1787.65000
14.19100	1783.03000
14.20340	1777.99000
14.21580	1773.24000
14.22810	1774.34000
14.24050	1771.80000
14.25290	1768.02000
14.26520	1762.56000
14.27760	1762.65000
14.29000	1762.46000
14.30240	1761.22000
14.31470	1753.50000
14.32710	1753.12000
14.33950	1746.19000
14.35180	1746.64000
14.36420	1747.74000
14.37660	1748.33000
14.38890	1741.49000
14.40130	1733.59000
14.41370	1729.44000
14.42600	1725.56000
14.43840	1723.99000
14.45080	1722.26000
14.46310	1720.85000
14.47550	1715.57000
14.48790	1704.85000
14.50030	1703.11000
14.51260	1700.22000
14.52500	1697.84000
14.53740	1696.34000
14.54970	1698.66000
14.56210	1695.87000
14.57450	1695.65000
14.58680	1696.18000
14.59920	1694.26000
14.61160	1685.29000
14.62390	1678.79000
14.63630	1674.70000
14.64870	1676.46000
14.66110	1670.79000
14.67340	1666.53000
14.68580	1670.40000
14.69820	1664.21000
14.71050	1659.14000
14.72290	1659.39000
14.73530	1660.38000
14.74760	1658.78000
14.76000	1657.70000
14.77240	1656.36000
14.78470	1658.72000
14.79710	1655.12000
14.80950	1649.81000
14.82190	1645.81000
14.83420	1644.38000
14.84660	1643.03000
14.85900	1643.23000
14.87130	1634.94000
14.88370	1626.29000
14.89610	1623.62000
14.90840	1630.41000
14.92080	1633.19000
14.93320	1637.78000
14.94550	1655.39000
14.95790	1699.28000
14.97030	1803.16000
14.98270	1986.95000
14.99500	2260.32000
15.00740	2526.69000
15.01980	2681.40000
15.03210	2625.53000
15.04450	2406.79000
15.05690	2152.04000
15.06920	1919.82000
15.08160	1770.23000
15.09400	1679.85000
15.10630	1636.29000
15.11870	1607.96000
15.13110	1597.40000
15.14340	1592.97000
15.15580	1593.64000
15.16820	1590.95000
15.18050	1584.10000
15.19290	1581.70000
15.20530	1580.24000
15.21770	1584.62000
15.23000	1582.41000
15.24240	1583.79000
15.25480	1592.30000
15.26710	1602.45000
15.27950	1619.88000
15.29190	1653.03000
15.30420	1723.04000
15.31660	1836.37000
15.32900	2025.09000
15.34130	2286.79000
15.35370	2580.60000
15.36610	2838.80000
15.37840	2923.41000
15.39080	2797.06000
15.40320	2516.07000
15.41560	2192.99000
15.42790	1935.95000
15.44030	1752.69000
15.45270	1652.61000
15.46500	1601.85000
15.47740	1578.81000
15.48980	1562.69000
15.50210	1550.12000
15.51450	1541.41000
15.52690	1534.07000
15.53930	1528.33000
15.55160	1520.66000
15.56400	1516.11000
15.57640	1515.36000
15.58870	1514.51000
15.60110	1518.69000
15.61350	1513.88000
15.62580	1509.04000
15.63820	1508.97000
15.65060	1504.22000
15.66290	1499.92000
15.67530	1501.26000
15.68770	1502.74000
15.70000	1504.06000
15.71240	1499.01000
15.72480	1494.34000
15.73720	1496.22000
15.74950	1495.52000
15.76190	1495.57000
15.77430	1489.01000
15.78660	1487.97000
15.79900	1489.79000
15.81140	1490.89000
15.82370	1493.54000
15.83610	1493.93000
15.84850	1500.15000
15.86080	1503.17000
15.87320	1517.16000
15.88560	1561.13000
15.89790	1660.15000
15.91030	1897.71000
15.92270	2403.69000
15.93500	3346.90000
15.94740	4613.41000
15.95980	5917.73000
15.97220	6628.88000
15.98450	6327.91000
15.99690	5244.14000
16.00930	3927.21000
16.02160	2825.32000
16.03400	2202.22000
16.04640	1940.04000
16.05870	1939.48000
16.07110	2102.00000
16.08350	2322.16000
16.09590	2492.69000
16.10820	2539.31000
16.12060	2434.23000
16.13300	2238.20000
16.14530	2004.79000
16.15770	1806.81000
16.17010	1669.87000
16.18240	1577.66000
16.19480	1523.41000
16.20720	1484.82000
16.21950	1463.09000
16.23190	1444.84000
16.24430	1432.29000
16.25660	1424.96000
16.26900	1421.38000
16.28140	1419.05000
16.29370	1412.90000
16.30610	1405.36000
16.31850	1400.48000
16.33090	1397.25000
16.34320	1396.03000
16.35560	1393.52000
16.36800	1392.81000
16.38030	1389.11000
16.39270	1383.05000
16.40510	1378.58000
16.41740	1374.50000
16.42980	1370.14000
16.44220	1369.62000
16.45450	1373.78000
16.46690	1378.13000
16.47930	1376.18000
16.49170	1367.41000
16.50400	1364.36000
16.51640	1367.44000
16.52880	1371.95000
16.54110	1376.87000
16.55350	1390.31000
16.56590	1408.19000
16.57820	1421.85000
16.59060	1430.47000
16.60300	1441.63000
16.61530	1454.19000
16.62770	1471.75000
16.64010	1487.73000
16.65240	1508.31000
16.66480	1535.34000
16.67720	1546.32000
16.68950	1541.12000
16.70190	1511.50000
16.71430	1469.46000
16.72670	1426.06000
16.73900	1388.82000
16.75140	1364.77000
16.76380	1350.65000
16.77610	1345.29000
16.78850	1342.65000
16.80090	1341.70000
16.81320	1336.44000
16.82560	1332.34000
16.83800	1336.51000
16.85040	1340.69000
16.86270	1346.29000
16.87510	1356.34000
16.88750	1363.02000
16.89980	1381.81000
16.91220	1401.99000
16.92460	1413.71000
16.93690	1414.03000
16.94930	1406.77000
16.96170	1395.60000
16.97400	1372.66000
16.98640	1346.25000
16.99880	1330.47000
17.01110	1318.39000
17.02350	1305.92000
17.03590	1302.56000
17.04830	1302.84000
17.06060	1301.48000
17.07300	1294.42000
17.08540	1295.84000
17.09770	1295.30000
17.11010	1291.94000
17.12250	1293.42000
17.13480	1294.21000
17.14720	1283.39000
17.15960	1278.48000
17.17190	1280.87000
17.18430	1280.87000
17.19670	1282.58000
17.20900	1284.14000
17.22140	1283.97000
17.23380	1280.85000
17.24610	1274.29000
17.25850	1271.92000
17.27090	1269.07000
17.28330	1269.44000
17.29560	1269.00000
17.30800	1272.99000
17.32040	1270.46000
17.33270	1270.81000
17.34510	1265.47000
17.35750	1262.94000
17.36980	1261.93000
17.38220	1262.64000
17.39460	1261.05000
17.40700	1257.44000
17.41930	1252.70000
17.43170	1252.82000
17.44410	1255.36000
17.45640	1254.85000
17.46880	1254.42000
17.48120	1251.85000
17.49350	1249.73000
17.50590	1245.00000
17.51830	1241.61000
17.53060	1243.52000
17.54300	1246.05000
17.55540	1246.41000
17.56770	1242.74000
17.58010	1240.02000
17.59250	1237.77000
17.60480	1238.27000
17.61720	1240.77000
17.62960	1235.29000
17.64200	1235.68000
17.65430	1236.05000
17.66670	1235.63000
17.67910	1236.48000
17.69140	1239.79000
17.70380	1242.13000
17.71620	1245.46000
17.72850	1250.15000
17.74090	1255.32000
17.75330	1261.19000
17.76570	1272.72000
17.77800	1293.83000
17.79040	1330.16000
17.80280	1396.73000
17.81510	1531.34000
17.82750	1823.51000
17.83990	2397.35000
17.85220	3393.18000
17.86460	4741.55000
17.87700	6107.00000
17.88930	6929.88000
17.90170	6883.26000
17.91410	6000.60000
17.92640	4683.57000
17.93880	3477.39000
17.95120	2563.72000
17.96350	2041.08000
17.97590	1770.33000
17.98830	1647.23000
18.00070	1563.53000
18.01300	1492.16000
18.02540	1418.94000
18.03780	1355.51000
18.05010	1309.89000
18.06250	1283.47000
18.07490	1269.71000
18.08720	1265.81000
18.09960	1275.87000
18.11200	1292.37000
18.12440	1335.02000
18.13670	1420.53000
18.14910	1581.08000
18.16150	1876.65000
18.17380	2382.94000
18.18620	3045.11000
18.19860	3669.94000
18.21090	4002.97000
18.22330	3859.60000
18.23570	3339.72000
18.24800	2718.29000
18.26040	2197.83000
18.27280	1908.06000
18.28510	1771.95000
18.29750	1723.00000
18.30990	1682.66000
18.32220	1610.59000
18.33460	1501.37000
18.34700	1394.13000
18.35940	1300.83000
18.37170	1246.27000
18.38410	1208.40000
18.39650	1186.85000
18.40880	1171.34000
18.42120	1163.81000
18.43360	1161.53000
18.44590	1158.71000
18.45830	1154.26000
18.47070	1152.63000
18.48300	1152.14000
18.49540	1152.33000
18.50780	1151.97000
18.52010	1151.86000
18.53250	1154.73000
18.54490	1153.68000
18.55730	1151.59000
18.56960	1149.98000
18.58200	1145.37000
18.59440	1141.49000
18.60670	1138.00000
18.61910	1135.45000
18.63150	1138.68000
18.64380	1146.15000
18.65620	1152.95000
18.66860	1170.61000
18.68100	1197.19000
18.69330	1237.51000
18.70570	1300.49000
18.71810	1397.81000
18.73040	1524.88000
18.74280	1674.53000
18.75520	1814.73000
18.76750	1906.73000
18.77990	1901.14000
18.79230	1795.69000
18.80460	1628.32000
18.81700	1448.08000
18.82940	1316.45000
18.84170	1232.41000
18.85410	1187.25000
18.86650	1155.55000
18.87880	1133.98000
18.89120	1122.72000
18.90360	1118.23000
18.91600	1115.47000
18.92830	1114.60000
18.94070	1114.79000
18.95310	1113.67000
18.96540	1116.48000
18.97780	1118.92000
18.99020	1118.64000
19.00250	1118.03000
19.01490	1118.03000
19.02730	1124.82000
19.03960	1141.44000
19.05200	1170.71000
19.06440	1226.81000
19.07680	1333.40000
19.08910	1515.19000
19.10150	1764.64000
19.11390	2040.96000
19.12620	2245.99000
19.13860	2271.34000
19.15100	2112.75000
19.16330	1848.72000
19.17570	1580.89000
19.18810	1380.50000
19.20040	1251.68000
19.21280	1181.26000
19.22520	1141.46000
19.23750	1125.15000
19.24990	1110.24000
19.26230	1095.84000
19.27460	1086.47000
19.28700	1084.30000
19.29940	1082.49000
19.31180	1080.83000
19.32410	1077.07000
19.33650	1072.71000
19.34890	1070.80000
19.36120	1070.03000
19.37360	1071.61000
19.38600	1068.93000
19.39830	1064.91000
19.41070	1062.19000
19.42310	1062.55000
19.43550	1065.65000
19.44780	1066.56000
19.46020	1063.27000
19.47260	1062.82000
19.48490	1063.71000
19.49730	1062.48000
19.50970	1058.88000
19.52200	1061.80000
19.53440	1067.97000
19.54680	1069.14000
19.55910	1068.23000
19.57150	1065.69000
19.58390	1066.92000
19.59620	1068.85000
19.60860	1073.19000
19.62100	1086.98000
19.63330	1111.81000
19.64570	1161.82000
19.65810	1233.82000
19.67050	1326.64000
19.68280	1394.81000
19.69520	1412.43000
19.70760	1377.91000
19.71990	1297.88000
19.73230	1215.31000
19.74470	1152.62000
19.75700	1108.90000
19.76940	1082.88000
19.78180	1071.06000
19.79410	1066.84000
19.80650	1065.59000
19.81890	1063.30000
19.83120	1061.04000
19.84360	1060.87000
19.85600	1065.81000
19.86840	1078.88000
19.88070	1094.49000
19.89310	1107.20000
19.90550	1134.45000
19.91780	1189.57000
19.93020	1271.01000
19.94260	1377.32000
19.95490	1475.34000
19.96730	1542.49000
19.97970	1573.61000
19.99210	1582.43000
20.00440	1577.99000
20.01680	1569.42000
20.02920	1537.20000
20.04150	1461.83000
20.05390	1364.18000
20.06630	1273.29000
20.07860	1202.55000
20.09100	1162.43000
20.10340	1143.08000
20.11570	1134.69000
20.12810	1128.79000
20.14050	1121.91000
20.15280	1111.53000
20.16520	1097.68000
20.17760	1082.41000
20.18990	1071.04000
20.20230	1063.50000
20.21470	1059.75000
20.22710	1061.56000
20.23940	1064.12000
20.25180	1062.78000
20.26420	1060.11000
20.27650	1062.17000
20.28890	1062.43000
20.30130	1056.69000
20.31360	1053.15000
20.32600	1055.48000
20.33840	1056.22000
20.35080	1057.78000
20.36310	1057.94000
20.37550	1058.64000
20.38790	1058.80000
20.40020	1055.90000
20.41260	1055.67000
20.42500	1059.66000
20.43730	1067.93000
20.44970	1074.43000
20.46210	1079.56000
20.47440	1090.64000
20.48680	1115.87000
20.49920	1154.36000
20.51150	1201.54000
20.52390	1257.13000
20.53630	1301.09000
20.54860	1328.51000
20.56100	1329.58000
20.57340	1317.32000
20.58570	1301.35000
20.59810	1293.68000
20.61050	1284.16000
20.62290	1266.46000
20.63520	1236.35000
20.64760	1197.26000
20.66000	1155.65000
20.67230	1120.10000
20.68470	1094.80000
20.69710	1078.77000
20.70940	1068.86000
20.72180	1067.03000
20.73420	1066.14000
20.74660	1063.49000
20.75890	1066.54000
20.77130	1080.30000
20.78370	1102.47000
20.79600	1119.80000
20.80840	1122.15000
20.82080	1110.63000
20.83310	1093.54000
20.84550	1080.40000
20.85790	1067.51000
20.87020	1053.94000
20.88260	1045.58000
20.89500	1038.95000
20.90730	1037.31000
20.91970	1038.94000
20.93210	1041.64000
20.94440	1039.05000
20.95680	1036.05000
20.96920	1034.38000
20.98160	1030.42000
20.99390	1029.73000
21.00630	1030.11000
21.01870	1032.35000
21.03100	1034.06000
21.04340	1038.98000
21.05580	1040.83000
21.06810	1043.07000
21.08050	1056.28000
21.09290	1074.43000
21.10520	1110.83000
21.11760	1157.46000
21.13000	1207.53000
21.14240	1226.42000
21.15470	1210.55000
21.16710	1165.38000
21.17950	1113.76000
21.19180	1075.81000
21.20420	1050.63000
21.21660	1037.32000
21.22890	1031.49000
21.24130	1027.03000
21.25370	1027.61000
21.26610	1028.78000
21.27840	1028.12000
21.29080	1023.66000
21.30320	1024.64000
21.31550	1026.57000
21.32790	1026.22000
21.34030	1023.61000
21.35260	1020.92000
21.36500	1020.96000
21.37740	1020.35000
21.38970	1020.69000
21.40210	1020.84000
21.41450	1023.03000
21.42680	1028.08000
21.43920	1030.08000
21.45160	1040.17000
21.46390	1047.69000
21.47630	1061.38000
21.48870	1084.88000
21.50100	1133.02000
21.51340	1203.66000
21.52580	1293.38000
21.53820	1390.54000
21.55050	1452.27000
21.56290	1468.07000
21.57530	1448.28000
21.58760	1400.09000
21.60000	1330.16000
21.61240	1247.62000
21.62470	1169.93000
21.63710	1108.73000
21.64950	1066.74000
21.66190	1045.57000
21.67420	1034.77000
21.68660	1020.47000
21.69900	1007.36000
21.71130	1002.57000
21.72370	1002.93000
21.73610	1001.57000
21.74840	1000.53000
21.76080	1002.68000
21.77320	1007.52000
21.78550	1006.46000
21.79790	998.55000
21.81030	992.94000
21.82260	994.46000
21.83500	997.36000
21.84740	1000.41000
21.85970	1001.52000
21.87210	1003.55000
21.88450	1000.84000
21.89690	994.98000
21.90920	989.67000
21.92160	986.99000
21.93400	989.65000
21.94630	989.29000
21.95870	992.50000
21.97110	993.99000
21.98340	997.23000
21.99580	998.60000
22.00820	997.64000
22.02060	1001.07000
22.03290	1006.37000
22.04530	1013.96000
22.05770	1020.87000
22.07000	1030.44000
22.08240	1039.70000
22.09480	1051.33000
22.10710	1064.10000
22.11950	1082.08000
22.13190	1103.54000
22.14420	1118.13000
22.15660	1117.05000
22.16900	1107.12000
22.18130	1090.05000
22.19370	1069.79000
22.20610	1039.45000
22.21840	1018.23000
22.23080	1006.04000
22.24320	1002.10000
22.25560	995.99000
22.26790	989.93000
22.28030	988.88000
22.29270	986.83000
22.30500	981.57000
22.31740	982.78000
22.32980	980.66000
22.34210	980.45000
22.35450	981.38000
22.36690	979.00000
22.37920	978.22000
22.39160	976.02000
22.40400	973.90000
22.41640	974.71000
22.42870	977.41000
22.44110	977.38000
22.45350	977.91000
22.46580	976.14000
22.47820	970.89000
22.49060	968.81000
22.50290	971.10000
22.51530	975.34000
22.52770	974.25000
22.54000	970.30000
22.55240	969.89000
22.56480	973.58000
22.57720	975.52000
22.58950	975.39000
22.60190	974.06000
22.61430	970.96000
22.62660	975.88000
22.63900	980.95000
22.65140	984.98000
22.66370	991.00000
22.67610	997.86000
22.68850	1005.84000
22.70080	1022.54000
22.71320	1054.17000
22.72560	1092.23000
22.73790	1123.30000
22.75030	1135.56000
22.76270	1127.53000
22.77500	1101.17000
22.78740	1068.53000
22.79980	1031.58000
22.81220	1007.22000
22.82450	988.92000
22.83690	982.98000
22.84930	979.36000
22.86160	974.91000
22.87400	974.47000
22.88640	974.99000
22.89870	977.09000
22.91110	981.57000
22.92350	992.09000
22.93590	1006.97000
22.94820	1045.07000
22.96060	1123.08000
22.97300	1260.54000
22.98530	1436.22000
22.99770	1588.86000
23.01010	1645.10000
23.02240	1585.64000
23.03480	1475.56000
23.04720	1384.40000
23.05950	1355.43000
23.07190	1347.60000
23.08430	1319.22000
23.09660	1261.00000
23.10900	1180.81000
23.12140	1107.14000
23.13370	1050.76000
23.14610	1020.52000
23.15850	1002.50000
23.17090	987.20000
23.18320	973.58000
23.19560	975.20000
23.20800	987.27000
23.22030	1013.25000
23.23270	1056.61000
23.24510	1112.33000
23.25740	1161.93000
23.26980	1166.87000
23.28220	1128.07000
23.29450	1066.15000
23.30690	1013.85000
23.31930	986.33000
23.33170	976.60000
23.34400	970.14000
23.35640	974.00000
23.36880	985.27000
23.38110	1009.96000
23.39350	1054.48000
23.40590	1129.03000
23.41820	1247.90000
23.43060	1382.00000
23.44300	1481.76000
23.45530	1500.07000
23.46770	1422.38000
23.48010	1285.96000
23.49240	1145.48000
23.50480	1048.50000
23.51720	1000.09000
23.52950	978.71000
23.54190	968.34000
23.55430	958.77000
23.56670	954.17000
23.57900	950.32000
23.59140	950.22000
23.60380	952.37000
23.61610	952.02000
23.62850	949.06000
23.64090	949.03000
23.65320	946.31000
23.66560	947.65000
23.67800	944.06000
23.69040	942.58000
23.70270	944.07000
23.71510	942.18000
23.72750	938.90000
23.73980	938.25000
23.75220	938.62000
23.76460	940.50000
23.77690	938.81000
23.78930	941.82000
23.80170	945.79000
23.81400	950.10000
23.82640	947.95000
23.83880	941.98000
23.85110	941.04000
23.86350	942.65000
23.87590	946.33000
23.88830	953.63000
23.90060	968.67000
23.91300	989.52000
23.92540	1020.23000
23.93770	1053.74000
23.95010	1074.36000
23.96250	1073.42000
23.97480	1055.17000
23.98720	1028.58000
23.99960	1021.10000
24.01190	1042.71000
24.02430	1097.27000
24.03670	1175.71000
24.04900	1253.28000
24.06140	1289.85000
24.07380	1254.51000
24.08610	1169.39000
24.09850	1073.34000
24.11090	1004.80000
24.12330	969.47000
24.13560	951.07000
24.14800	937.32000
24.16040	930.58000
24.17270	934.90000
24.18510	935.20000
24.19750	935.82000
24.20980	939.61000
24.22220	941.82000
24.23460	939.50000
24.24700	934.09000
24.25930	928.27000
24.27170	926.11000
24.28410	928.73000
24.29640	927.06000
24.30880	927.01000
24.32120	927.77000
24.33350	930.39000
24.34590	932.85000
24.35830	932.61000
24.37060	933.72000
24.38300	933.70000
24.39540	930.39000
24.40770	937.11000
24.42010	945.59000
24.43250	945.32000
24.44480	944.91000
24.45720	951.78000
24.46960	961.62000
24.48200	981.36000
24.49430	1012.58000
24.50670	1062.89000
24.51910	1138.90000
24.53140	1238.57000
24.54380	1351.86000
24.55620	1438.17000
24.56850	1456.18000
24.58090	1416.22000
24.59330	1353.70000
24.60560	1318.71000
24.61800	1331.17000
24.63040	1385.56000
24.64280	1437.72000
24.65510	1437.91000
24.66750	1378.27000
24.67990	1288.45000
24.69220	1200.88000
24.70460	1127.33000
24.71700	1063.71000
24.72930	1018.11000
24.74170	985.10000
24.75410	968.13000
24.76640	953.24000
24.77880	943.78000
24.79120	938.01000
24.80350	931.20000
24.81590	927.71000
24.82830	929.07000
24.84060	927.71000
24.85300	928.48000
24.86540	925.97000
24.87780	930.76000
24.89010	930.47000
24.90250	924.10000
24.91490	922.58000
24.92720	925.34000
24.93960	927.72000
24.95200	922.30000
24.96430	921.77000
24.97670	922.59000
24.98910	922.23000
25.00150	921.95000
25.01380	925.89000
25.02620	929.53000
25.03860	931.63000
25.05090	931.19000
25.06330	933.65000
25.07570	937.52000
25.08800	946.28000
25.10040	960.61000
25.11280	976.30000
25.12510	983.71000
25.13750	981.21000
25.14990	974.75000
25.16220	965.87000
25.17460	955.53000
25.18700	946.30000
25.19930	935.89000
25.21170	928.72000
25.22410	927.36000
25.23650	928.23000
25.24880	925.55000
25.26120	920.28000
25.27360	920.91000
25.28590	924.00000
25.29830	922.97000
25.31070	926.74000
25.32300	933.49000
25.33540	947.81000
25.34780	966.88000
25.36010	992.55000
25.37250	1025.16000
25.38490	1071.05000
25.39730	1108.27000
25.40960	1124.75000
25.42200	1105.95000
25.43440	1068.09000
25.44670	1038.18000
25.45910	1030.40000
25.47150	1037.46000
25.48380	1056.21000
25.49620	1073.72000
25.50860	1084.78000
25.52090	1089.11000
25.53330	1089.38000
25.54570	1090.66000
25.55810	1093.46000
25.57040	1087.42000
25.58280	1067.23000
25.59520	1043.86000
25.60750	1026.94000
25.61990	1012.72000
25.63230	1004.15000
25.64460	1010.64000
25.65700	1029.08000
25.66940	1061.47000
25.68170	1125.47000
25.69410	1245.34000
25.70650	1450.63000
25.71880	1742.37000
25.73120	2068.15000
25.74360	2341.80000
25.75590	2472.70000
25.76830	2459.47000
25.78070	2350.79000
25.79310	2189.09000
25.80540	1990.40000
25.81780	1754.23000
25.83020	1518.59000
25.84250	1314.17000
25.85490	1170.57000
25.86730	1085.51000
25.87960	1037.82000
25.89200	1007.57000
25.90440	987.05000
25.91680	971.16000
25.92910	961.62000
25.94150	953.00000
25.95390	947.07000
25.96620	952.49000
25.97860	953.21000
25.99100	950.15000
26.00330	954.82000
26.01570	961.99000
26.02810	962.04000
26.04040	965.06000
26.05280	967.60000
26.06520	966.88000
26.07750	955.97000
26.08990	949.79000
26.10230	948.70000
26.11460	946.68000
26.12700	944.51000
26.13940	944.80000
26.15180	945.99000
26.16410	952.93000
26.17650	965.04000
26.18890	980.80000
26.20120	1002.24000
26.21360	1040.86000
26.22600	1100.93000
26.23830	1172.25000
26.25070	1251.93000
26.26310	1331.19000
26.27550	1375.21000
26.28780	1362.34000
26.30020	1312.06000
26.31260	1246.16000
26.32490	1191.36000
26.33730	1160.14000
26.34970	1153.43000
26.36200	1152.21000
26.37440	1151.46000
26.38680	1143.18000
26.39910	1131.40000
26.41150	1114.60000
26.42390	1090.02000
26.43620	1056.82000
26.44860	1017.40000
26.46100	982.56000
26.47330	961.10000
26.48570	953.94000
26.49810	942.88000
26.51040	933.88000
26.52280	922.33000
26.53520	916.52000
26.54760	917.96000
26.55990	918.72000
26.57230	914.11000
26.58470	910.44000
26.59700	908.32000
26.60940	907.70000
26.62180	910.99000
26.63410	909.26000
26.64650	908.00000
26.65890	906.63000
26.67120	910.08000
26.68360	908.42000
26.69600	908.38000
26.70840	910.46000
26.72070	915.84000
26.73310	921.24000
26.74550	929.84000
26.75780	940.92000
26.77020	950.03000
26.78260	950.68000
26.79490	949.14000
26.80730	943.90000
26.81970	943.50000
26.83210	937.40000
26.84440	927.05000
26.85680	918.44000
26.86920	908.44000
26.88150	904.46000
26.89390	905.26000
26.90630	911.25000
26.91860	915.71000
26.93100	914.52000
26.94340	915.82000
26.95570	914.49000
26.96810	915.98000
26.98050	916.66000
26.99280	920.99000
27.00520	928.75000
27.01760	935.24000
27.02990	946.58000
27.04230	962.41000
27.05470	980.43000
27.06710	1012.52000
27.07940	1056.16000
27.09180	1113.88000
27.10420	1172.16000
27.11650	1210.59000
27.12890	1221.24000
27.14130	1196.63000
27.15360	1148.74000
27.16600	1091.38000
27.17840	1043.88000
27.19070	1008.01000
27.20310	981.93000
27.21550	963.20000
27.22790	948.72000
27.24020	937.34000
27.25260	933.15000
27.26500	926.38000
27.27730	918.05000
27.28970	918.54000
27.30210	921.93000
27.31440	923.08000
27.32680	920.13000
27.33920	916.88000
27.35150	915.22000
27.36390	918.85000
27.37630	926.04000
27.38860	928.41000
27.40100	930.47000
27.41340	933.55000
27.42570	943.73000
27.43810	954.92000
27.45050	967.17000
27.46290	978.42000
27.47520	993.75000
27.48760	1018.26000
27.50000	1045.09000
27.51230	1068.53000
27.52470	1077.61000
27.53710	1081.18000
27.54940	1081.80000
27.56180	1091.37000
27.57420	1104.25000
27.58660	1114.94000
27.59890	1114.90000
27.61130	1101.60000
27.62370	1073.42000
27.63600	1037.51000
27.64840	1014.87000
27.66080	995.73000
27.67310	974.76000
27.68550	954.91000
27.69790	939.97000
27.71020	931.95000
27.72260	928.09000
27.73500	925.09000
27.74730	921.52000
27.75970	923.52000
27.77210	927.15000
27.78440	932.71000
27.79680	942.76000
27.80920	950.46000
27.82160	947.74000
27.83390	941.43000
27.84630	932.06000
27.85870	926.93000
27.87100	924.84000
27.88340	927.93000
27.89580	920.29000
27.90810	917.89000
27.92050	918.62000
27.93290	920.88000
27.94530	919.10000
27.95760	921.24000
27.97000	924.17000
27.98230	916.11000
27.99470	907.36000
28.00710	908.35000
28.01950	911.89000
28.03180	913.94000
28.04420	915.65000
28.05660	915.13000
28.06890	916.54000
28.08130	920.17000
28.09370	920.77000
28.10600	923.20000
28.11840	919.95000
28.13080	918.35000
28.14320	922.56000
28.15550	922.79000
28.16790	920.96000
28.18030	920.51000
28.19260	914.89000
28.20500	911.41000
28.21740	915.26000
28.22970	915.70000
28.24210	910.94000
28.25450	919.00000
28.26680	922.23000
28.27920	917.85000
28.29160	918.39000
28.30390	924.21000
28.31630	924.26000
28.32870	919.25000
28.34100	915.05000
28.35340	918.02000
28.36580	924.82000
28.37820	921.51000
28.39050	914.87000
28.40290	916.38000
28.41530	917.79000
28.42760	920.84000
28.44000	926.90000
28.45240	931.03000
28.46470	927.07000
28.47710	923.21000
28.48950	924.06000
28.50190	921.02000
28.51420	919.60000
28.52660	921.61000
28.53900	926.21000
28.55130	930.05000
28.56370	929.91000
28.57610	928.46000
28.58840	923.07000
28.60080	921.27000
28.61320	924.61000
28.62550	925.86000
28.63790	926.22000
28.65030	933.08000
28.66260	935.99000
28.67500	935.30000
28.68740	941.03000
28.69970	944.80000
28.71210	951.13000
28.72450	965.79000
28.73690	973.00000
28.74920	988.38000
28.76160	1018.02000
28.77400	1049.01000
28.78630	1082.87000
28.79870	1121.23000
28.81110	1162.55000
28.82340	1198.91000
28.83580	1219.07000
28.84820	1213.51000
28.86060	1176.35000
28.87290	1119.17000
28.88530	1058.04000
28.89770	1006.79000
28.91000	979.26000
28.92240	965.29000
28.93480	957.94000
28.94710	953.39000
28.95950	948.24000
28.97190	946.85000
28.98420	947.90000
28.99660	950.29000
29.00900	958.78000
29.02130	973.27000
29.03370	987.57000
29.04610	1003.84000
29.05850	1025.11000
29.07080	1050.91000
29.08320	1070.62000
29.09560	1087.22000
29.10790	1103.39000
29.12030	1126.81000
29.13270	1157.44000
29.14500	1189.75000
29.15740	1207.17000
29.16980	1197.06000
29.18210	1166.64000
29.19450	1119.78000
29.20690	1071.23000
29.21920	1030.02000
29.23160	1003.25000
29.24400	983.72000
29.25630	968.52000
29.26870	964.16000
29.28110	969.92000
29.29350	972.33000
29.30580	967.07000
29.31820	960.48000
29.33060	962.95000
29.34290	964.29000
29.35530	960.48000
29.36770	957.76000
29.38000	953.52000
29.39240	946.49000
29.40480	944.60000
29.41710	940.95000
29.42950	938.86000
29.44190	939.03000
29.45430	935.17000
29.46660	929.99000
29.47900	933.36000
29.49140	939.85000
29.50370	942.54000
29.51610	943.60000
29.52850	947.95000
29.54080	952.61000
29.55320	960.67000
29.56560	967.03000
29.57790	967.05000
29.59030	965.45000
29.60270	960.94000
29.61500	956.97000
29.62740	956.81000
29.63980	965.50000
29.65220	979.69000
29.66450	1002.47000
29.67690	1039.84000
29.68930	1091.44000
29.70160	1154.06000
29.71400	1211.30000
29.72640	1230.05000
29.73870	1203.58000
29.75110	1149.96000
29.76350	1085.29000
29.77580	1032.73000
29.78820	996.18000
29.80060	972.05000
29.81300	961.87000
29.82530	953.21000
29.83770	951.91000
29.85010	960.77000
29.86240	969.80000
29.87480	979.83000
29.88720	990.64000
29.89950	992.22000
29.91190	991.95000
29.92430	985.49000
29.93660	970.42000
29.94900	963.12000
29.96140	962.35000
29.97380	957.60000
29.98610	949.88000
29.99850	945.69000
30.01080	945.35000
30.02320	942.34000
30.03560	937.24000
30.04800	940.91000
30.06030	946.29000
30.07270	943.08000
30.08510	938.29000
30.09740	937.36000
30.10980	940.24000
30.12220	940.40000
30.13450	939.73000
30.14690	943.34000
30.15930	940.82000
30.17170	941.02000
30.18400	941.48000
30.19640	936.59000
30.20880	936.86000
30.22110	947.53000
30.23350	955.30000
30.24590	952.32000
30.25820	955.30000
30.27060	967.94000
30.28300	976.85000
30.29530	982.16000
30.30770	979.22000
30.32010	974.12000
30.33240	967.20000
30.34480	957.74000
30.35720	947.10000
30.36950	944.95000
30.38190	940.27000
30.39430	935.92000
30.40670	936.14000
30.41900	936.60000
30.43140	937.40000
30.44380	939.99000
30.45610	942.05000
30.46850	941.31000
30.48090	942.89000
30.49320	945.70000
30.50560	946.35000
30.51800	947.63000
30.53040	950.99000
30.54270	957.53000
30.55510	973.37000
30.56750	992.79000
30.57980	1020.15000
30.59220	1054.77000
30.60460	1095.72000
30.61690	1133.51000
30.62930	1141.60000
30.64170	1115.85000
30.65400	1075.19000
30.66640	1024.29000
30.67880	989.52000
30.69110	970.87000
30.70350	962.26000
30.71590	960.03000
30.72820	952.08000
30.74060	951.82000
30.75300	954.42000
30.76540	949.91000
30.77770	948.43000
30.79010	953.85000
30.80250	952.21000
30.81480	945.46000
30.82720	946.60000
30.83960	947.64000
30.85190	938.81000
30.86430	940.32000
30.87670	943.49000
30.88900	945.08000
30.90140	947.73000
30.91380	952.42000
30.92610	962.13000
30.93850	977.39000
30.95090	997.53000
30.96330	998.87000
30.97560	993.68000
30.98800	982.99000
31.00040	965.85000
31.01270	966.63000
31.02510	977.27000
31.03750	982.91000
31.04980	990.16000
31.06220	985.69000
31.07460	967.99000
31.08700	952.77000
31.09930	950.59000
31.11170	947.29000
31.12410	942.34000
31.13640	934.92000
31.14880	929.67000
31.16120	933.10000
31.17350	935.75000
31.18590	931.43000
31.19830	927.18000
31.21060	931.35000
31.22300	933.79000
31.23540	930.04000
31.24770	925.08000
31.26010	930.03000
31.27250	934.60000
31.28480	933.08000
31.29720	931.01000
31.30960	933.29000
31.32200	933.53000
31.33430	936.68000
31.34670	940.02000
31.35910	934.87000
31.37140	924.15000
31.38380	925.15000
31.39620	939.04000
31.40850	944.37000
31.42090	939.02000
31.43330	942.23000
31.44560	942.83000
31.45800	939.31000
31.47040	942.99000
31.48280	948.12000
31.49510	953.99000
31.50750	965.58000
31.51990	965.41000
31.53220	957.11000
31.54460	956.43000
31.55700	959.34000
31.56930	962.33000
31.58170	972.13000
31.59410	977.51000
31.60640	970.80000
31.61880	967.06000
31.63120	969.13000
31.64360	973.38000
31.65590	978.57000
31.66830	986.80000
31.68060	991.96000
31.69300	994.63000
31.70540	991.05000
31.71780	977.85000
31.73010	962.12000
31.74250	951.64000
31.75490	943.95000
31.76720	939.26000
31.77960	937.60000
31.79200	937.73000
31.80430	932.66000
31.81670	931.95000
31.82910	930.87000
31.84140	927.32000
31.85380	927.43000
31.86620	922.92000
31.87860	920.30000
31.89090	923.67000
31.90330	924.22000
31.91570	924.84000
31.92800	926.04000
31.94040	925.84000
31.95280	925.95000
31.96510	927.91000
31.97750	935.91000
31.98990	941.91000
32.00220	939.40000
32.01460	940.39000
32.02700	947.84000
32.03940	951.64000
32.05170	953.83000
32.06410	951.11000
32.07650	946.78000
32.08880	944.84000
32.10120	948.76000
32.11360	964.15000
32.12590	981.77000
32.13830	984.85000
32.15070	974.38000
32.16300	962.90000
32.17540	960.22000
32.18780	962.60000
32.20010	966.21000
32.21250	970.74000
32.22490	974.45000
32.23720	970.92000
32.24960	955.62000
32.26200	942.99000
32.27440	934.61000
32.28670	932.23000
32.29910	932.20000
32.31150	933.34000
32.32380	932.19000
32.33620	932.28000
32.34860	927.93000
32.36090	929.87000
32.37330	937.19000
32.38570	935.54000
32.39810	932.49000
32.41040	939.97000
32.42280	946.91000
32.43520	953.33000
32.44750	949.56000
32.45990	945.28000
32.47230	946.55000
32.48460	943.74000
32.49700	941.29000
32.50940	946.09000
32.52170	947.97000
32.53410	960.28000
32.54650	973.47000
32.55880	984.79000
32.57120	1000.02000
32.58360	1021.20000
32.59590	1032.39000
32.60830	1025.09000
32.62070	1014.93000
32.63310	1013.13000
32.64540	1011.98000
32.65780	1005.52000
32.67020	993.57000
32.68250	980.04000
32.69490	964.06000
32.70730	955.51000
32.71960	947.69000
32.73200	943.64000
32.74440	942.03000
32.75680	945.33000
32.76910	951.55000
32.78150	952.33000
32.79380	942.81000
32.80620	936.80000
32.81860	936.41000
32.83100	939.03000
32.84330	942.37000
32.85570	934.30000
32.86810	931.24000
32.88040	931.65000
32.89280	930.57000
32.90520	934.43000
32.91750	932.74000
32.92990	931.69000
32.94230	934.44000
32.95460	935.39000
32.96700	940.58000
32.97940	940.07000
32.99180	939.32000
33.00410	936.91000
33.01650	939.28000
33.02890	940.80000
33.04120	943.01000
33.05360	944.65000
33.06600	952.64000
33.07830	963.08000
33.09070	977.23000
33.10310	988.94000
33.11550	999.50000
33.12780	999.72000
33.14020	997.51000
33.15250	996.21000
33.16490	986.35000
33.17730	987.01000
33.18970	982.94000
33.20200	980.10000
33.21440	988.57000
33.22680	983.30000
33.23910	982.81000
33.25150	992.56000
33.26390	996.41000
33.27620	1001.80000
33.28860	1009.62000
33.30100	1011.16000
33.31330	1009.15000
33.32570	995.05000
33.33810	976.04000
33.35050	961.45000
33.36280	948.20000
33.37520	945.57000
33.38760	941.00000
33.39990	936.30000
33.41230	931.85000
33.42470	932.14000
33.43700	930.83000
33.44940	932.89000
33.46180	935.85000
33.47410	933.97000
33.48650	936.03000
33.49890	941.61000
33.51120	946.99000
33.52360	945.39000
33.53600	941.25000
33.54840	941.57000
33.56070	944.98000
33.57310	946.78000
33.58550	949.74000
33.59780	949.50000
33.61020	951.51000
33.62260	957.33000
33.63490	957.22000
33.64730	964.06000
33.65970	974.27000
33.67200	985.82000
33.68440	998.67000
33.69680	1006.02000
33.70920	1006.59000
33.72150	1008.11000
33.73390	1001.29000
33.74630	985.13000
33.75860	975.72000
33.77100	972.09000
33.78340	960.03000
33.79570	952.34000
33.80810	958.50000
33.82050	963.80000
33.83280	965.79000
33.84520	973.68000
33.85760	972.68000
33.87000	963.34000
33.88230	960.98000
33.89470	955.53000
33.90700	952.34000
33.91940	958.34000
33.93180	964.44000
33.94420	966.96000
33.95650	969.42000
33.96890	972.43000
33.98130	960.48000
33.99360	956.25000
34.00600	959.24000
34.01840	968.59000
34.03070	974.46000
34.04310	971.10000
34.05550	976.64000
34.06790	997.82000
34.08020	1008.20000
34.09260	1008.31000
34.10500	1011.24000
34.11730	1003.99000
34.12970	992.43000
34.14210	986.97000
34.15440	984.62000
34.16680	978.76000
34.17920	975.06000
34.19150	970.07000
34.20390	966.99000
34.21630	959.78000
34.22860	960.70000
34.24100	970.49000
34.25340	973.73000
34.26570	967.27000
34.27810	959.17000
34.29050	964.23000
34.30290	968.83000
34.31520	968.85000
34.32760	965.73000
34.34000	960.36000
34.35230	960.12000
34.36470	962.83000
34.37710	969.00000
34.38940	970.96000
34.40180	968.73000
34.41420	970.63000
34.42660	968.18000
34.43890	962.28000
34.45130	963.72000
34.46370	963.27000
34.47600	964.17000
34.48840	962.22000
34.50080	960.64000
34.51310	960.98000
34.52550	956.34000
34.53790	952.57000
34.55020	952.80000
34.56260	958.08000
34.57500	962.32000
34.58730	966.06000
34.59970	963.95000
34.61210	959.38000
34.62440	960.17000
34.63680	972.00000
34.64920	981.71000
34.66160	988.41000
34.67390	996.60000
34.68630	1011.34000
34.69870	1026.42000
34.71100	1040.78000
34.72340	1051.67000
34.73580	1053.26000
34.74810	1052.58000
34.76050	1050.42000
34.77290	1055.70000
34.78530	1064.51000
34.79760	1077.65000
34.81000	1094.28000
34.82230	1104.12000
34.83470	1100.47000
34.84710	1089.12000
34.85950	1093.84000
34.87180	1118.83000
34.88420	1167.38000
34.89660	1230.09000
34.90890	1291.21000
34.92130	1311.29000
34.93370	1273.01000
34.94600	1197.54000
34.95840	1116.64000
34.97080	1049.68000
34.98310	1017.32000
34.99550	1002.85000
35.00790	989.91000
35.02030	979.84000
35.03260	974.79000
35.04500	972.08000
35.05740	964.29000
35.06970	960.79000
35.08210	963.34000
35.09450	961.63000
35.10680	960.25000
35.11920	962.79000
35.13160	963.95000
35.14400	958.59000
35.15630	959.74000
35.16870	962.18000
35.18110	970.74000
35.19340	970.46000
35.20580	961.29000
35.21820	963.67000
35.23050	966.11000
35.24290	968.86000
35.25530	969.16000
35.26760	961.51000
35.28000	962.64000
35.29240	960.45000
35.30470	952.32000
35.31710	955.12000
35.32950	958.66000
35.34180	953.04000
35.35420	950.72000
35.36660	948.83000
35.37900	948.43000
35.39130	956.16000
35.40370	967.95000
35.41610	973.97000
35.42840	973.42000
35.44080	985.69000
35.45320	1004.67000
35.46550	1026.19000
35.47790	1036.44000
35.49030	1041.90000
35.50260	1059.17000
35.51500	1083.17000
35.52740	1107.81000
35.53980	1124.97000
35.55210	1118.36000
35.56450	1092.48000
35.57690	1063.92000
35.58920	1046.47000
35.60160	1036.54000
35.61400	1033.28000
35.62630	1034.43000
35.63870	1051.72000
35.65110	1071.71000
35.66340	1073.99000
35.67580	1062.31000
35.68820	1043.25000
35.70050	1016.11000
35.71290	988.83000
35.72530	972.08000
35.73770	969.55000
35.75000	966.79000
35.76240	957.80000
35.77480	954.71000
35.78710	954.53000
35.79950	949.74000
35.81190	954.78000
35.82420	954.30000
35.83660	950.00000
35.84900	956.06000
35.86130	953.34000
35.87370	947.40000
35.88610	948.18000
35.89840	945.84000
35.91080	948.40000
35.92320	947.76000
35.93550	941.60000
35.94790	950.88000
35.96030	949.18000
35.97270	950.74000
35.98500	957.09000
35.99740	958.60000
36.00980	957.73000
36.02210	954.89000
36.03450	967.11000
36.04690	975.58000
36.05920	978.09000
36.07160	978.83000
36.08400	983.48000
36.09640	981.02000
36.10870	982.78000
36.12110	988.01000
36.13350	996.87000
36.14580	1002.08000
36.15820	1010.90000
36.17060	1032.40000
36.18290	1073.77000
36.19530	1120.46000
36.20770	1163.36000
36.22000	1174.26000
36.23240	1162.43000
36.24480	1131.53000
36.25720	1100.12000
36.26950	1066.45000
36.28190	1037.84000
36.29420	1019.43000
36.30660	1007.77000
36.31900	995.70000
36.33140	990.86000
36.34370	984.36000
36.35610	981.56000
36.36850	983.24000
36.38080	990.35000
36.39320	988.55000
36.40560	999.55000
36.41790	1012.86000
36.43030	1026.58000
36.44270	1048.85000
36.45510	1083.43000
36.46740	1116.01000
36.47980	1155.01000
36.49220	1185.80000
36.50450	1199.14000
36.51690	1194.18000
36.52930	1183.78000
36.54160	1168.71000
36.55400	1177.41000
36.56640	1188.42000
36.57870	1193.12000
36.59110	1191.20000
36.60350	1174.84000
36.61580	1151.61000
36.62820	1106.82000
36.64060	1076.86000
36.65290	1062.90000
36.66530	1047.07000
36.67770	1043.36000
36.69010	1043.83000
36.70240	1038.19000
36.71480	1033.11000
36.72720	1026.28000
36.73950	1013.96000
36.75190	1009.69000
36.76430	1004.44000
36.77660	997.36000
36.78900	1004.22000
36.80140	1002.76000
36.81370	990.47000
36.82610	980.75000
36.83850	976.28000
36.85090	981.92000
36.86320	992.18000
36.87560	990.96000
36.88800	986.86000
36.90030	989.28000
36.91270	981.31000
36.92510	973.17000
36.93740	964.23000
36.94980	954.15000
36.96220	937.20000
36.97450	929.16000
36.98690	932.54000
36.99930	931.11000
37.01160	921.75000
37.02400	915.40000
37.03640	915.04000
37.04880	910.94000
37.06110	918.67000
37.07350	926.73000
37.08590	918.05000
37.09820	916.31000
37.11060	920.11000
37.12300	922.30000
37.13530	925.53000
37.14770	926.31000
37.16010	926.33000
37.17240	933.62000
37.18480	944.54000
37.19720	946.86000
37.20960	955.76000
37.22190	968.45000
37.23430	982.85000
37.24670	998.03000
37.25900	1003.65000
37.27140	999.49000
37.28380	1004.59000
37.29610	1002.08000
37.30850	1001.03000
37.32090	992.79000
37.33320	988.59000
37.34560	990.05000
37.35800	986.18000
37.37030	967.99000
37.38270	954.58000
37.39510	949.05000
37.40750	942.93000
37.41980	944.18000
37.43220	958.21000
37.44460	971.57000
37.45690	984.45000
37.46930	1010.31000
37.48170	1016.43000
37.49400	1013.00000
37.50640	1009.98000
37.51880	991.68000
37.53110	967.31000
37.54350	949.91000
37.55590	938.77000
37.56830	933.93000
37.58060	930.19000
37.59300	917.34000
37.60530	907.15000
37.61770	908.94000
37.63010	911.20000
37.64250	896.51000
37.65480	893.54000
37.66720	901.47000
37.67960	902.47000
37.69190	898.52000
37.70430	892.53000
37.71670	893.11000
37.72900	890.45000
37.74140	894.06000
37.75380	901.16000
37.76620	903.40000
37.77850	903.42000
37.79090	899.28000
37.80330	901.95000
37.81560	904.87000
37.82800	903.13000
37.84040	895.73000
37.85270	893.75000
37.86510	883.23000
37.87750	877.44000
37.88980	875.14000
37.90220	867.95000
37.91460	871.55000
37.92700	879.97000
37.93930	879.04000
37.95170	880.94000
37.96400	881.76000
37.97640	895.54000
37.98880	910.83000
38.00120	905.93000
38.01350	906.56000
38.02590	908.48000
38.03830	912.63000
38.05060	918.34000
38.06300	925.37000
38.07540	923.33000
38.08770	915.25000
38.10010	905.15000
38.11250	897.37000
38.12480	881.03000
38.13720	866.48000
38.14960	860.74000
38.16200	851.96000
38.17430	860.62000
38.18670	858.48000
38.19910	852.32000
38.21140	852.05000
38.22380	848.18000
38.23620	843.70000
38.24850	843.60000
38.26090	834.00000
38.27330	833.15000
38.28560	841.96000
38.29800	840.24000
38.31040	834.97000
38.32270	840.90000
38.33510	845.77000
38.34750	839.55000
38.35990	828.97000
38.37220	829.05000
38.38460	833.84000
38.39700	837.54000
38.40930	840.50000
38.42170	837.81000
38.43410	845.51000
38.44640	846.59000
38.45880	851.74000
38.47120	860.09000
38.48350	861.63000
38.49590	861.26000
38.50830	851.49000
38.52070	853.78000
38.53300	860.13000
38.54540	861.89000
38.55780	864.02000
38.57010	861.35000
38.58250	861.11000
38.59490	858.72000
38.60720	862.32000
38.61960	853.51000
38.63200	840.95000
38.64430	844.55000
38.65670	851.15000
38.66910	852.49000
38.68140	851.09000
38.69380	850.40000
38.70620	847.04000
38.71860	835.04000
38.73090	824.41000
38.74330	825.63000
38.75570	831.94000
38.76800	824.99000
38.78040	827.77000
38.79280	829.92000
38.80510	830.11000
38.81750	827.28000
38.82990	825.24000
38.84220	819.45000
38.85460	816.37000
38.86700	818.19000
38.87940	813.19000
38.89170	815.42000
38.90410	807.20000
38.91650	803.26000
38.92880	803.17000
38.94120	806.23000
38.95360	810.38000
38.96590	804.69000
38.97830	796.19000
38.99070	794.64000
39.00300	795.75000
39.01540	789.93000
39.02780	794.52000
39.04010	800.59000
39.05250	798.07000
39.06490	800.56000
39.07730	800.96000
39.08960	799.14000
39.10200	799.37000
39.11440	796.28000
39.12670	804.87000
39.13910	821.27000
39.15150	824.26000
39.16380	828.39000
39.17620	826.99000
39.18860	818.01000
39.20090	821.72000
39.21330	816.84000
39.22570	816.41000
39.23810	818.90000
39.25040	821.04000
39.26280	826.33000
39.27510	821.84000
39.28750	828.38000
39.29990	835.12000
39.31230	847.96000
39.32460	843.86000
39.33700	836.92000
39.34940	840.36000
39.36170	829.31000
39.37410	810.09000
39.38650	803.13000
39.39880	804.22000
39.41120	795.02000
39.42360	790.60000
39.43590	791.03000
39.44830	796.42000
39.46070	793.14000
39.47310	795.74000
39.48540	807.17000
39.49780	822.18000
39.51020	854.40000
39.52250	874.96000
39.53490	887.01000
39.54730	888.79000
39.55960	865.13000
39.57200	837.04000
39.58440	819.75000
39.59680	809.95000
39.60910	809.95000
39.62150	807.99000
39.63380	796.20000
39.64620	779.84000
39.65860	779.69000
39.67100	781.11000
39.68330	773.22000
39.69570	771.49000
39.70810	763.31000
39.72040	761.25000
39.73280	767.27000
39.74520	783.99000
39.75750	788.95000
39.76990	789.68000
39.78230	799.65000
39.79460	798.97000
39.80700	788.59000
39.81940	783.00000
39.83180	781.92000
39.84410	777.68000
39.85650	768.98000
39.86890	780.75000
39.88120	785.00000
39.89360	772.42000
39.90600	768.24000
39.91830	765.81000
39.93070	762.67000
39.94310	763.88000
39.95540	761.47000
39.96780	767.15000
39.98020	763.01000
39.99250	757.97000
40.00490	768.87000
40.01730	778.75000
40.02970	784.13000
40.04200	786.88000
40.05440	794.17000
40.06680	793.33000
40.07910	791.94000
40.09150	781.84000
40.10390	765.25000
40.11620	771.30000
40.12860	766.28000
40.14100	760.53000
40.15330	748.58000
40.16570	753.62000
40.17810	755.06000
40.19050	758.87000
40.20280	769.19000
40.21520	769.03000
40.22760	770.49000
40.23990	761.78000
40.25230	764.11000
40.26470	758.35000
40.27700	756.62000
40.28940	761.93000
40.30180	763.67000
40.31410	773.15000
40.32650	789.38000
40.33890	806.81000
40.35120	817.06000
40.36360	806.14000
40.37600	811.21000
40.38840	817.34000
40.40070	813.50000
40.41310	802.91000
40.42550	802.36000
40.43780	793.53000
40.45020	780.94000
40.46260	773.97000
40.47490	764.36000
40.48730	767.51000
40.49970	781.00000
40.51200	790.39000
40.52440	813.55000
40.53680	828.16000
40.54920	830.17000
40.56150	838.70000
40.57390	835.41000
40.58630	814.70000
40.59860	807.65000
40.61100	817.18000
40.62340	824.37000
40.63570	819.53000
40.64810	815.80000
40.66050	838.46000
40.67280	854.95000
40.68520	863.54000
40.69760	869.46000
40.70990	861.34000
40.72230	846.90000
40.73470	834.05000
40.74700	821.22000
40.75940	815.86000
40.77180	804.58000
40.78420	807.97000
40.79650	808.93000
40.80890	789.32000
40.82130	762.26000
40.83360	757.77000
40.84600	750.56000
40.85840	738.74000
40.87070	738.12000
40.88310	737.87000
40.89550	743.43000
40.90790	763.36000
40.92020	750.61000
40.93260	722.71000
40.94490	726.61000
40.95730	722.21000
40.96970	716.74000
40.98210	723.74000
40.99440	731.04000
41.00680	745.14000
41.01920	748.19000
41.03150	729.30000
41.04390	744.94000
41.05630	751.78000
41.06860	727.61000
41.08100	733.51000
41.09340	724.51000
41.10570	733.44000
41.11810	749.12000
41.13050	760.88000
41.14290	737.19000
41.15520	718.98000
41.16760	729.86000
41.18000	751.24000
41.19230	767.91000
41.20470	773.85000
41.21710	770.22000
41.22940	766.68000
41.24180	765.97000
41.25420	751.85000
41.26660	732.92000
41.27890	749.87000
41.29130	755.83000
41.30360	758.40000
41.31600	764.43000
41.32840	750.45000
41.34080	754.66000
41.35310	764.96000
41.36550	739.48000
41.37790	761.98000
41.39020	779.12000
41.40260	774.47000
