3.11521	636.90802
3.13520	660.81702
3.15520	644.10199
3.17520	659.81500
3.19520	671.16699
3.21520	649.43207
3.23520	628.93207
3.25520	624.89600
3.27520	587.58502
3.29519	586.88098
3.31519	581.90503
3.33519	588.42902
3.35519	609.63300
3.37519	616.98407
3.39519	599.13300
3.41519	625.03900
3.43518	647.67999
3.45518	565.51501
3.47518	558.23804
3.49518	585.03204
3.51518	587.66400
3.53518	545.08099
3.55518	573.93408
3.57518	562.85199
3.59517	609.43103
3.61517	613.48102
3.63517	585.42206
3.65517	600.59204
3.67517	585.23999
3.69517	609.58301
3.71516	582.92407
3.73516	595.20203
3.75516	615.19702
3.77516	606.37799
3.79516	558.45703
3.81516	572.04297
3.83516	610.94501
3.85515	649.94202
3.87515	610.29901
3.89515	631.26099
3.91515	606.45703
3.93515	623.85297
3.95515	625.72302
3.97514	654.77801
3.99514	633.79303
4.01514	655.32703
4.03514	650.79901
4.05514	634.28503
4.07514	658.13098
4.09513	636.06201
4.11513	643.97504
4.13513	620.08301
4.15513	617.27801
4.17513	613.59503
4.19513	642.26501
4.21512	662.43005
4.23512	662.20703
4.25512	670.71405
4.27512	663.56201
4.29512	668.37097
4.31512	659.86200
4.33511	702.06702
4.35511	643.67700
4.37511	647.02301
4.39511	682.99805
4.41511	725.23505
4.43511	685.61798
4.45510	684.83502
4.47510	721.66400
4.49510	682.57501
4.51510	684.17096
4.53510	715.36798
4.55509	725.83203
4.57509	689.52301
4.59509	668.33704
4.61509	709.78003
4.63509	734.70801
4.65509	732.78601
4.67508	722.67401
4.69508	723.89600
4.71508	731.11896
4.73508	740.14093
4.75508	759.90802
4.77507	738.21002
4.79507	741.60596
4.81507	782.68597
4.83507	742.39203
4.85507	806.13800
4.87506	804.66797
4.89506	818.40405
4.91506	806.22601
4.93506	734.60797
4.95506	744.79999
4.97506	750.55096
4.99505	792.69403
5.01505	813.38599
5.03505	822.64795
5.05505	858.81598
5.07505	880.45300
5.09504	855.51801
5.11504	871.91003
5.13504	861.40301
5.15504	909.37897
5.17503	928.35400
5.19503	925.81500
5.21503	963.49603
5.23503	1004.11597
5.25502	1012.05896
5.27502	1028.02698
5.29502	1011.73706
5.31502	1056.66602
5.33502	1145.90906
5.35501	1197.74402
5.37501	1188.19592
5.39501	1192.10095
5.41501	1117.30408
5.43501	1012.85400
5.45500	941.74200
5.47500	883.95599
5.49500	859.71100
5.51500	819.59705
5.53500	861.21405
5.55499	887.64093
5.57499	862.46100
5.59499	911.98303
5.61498	890.80701
5.63498	895.94598
5.65498	874.80597
5.67498	890.18597
5.69498	920.39404
5.71497	918.33203
5.73497	968.14795
5.75497	906.12097
5.77497	893.33801
5.79496	916.47205
5.81496	944.49408
5.83496	970.17999
5.85496	976.93603
5.87495	957.71301
5.89495	967.18897
5.91495	953.76599
5.93495	965.81403
5.95495	954.33301
5.97494	964.48706
5.99494	972.99103
6.01494	988.13202
6.03493	989.25299
6.05493	939.13800
6.07493	1031.34009
6.09493	979.14594
6.11493	984.05096
6.13492	978.56000
6.15492	983.52203
6.17492	991.00403
6.19491	996.48505
6.21491	1023.41302
6.23491	1003.31500
6.25491	1025.93005
6.27491	1039.41504
6.29490	1033.67993
6.31490	1031.28894
6.33490	1053.53003
6.35489	1035.45911
6.37489	1051.67590
6.39489	1054.77795
6.41489	1051.15601
6.43488	1104.56812
6.45488	1029.35706
6.47488	1008.80499
6.49488	1074.83008
6.51487	1058.01599
6.53487	1109.31311
6.55487	1073.74500
6.57486	1104.88696
6.59486	1106.25806
6.61486	1092.72595
6.63486	1076.52197
6.65485	1099.37695
6.67485	1021.32599
6.69485	1017.42804
6.71485	1089.32605
6.73484	1119.45911
6.75484	1119.26697
6.77484	1085.69092
6.79483	1090.46997
6.81483	1140.14197
6.83483	1190.72693
6.85483	1160.93201
6.87482	1095.39600
6.89482	1139.64001
6.91482	1163.59497
6.93482	1104.75903
6.95481	1176.92700
6.97481	1184.73499
6.99481	1138.57593
7.01480	1166.19189
7.03480	1173.88098
7.05480	1174.88000
7.07479	1142.09094
7.09479	1157.97498
7.11479	1167.32007
7.13479	1139.46106
7.15478	1132.12598
7.17478	1131.66809
7.19478	1200.95813
7.21477	1212.02698
7.23477	1219.15698
7.25477	1158.11499
7.27477	1176.27185
7.29476	1133.26001
7.31476	1221.62097
7.33476	1233.34912
7.35475	1187.16406
7.37475	1196.73694
7.39475	1181.56812
7.41474	1231.60999
7.43474	1193.51599
7.45474	1200.30811
7.47473	1191.57190
7.49473	1252.10095
7.51473	1223.44409
7.53472	1210.18188
7.55472	1245.60693
7.57472	1271.12805
7.59471	1287.21899
7.61471	1229.34509
7.63471	1242.54199
7.65471	1253.09802
7.67470	1248.01501
7.69470	1233.91003
7.71470	1191.46704
7.73469	1254.43701
7.75469	1300.37305
7.77469	1291.17896
7.79468	1260.93701
7.81468	1282.42602
7.83468	1294.68188
7.85467	1278.74902
7.87467	1295.98096
7.89467	1287.18494
7.91466	1347.06006
7.93466	1380.85010
7.95466	1361.32703
7.97465	1355.70398
7.99465	1350.47595
8.01465	1388.07300
8.03464	1478.69299
8.05464	1443.51697
8.07464	1479.34204
8.09463	1491.78088
8.11463	1548.83203
8.13463	1653.94812
8.15462	1732.97095
8.17462	1773.39404
8.19462	1853.60400
8.21461	1904.71997
8.23461	2109.66626
8.25461	2184.86011
8.27460	2271.04394
8.29460	2309.25488
8.31460	2115.40479
8.33459	1963.16199
8.35459	1640.21497
8.37458	1368.78088
8.39458	1306.42505
8.41458	1298.14600
8.43458	1288.70190
8.45457	1247.98401
8.47457	1247.32507
8.49456	1285.31201
8.51456	1247.01099
8.53456	1253.22192
8.55455	1244.51099
8.57455	1266.57593
8.59455	1235.84106
8.61454	1200.48596
8.63454	1227.76099
8.65453	1220.41406
8.67453	1285.77295
8.69453	1294.48999
8.71453	1258.21899
8.73452	1255.33106
8.75452	1332.53101
8.77451	1275.03809
8.79451	1230.33203
8.81451	1246.43603
8.83450	1261.14502
8.85450	1282.05603
8.87450	1296.30005
8.89449	1253.82312
8.91449	1220.65405
8.93448	1208.39197
8.95448	1192.28296
8.97448	1232.90405
8.99447	1206.18091
9.01447	1238.68799
9.03447	1304.73096
9.05446	1279.82605
9.07446	1220.25305
9.09445	1199.31201
9.11445	1215.32703
9.13445	1240.19898
9.15444	1227.81812
9.17444	1208.85913
9.19444	1208.64905
9.21443	1204.03699
9.23443	1196.89807
9.25442	1211.77087
9.27442	1234.05310
9.29442	1234.23999
9.31441	1231.23694
9.33441	1226.24304
9.35440	1165.19397
9.37440	1200.36609
9.39440	1255.57398
9.41439	1202.38904
9.43439	1195.75500
9.45439	1249.63196
9.47438	1240.06103
9.49438	1256.94104
9.51437	1224.43408
9.53437	1218.15503
9.55436	1205.87805
9.57436	1235.61499
9.59436	1236.33106
9.61435	1230.50696
9.63435	1197.96008
9.65434	1201.98901
9.67434	1246.11304
9.69434	1242.10400
9.71433	1238.16992
9.73433	1227.28394
9.75432	1257.32910
9.77432	1237.39697
9.79432	1201.95203
9.81431	1253.22998
9.83431	1237.91504
9.85430	1258.50903
9.87430	1201.63904
9.89429	1298.92908
9.91429	1431.21802
9.93429	1370.07593
9.95428	1422.85010
9.97428	1494.15601
9.99427	1496.61096
10.01427	1489.00696
10.03427	1520.24402
10.05426	1464.21094
10.07426	1445.24304
10.09425	1400.06909
10.11425	1393.74500
10.13424	1365.38306
10.15424	1309.11194
10.17424	1307.53809
10.19423	1349.00903
10.21423	1326.85706
10.23422	1341.38000
10.25422	1376.47998
10.27422	1401.49695
10.29421	1460.86206
10.31420	1430.73999
10.33420	1562.61401
10.35420	1587.58093
10.37419	1613.16809
10.39419	1750.36706
10.41418	1771.20801
10.43418	1850.82812
10.45417	1957.80102
10.47417	2108.67407
10.49417	2398.60498
10.51416	2624.69629
10.53416	2930.02100
10.55415	3370.37109
10.57415	3772.96899
10.59414	4160.83740
10.61414	4629.91064
10.63414	4891.10400
10.65413	5139.57764
10.67413	5098.06299
10.69412	4615.76416
10.71412	3641.73096
10.73411	2544.82495
10.75411	1719.62402
10.77411	1408.90906
10.79410	1299.87195
10.81410	1299.82312
10.83409	1195.77185
10.85408	1178.74597
10.87408	1181.23999
10.89408	1119.80811
10.91407	1107.47693
10.93407	1133.82605
10.95406	1153.92310
10.97406	1134.29297
10.99405	1146.63306
11.01405	1147.81812
11.03405	1142.19189
11.05404	1105.50195
11.07404	1109.25696
11.09403	1121.26697
11.11402	1084.99500
11.13402	1094.42908
11.15402	1073.69299
11.17401	1049.88501
11.19401	1130.68396
11.21400	1108.53809
11.23400	1108.25195
11.25399	1064.61902
11.27399	1071.93701
11.29398	1052.22192
11.31398	1064.80408
11.33397	1097.07690
11.35397	1082.28394
11.37396	1106.61194
11.39396	1146.08496
11.41395	1128.07690
11.43395	1106.06409
11.45394	1109.81604
11.47394	1108.22693
11.49394	1067.57690
11.51393	1055.36609
11.53392	1113.27991
11.55392	1072.17688
11.57392	1181.47192
11.59391	1137.12000
11.61391	1112.75305
11.63390	1137.75903
11.65390	1183.65002
11.67389	1242.94812
11.69389	1234.18091
11.71388	1238.31201
11.73388	1188.66406
11.75387	1206.68591
11.77387	1122.21899
11.79386	1042.75696
11.81386	1035.70691
11.83385	1021.96802
11.85385	988.73602
11.87384	995.35498
11.89384	1001.64398
11.91383	961.58899
11.93383	1009.09503
11.95382	981.74701
11.97382	991.12701
11.99381	1038.84106
12.01381	985.92102
12.03380	1008.22504
12.05380	999.72101
12.07379	970.84998
12.09379	1011.54096
12.11378	1001.83600
12.13378	967.67798
12.15377	1019.21204
12.17377	994.44598
12.19376	1037.88098
12.21376	1010.29901
12.23375	963.56702
12.25375	992.24402
12.27374	1005.38800
12.29374	1001.12598
12.31373	1004.11200
12.33372	1022.43805
12.35372	1001.31201
12.37371	996.48004
12.39371	922.77203
12.41370	1013.62598
12.43370	985.36798
12.45369	1025.39697
12.47369	952.09998
12.49368	982.71301
12.51368	1001.87402
12.53367	1017.09406
12.55367	987.46899
12.57366	995.11597
12.59366	1004.22406
12.61365	982.42706
12.63364	955.12897
12.65364	997.33801
12.67364	976.71600
12.69363	983.58704
12.71362	1014.42804
12.73362	955.14996
12.75361	973.97601
12.77361	1009.94299
12.79360	941.04199
12.81360	1001.70502
12.83359	990.59998
12.85359	987.50000
12.87358	1005.59302
12.89358	973.91504
12.91357	1029.99304
12.93356	977.10596
12.95356	1000.16895
12.97355	957.61200
12.99355	949.83002
13.01354	957.46100
13.03354	967.08099
13.05353	967.94299
13.07353	935.22601
13.09352	916.55200
13.11351	911.44000
13.13351	899.07501
13.15350	888.81097
13.17350	957.83997
13.19349	957.61401
13.21349	937.03900
13.23348	927.79004
13.25348	971.84296
13.27347	915.83801
13.29346	941.57703
13.31346	963.63599
13.33345	903.10297
13.35345	901.56897
13.37344	887.51202
13.39344	925.37500
13.41343	955.14496
13.43343	988.73206
13.45342	980.06000
13.47341	976.04297
13.49341	985.78802
13.51340	1026.96411
13.53340	1009.26599
13.55339	1020.18799
13.57339	1077.16992
13.59338	1108.15503
13.61337	1093.05603
13.63337	1081.47900
13.65336	1085.10693
13.67336	1115.02197
13.69335	1078.24597
13.71335	1056.42004
13.73334	1084.65601
13.75333	1038.89001
13.77333	1034.42602
13.79332	1031.64404
13.81331	1060.41504
13.83331	1067.22595
13.85330	1101.15100
13.87330	1185.20190
13.89329	1202.86914
13.91329	1221.25305
13.93328	1256.82812
13.95327	1377.21301
13.97327	1412.57898
13.99326	1448.32605
14.01326	1484.61597
14.03325	1553.94507
14.05324	1738.91907
14.07324	1894.76990
14.09323	2137.24390
14.11323	2528.58911
14.13322	2808.28003
14.15321	3333.43384
14.17321	3603.07910
14.19320	3979.77393
14.21320	4235.83740
14.23319	4350.35156
14.25319	4286.85059
14.27318	3891.36011
14.29317	3227.79394
14.31317	2419.04712
14.33316	1705.04199
14.35315	1359.86511
14.37315	1211.38904
14.39314	1122.96008
14.41314	1079.18298
14.43313	1030.68994
14.45312	1034.12097
14.47312	1026.60803
14.49311	1049.68994
14.51310	1011.10400
14.53310	974.42206
14.55309	941.27405
14.57309	1048.66907
14.59308	1007.43506
14.61307	994.28601
14.63307	995.33502
14.65306	1030.56702
14.67306	1004.34796
14.69305	1067.55701
14.71304	1117.82812
14.73304	1121.36816
14.75303	1118.11304
14.77303	1177.52002
14.79302	1272.78796
14.81301	1341.96814
14.83301	1489.80603
14.85300	1589.16602
14.87299	1755.19995
14.89299	1930.70300
14.91298	2136.43481
14.93298	2455.91797
14.95297	2738.36621
14.97296	3116.41699
14.99296	3251.85620
15.01295	3359.25391
15.03294	3388.53101
15.05294	3229.78394
15.07293	2926.22095
15.09292	2503.90796
15.11292	2172.20606
15.13291	2004.36414
15.15290	2051.65112
15.17290	2175.45996
15.19289	2380.51001
15.21289	2768.54297
15.23288	3188.23999
15.25287	3570.62305
15.27287	4241.66504
15.29286	5154.56299
15.31285	6273.06982
15.33285	7838.48779
15.35284	9605.06250
15.37283	11468.14941
15.39283	13278.63965
15.41282	14931.83008
15.43281	16006.41992
15.45281	16175.37012
15.47280	15544.70996
15.49279	13085.65918
15.51279	9783.98535
15.53278	6336.26221
15.55277	3905.47095
15.57277	2488.88403
15.59276	1908.05603
15.61275	1773.96704
15.63275	1741.40808
15.65274	1741.53198
15.67273	1776.68897
15.69273	1867.52307
15.71272	1993.75305
15.73272	2256.70898
15.75271	2577.73706
15.77270	2825.42285
15.79270	3169.09399
15.81269	3785.13501
15.83268	4605.25879
15.85267	5457.34766
15.87267	6738.54492
15.89266	7921.20215
15.91266	9345.83008
15.93265	10771.41016
15.95264	11680.10938
15.97263	12215.38965
15.99263	11854.78027
16.01262	10723.51953
16.03261	8680.29688
16.05260	6251.51855
16.07260	4168.44775
16.09259	2725.55615
16.11258	2012.53906
16.13258	1764.45508
16.15257	1674.57092
16.17256	1592.89404
16.19256	1645.50903
16.21255	1716.48596
16.23255	1757.68091
16.25254	1799.01196
16.27253	1880.35107
16.29252	2029.56409
16.31252	1985.05408
16.33251	1980.67993
16.35251	1961.32312
16.37250	1894.76099
16.39249	1797.52002
16.41248	1745.13000
16.43248	1794.75903
16.45247	1841.75903
16.47246	1905.35510
16.49245	2029.06409
16.51245	2131.24805
16.53244	2179.13306
16.55243	2131.05713
16.57243	2034.54004
16.59242	1856.23303
16.61241	1637.96106
16.63240	1405.52100
16.65240	1261.97900
16.67239	1208.06506
16.69239	1239.30102
16.71238	1173.36609
16.73237	1176.22302
16.75237	1183.85510
16.77236	1197.66699
16.79235	1255.20691
16.81234	1270.06702
16.83234	1347.31409
16.85233	1479.07092
16.87232	1586.14600
16.89231	1708.31409
16.91230	1774.63599
16.93230	1765.67188
16.95229	1763.19898
16.97228	1699.58899
16.99228	1503.38403
17.01227	1306.17798
17.03226	1141.66003
17.05226	1007.64093
17.07225	952.99304
17.09224	938.15894
17.11223	965.25702
17.13223	941.01202
17.15222	922.06598
17.17221	946.29602
17.19220	938.61700
17.21220	925.20099
17.23219	906.22900
17.25218	906.78705
17.27218	946.81702
17.29217	976.82501
17.31216	994.72302
17.33216	1076.88904
17.35215	1122.01306
17.37214	1151.54004
17.39213	1234.63599
17.41212	1317.26001
17.43212	1421.76196
17.45211	1521.65198
17.47210	1737.68188
17.49209	1978.86206
17.51208	2352.51807
17.53208	2739.71899
17.55207	3243.95703
17.57206	4020.19922
17.59206	4598.20996
17.61205	5131.17285
17.63204	5576.52978
17.65204	5817.86768
17.67203	5726.81641
17.69202	5178.82959
17.71201	4266.20996
17.73200	3284.67505
17.75200	2496.65503
17.77199	1957.63696
17.79198	1735.32507
17.81197	1717.88904
17.83197	1783.00000
17.85196	1910.54504
17.87195	2169.02808
17.89194	2489.93091
17.91194	2978.30005
17.93193	3558.48999
17.95192	3887.34204
17.97191	4382.24805
17.99190	4536.31055
18.01190	4580.95166
18.03189	4266.57568
18.05188	3671.50903
18.07187	2779.11914
18.09187	2045.81506
18.11186	1477.25403
18.13185	1165.20801
18.15185	999.08404
18.17184	914.35895
18.19183	884.06598
18.21182	893.21802
18.23181	872.30597
18.25181	872.16296
18.27180	883.14398
18.29179	924.80096
18.31178	883.61200
18.33177	919.74597
18.35177	1008.63202
18.37176	1008.06000
18.39175	996.68701
18.41174	1054.79187
18.43174	1125.49805
18.45173	1163.54504
18.47172	1327.25806
18.49171	1447.86816
18.51170	1570.65808
18.53170	1823.91907
18.55169	2104.09106
18.57168	2448.38818
18.59167	2783.84302
18.61166	3075.01099
18.63166	3204.64014
18.65165	3191.51099
18.67164	3088.99097
18.69163	2805.86206
18.71163	2307.04614
18.73162	1826.41101
18.75161	1386.83606
18.77160	1150.45508
18.79159	1006.95703
18.81158	874.20801
18.83158	911.59302
18.85157	849.07501
18.87156	850.25500
18.89155	905.66296
18.91154	884.16998
18.93154	883.65594
18.95153	903.36096
18.97152	922.23602
18.99151	978.52600
19.01150	1005.62097
19.03150	1001.74402
19.05149	978.02203
19.07148	918.86499
19.09147	887.08899
19.11146	828.11298
19.13146	767.49707
19.15145	805.59802
19.17144	754.33301
19.19143	742.34595
19.21142	712.97900
19.23141	734.18298
19.25141	743.63300
19.27140	760.25098
19.29139	751.73706
19.31138	709.52301
19.33138	723.89502
19.35137	743.37799
19.37136	742.97803
19.39135	746.42304
19.41134	744.52502
19.43133	742.72302
19.45132	749.63300
19.47131	753.45599
19.49131	732.73102
19.51130	705.13898
19.53129	764.79706
19.55129	742.52203
19.57127	706.72900
19.59127	761.66400
19.61126	743.15295
19.63125	703.98004
19.65124	726.14398
19.67123	753.33997
19.69122	663.86700
19.71122	749.22003
19.73121	756.94202
19.75120	751.89703
19.77119	735.47803
19.79118	714.89502
19.81117	735.52600
19.83116	759.90503
19.85116	771.67596
19.87115	745.82599
19.89114	724.86401
19.91113	749.45300
19.93112	741.93408
19.95112	716.46899
19.97111	749.26703
19.99110	763.06299
20.01109	782.26599
20.03108	831.44299
20.05107	816.63501
20.07106	830.79004
20.09105	821.31799
20.11105	880.31598
20.13104	858.58704
20.15103	900.48804
20.17102	910.14697
20.19101	895.76599
20.21100	899.02600
20.23100	911.40900
20.25099	947.36896
20.27098	1000.86298
20.29097	1034.81006
20.31096	1102.65503
20.33095	1087.94812
20.35094	1127.34509
20.37093	1151.74500
20.39093	1094.39404
20.41091	997.76801
20.43091	835.23102
20.45090	866.38000
20.47089	793.86700
20.49088	790.34998
20.51087	762.12598
20.53086	741.83404
20.55086	797.70599
20.57085	783.10797
20.59084	777.22205
20.61083	829.44800
20.63082	840.79004
20.65081	925.09204
20.67080	1024.61401
20.69079	1082.58398
20.71079	1160.83911
20.73078	1287.98401
20.75077	1441.82507
20.77076	1576.38403
20.79075	1756.31604
20.81074	1966.72192
20.83073	2081.44897
20.85073	2161.87305
20.87072	2191.20093
20.89071	2217.52100
20.91070	2175.99194
20.93069	2006.12903
20.95068	1746.08997
20.97067	1574.65503
20.99066	1301.65198
21.01065	1096.41406
21.03064	970.04297
21.05064	873.16998
21.07062	831.48706
21.09062	796.75897
21.11061	781.29407
21.13060	800.44000
21.15059	772.59204
21.17058	770.56500
21.19057	810.65594
21.21056	759.75702
21.23055	705.24597
21.25055	758.69403
21.27053	766.21704
21.29053	827.42602
21.31052	829.56403
21.33051	871.45404
21.35050	876.75098
21.37049	907.79004
21.39048	920.25098
21.41047	1023.15997
21.43046	1126.49194
21.45046	1266.54199
21.47044	1391.32312
21.49044	1624.32507
21.51043	1902.70300
21.53042	2319.45288
21.55041	2697.81201
21.57040	3025.22705
21.59039	3270.54712
21.61038	3384.97192
21.63037	3336.62402
21.65036	3184.85620
21.67035	2753.21289
21.69034	2265.48193
21.71034	1788.48303
21.73033	1482.26196
21.75032	1279.51306
21.77031	1163.57398
21.79030	1085.53809
21.81029	1043.22803
21.83028	1043.33203
21.85027	995.98303
21.87026	926.53705
21.89025	954.09503
21.91024	988.54999
21.93023	1003.88898
21.95022	1047.31506
21.97021	1117.01404
21.99020	1166.00098
22.01019	1214.79688
22.03019	1244.85205
22.05018	1279.45508
22.07017	1206.16309
22.09016	1164.31201
22.11015	1057.00000
22.13014	940.60699
22.15013	889.72302
22.17012	830.15796
22.19011	771.52704
22.21010	784.34894
22.23009	816.38000
22.25008	867.00403
22.27007	910.03003
22.29006	932.55200
22.31005	966.59900
22.33005	983.50299
22.35004	968.04999
22.37003	982.66596
22.39002	964.98206
22.41001	908.09705
22.43000	898.88202
22.44999	888.33502
22.46998	895.39899
22.48997	922.59204
22.50996	1008.12299
22.52995	989.03705
22.54994	1041.90002
22.56993	1020.54999
22.58992	1006.26099
22.60991	1002.98602
22.62990	918.23505
22.64989	848.33002
22.66988	769.81299
22.68987	752.58801
22.70986	693.23206
22.72985	697.65094
22.74984	664.32501
22.76984	637.03998
22.78983	672.45502
22.80981	712.94800
22.82981	690.86499
22.84980	697.49304
22.86979	711.09100
22.88978	722.03204
22.90977	676.90002
22.92975	661.27100
22.94975	671.34198
22.96973	678.09406
22.98972	681.74701
23.00972	673.30701
23.02970	637.34198
23.04970	662.91602
23.06969	666.97406
23.08968	647.06500
23.10967	677.25800
23.12966	674.01202
23.14965	656.45001
23.16964	704.67096
23.18963	676.66797
23.20962	650.54297
23.22961	679.40802
23.24960	646.66699
23.26959	634.97803
23.28958	680.84595
23.30957	662.72803
23.32956	641.78204
23.34955	610.57800
23.36954	653.38800
23.38953	665.70404
23.40952	668.76099
23.42951	683.55798
23.44950	654.34399
23.46949	732.28503
23.48948	686.51300
23.50947	752.93707
23.52946	733.49603
23.54945	688.50500
23.56944	669.18799
23.58943	660.82501
23.60942	653.92004
23.62941	697.78900
23.64940	694.24701
23.66939	664.98706
23.68938	685.96301
23.70937	702.44898
23.72936	713.13995
23.74935	743.25598
23.76934	717.00403
23.78933	739.56799
23.80932	820.34699
23.82931	916.67096
23.84930	1006.01599
23.86929	1089.94604
23.88928	1237.90002
23.90927	1349.35608
23.92926	1537.66101
23.94925	1604.23401
23.96924	1633.82812
23.98923	1652.02698
24.00922	1612.97803
24.02921	1502.66809
24.04920	1413.76904
24.06919	1431.42004
24.08917	1392.52808
24.10917	1372.03503
24.12915	1377.85010
24.14915	1381.69898
24.16913	1372.42102
24.18912	1309.18091
24.20911	1233.90405
24.22910	1210.42407
24.24910	1061.96204
24.26908	1014.61700
24.28907	947.77100
24.30906	875.53802
24.32905	840.44702
24.34904	819.70203
24.36903	791.23407
24.38902	718.47803
24.40901	743.05701
24.42900	732.85297
24.44899	762.31097
24.46898	731.49707
24.48897	657.82202
24.50896	623.00403
24.52895	625.79804
24.54894	657.75000
24.56893	670.74097
24.58892	686.96405
24.60891	672.25897
24.62890	652.59802
24.64889	700.21802
24.66887	657.86096
24.68886	683.71002
24.70885	639.85297
24.72884	657.79901
24.74883	712.76599
24.76882	700.85699
24.78881	753.81201
24.80880	825.53101
24.82879	866.65399
24.84878	849.24402
24.86877	911.10297
24.88876	929.55597
24.90875	882.05298
24.92874	853.99805
24.94873	824.75000
24.96872	765.02899
24.98870	729.91901
25.00869	641.19000
25.02868	664.69403
25.04867	641.73999
25.06866	663.62799
25.08865	625.95099
25.10864	620.99103
25.12863	639.50500
25.14862	630.87598
25.16861	629.71600
25.18860	622.61499
25.20859	675.04498
25.22858	664.99707
25.24857	622.56500
25.26856	643.84894
25.28855	657.94403
25.30853	678.80402
25.32852	692.28302
25.34851	662.63202
25.36850	649.29004
25.38849	671.81000
25.40848	660.25897
25.42847	664.10199
25.44846	710.04401
25.46845	733.07599
25.48844	756.03101
25.50843	747.32202
25.52842	812.26703
25.54840	846.64996
25.56839	955.54700
25.58838	1098.57800
25.60837	1193.38806
25.62836	1296.08093
25.64835	1371.72302
25.66834	1569.85913
25.68833	1570.37500
25.70832	1611.89197
25.72831	1642.23096
25.74830	1618.66809
25.76829	1468.28296
25.78827	1478.06909
25.80826	1495.64697
25.82825	1481.83411
25.84824	1403.10901
25.86823	1369.48096
25.88822	1379.36706
25.90821	1267.60803
25.92820	1151.46204
25.94818	1057.57800
25.96817	883.38599
25.98816	810.56500
26.00815	764.04895
26.02814	664.93207
26.04813	649.70001
26.06812	669.50500
26.08811	654.96405
26.10810	654.21503
26.12809	639.89600
26.14807	597.61298
26.16806	620.39899
26.18805	627.10199
26.20804	618.64996
26.22803	618.59100
26.24802	624.21899
26.26801	627.45404
26.28800	645.34296
26.30798	613.16400
26.32797	643.20001
26.34796	666.48303
26.36795	652.74200
26.38794	730.13995
26.40793	737.48303
26.42792	723.50800
26.44791	776.26300
26.46789	843.79804
26.48788	836.56201
26.50787	864.34699
26.52786	868.51202
26.54785	929.25201
26.56784	949.49408
26.58783	1011.64893
26.60781	1080.35608
26.62780	1258.09497
26.64779	1447.17090
26.66778	1658.85706
26.68777	1860.68994
26.70776	2092.44287
26.72775	2296.19019
26.74774	2441.46704
26.76772	2381.31714
26.78771	2349.65308
26.80770	2146.25903
26.82769	1900.32507
26.84768	1607.41406
26.86767	1457.46606
26.88766	1370.04309
26.90764	1279.73804
26.92763	1273.38403
26.94762	1135.76001
26.96761	1061.21692
26.98760	994.04895
27.00759	932.46002
27.02758	862.96301
27.04756	817.35999
27.06755	815.49805
27.08754	800.39600
27.10753	800.27502
27.12752	806.40301
27.14751	806.92407
27.16750	840.85498
27.18748	869.47705
27.20747	872.42505
27.22746	902.10297
27.24745	863.04700
27.26744	810.05096
27.28743	689.48505
27.30742	676.03601
27.32741	690.64996
27.34739	659.91504
27.36738	657.16699
27.38737	642.26099
27.40736	601.69403
27.42734	606.82404
27.44733	668.59705
27.46732	663.99902
27.48731	651.21802
27.50730	646.38202
27.52729	684.08203
27.54728	744.87598
27.56726	731.23999
27.58725	744.49707
27.60724	809.20300
27.62723	867.06000
27.64722	888.07404
27.66720	906.09503
27.68719	917.52301
27.70718	935.43005
27.72717	926.77801
27.74716	876.85199
27.76714	869.88800
27.78713	828.02301
27.80712	849.90002
27.82711	806.70300
27.84710	792.21802
27.86709	774.17401
27.88707	741.64197
27.90706	728.95203
27.92705	692.50201
27.94704	686.28601
27.96703	685.45502
27.98701	722.17401
28.00700	806.90900
28.02699	857.80298
28.04698	966.73602
28.06697	1112.32312
28.08695	1262.55408
28.10694	1517.80102
28.12693	1714.20093
28.14692	1952.69092
28.16691	2227.71899
28.18690	2354.67310
28.20688	2569.00293
28.22687	2551.92481
28.24686	2459.64819
28.26685	2318.73096
28.28684	2247.57715
28.30682	2175.68213
28.32681	2045.38196
28.34680	1927.36914
28.36679	1831.46606
28.38678	1732.21094
28.40676	1544.67297
28.42675	1287.79089
28.44674	1132.20593
28.46672	988.40301
28.48672	874.14093
28.50670	762.84296
28.52669	718.78101
28.54668	683.80896
28.56667	619.83997
28.58666	646.46899
28.60664	682.97406
28.62663	700.70404
28.64662	687.16998
28.66661	643.61896
28.68659	631.45502
28.70658	645.93707
28.72657	611.44202
28.74656	627.42505
28.76654	664.12598
28.78653	641.15497
28.80652	602.73206
28.82651	629.12598
28.84650	676.63000
28.86648	647.50098
28.88647	679.85095
28.90646	664.52405
28.92645	717.99506
28.94643	705.56897
28.96642	704.05096
28.98641	665.05402
29.00640	669.96002
29.02638	667.45001
29.04637	708.32001
29.06636	810.60095
29.08635	870.52801
29.10634	896.44202
29.12632	981.23999
29.14631	1045.09692
29.16630	1106.52502
29.18629	1104.22900
29.20627	1062.75500
29.22626	1041.51807
29.24625	943.73303
29.26624	868.55597
29.28622	761.37299
29.30621	684.61896
29.32620	664.97803
29.34619	618.50702
29.36617	605.75201
29.38616	556.02704
29.40615	617.21704
29.42614	604.00201
29.44612	625.12799
29.46611	604.88403
29.48610	615.15399
29.50609	584.57703
29.52607	616.59802
29.54606	641.72504
29.56605	669.92602
29.58603	731.97601
29.60602	788.16296
29.62601	816.86700
29.64600	820.36200
29.66598	830.24597
29.68597	843.25500
29.70596	806.75201
29.72595	780.41504
29.74594	761.79303
29.76592	704.42804
29.78591	693.91003
29.80590	727.26801
29.82589	677.45599
29.84587	681.05402
29.86586	647.02301
29.88585	699.62598
29.90583	698.00403
29.92582	727.58801
29.94581	734.94000
29.96579	705.91101
29.98578	745.60596
30.00577	760.79901
30.02576	759.67700
30.04575	752.17999
30.06573	778.94000
30.08572	814.60498
30.10571	836.34894
30.12569	858.34595
30.14568	820.92004
30.16567	864.41901
30.18566	835.03601
30.20564	809.06702
30.22563	880.60895
30.24562	874.17200
30.26560	914.44000
30.28559	1062.94507
30.30558	1089.88196
30.32557	1219.48303
30.34555	1276.73499
30.36554	1394.04810
30.38553	1447.33313
30.40551	1466.79688
30.42550	1461.07690
30.44549	1493.37305
30.46547	1520.08801
30.48546	1515.12305
30.50545	1535.04907
30.52544	1536.03503
30.54542	1485.53198
30.56541	1335.65503
30.58540	1309.03198
30.60538	1132.84412
30.62537	1003.23602
30.64536	917.49103
30.66534	823.85095
30.68533	723.62097
30.70532	641.94501
30.72531	647.94800
30.74529	592.57098
30.76528	625.20203
30.78527	624.63898
30.80525	637.20502
30.82524	658.73901
30.84523	661.20001
30.86521	666.94598
30.88520	660.49408
30.90519	659.71704
30.92517	701.96405
30.94516	729.42602
30.96515	717.30597
30.98513	717.80896
31.00512	654.47302
31.02511	602.17798
31.04510	607.51099
31.06508	611.36401
31.08507	634.69800
31.10506	593.45599
31.12504	596.90301
31.14503	635.98102
31.16502	654.05096
31.18500	633.42304
31.20499	630.05402
31.22498	645.45502
31.24497	690.67596
31.26495	736.12897
31.28494	731.93805
31.30492	769.91205
31.32491	823.01202
31.34490	848.32300
31.36488	864.30896
31.38487	979.74701
31.40486	1076.97498
31.42484	1120.22900
31.44483	1166.36108
31.46482	1333.88904
31.48480	1397.60693
31.50479	1471.48804
31.52478	1611.43201
31.54476	1645.80102
31.56475	1629.47998
31.58474	1582.74194
31.60472	1448.83508
31.62471	1280.31201
31.64470	1116.30408
31.66468	980.64197
31.68467	895.76599
31.70466	770.24896
31.72464	650.21704
31.74463	624.73505
31.76462	586.10498
31.78460	544.38202
31.80459	523.70502
31.82457	547.14893
31.84456	564.19000
31.86455	568.40301
31.88453	523.81299
31.90452	519.10400
31.92450	490.38397
31.94449	498.15399
31.96448	562.87299
31.98447	519.58704
32.00445	519.27502
32.02444	542.75702
32.04443	540.03302
32.06441	565.26703
32.08440	550.41705
32.10439	547.32599
32.12437	582.42304
32.14436	635.24701
32.16434	617.85095
32.18433	644.65497
32.20432	651.73804
32.22430	618.99103
32.24429	642.10297
32.26427	615.73901
32.28426	590.57501
32.30425	570.63995
32.32423	558.68097
32.34422	539.97803
32.36421	521.29804
32.38419	540.65698
32.40418	496.37799
32.42416	533.98602
32.44415	490.52600
32.46414	475.45499
32.48413	528.60699
32.50411	522.99506
32.52410	516.93103
32.54409	528.20599
32.56407	529.30597
32.58406	543.63501
32.60404	546.81799
32.62403	552.40301
32.64402	511.11401
32.66400	514.49902
32.68399	540.85797
32.70397	593.63403
32.72396	553.61096
32.74394	545.02502
32.76393	574.09601
32.78392	626.11401
32.80390	645.19202
32.82389	678.48004
32.84388	673.18201
32.86386	735.06201
32.88385	731.68897
32.90383	738.56897
32.92382	726.47406
32.94381	711.73102
32.96379	688.08600
32.98378	682.28302
33.00376	699.25500
33.02375	658.57703
33.04374	637.93707
33.06372	631.44098
33.08371	636.25702
33.10370	630.67999
33.12368	565.74200
33.14366	565.30597
33.16365	521.86597
33.18364	539.59900
33.20362	523.07098
33.22361	518.96204
33.24359	520.05597
33.26358	515.41205
33.28357	574.06299
33.30356	549.48303
33.32354	557.16400
33.34352	569.33404
33.36351	602.32599
33.38350	607.22003
33.40348	633.87201
33.42347	629.15594
33.44345	627.72601
33.46344	632.27405
33.48342	621.24500
33.50341	627.77100
33.52340	610.47302
33.54339	629.06598
33.56337	591.75897
33.58335	622.63800
33.60334	640.49207
33.62333	535.39801
33.64331	590.84094
33.66330	572.45099
33.68328	616.24402
33.70326	591.61499
33.72325	641.36700
33.74324	620.25403
33.76323	635.81702
33.78321	670.03406
33.80320	694.60596
33.82319	708.69898
33.84317	693.81299
33.86315	713.19501
33.88314	770.75500
33.90313	803.90405
33.92311	796.59003
33.94310	760.24701
33.96308	730.72406
33.98307	678.55298
34.00306	599.47205
34.02304	568.43603
34.04303	565.80096
34.06301	504.41901
34.08300	476.68201
34.10298	488.87997
34.12297	483.39999
34.14295	505.34900
34.16294	501.35898
34.18292	507.37900
34.20290	524.93805
34.22289	498.78699
34.24288	502.53500
34.26286	535.63501
34.28285	523.29004
34.30283	523.38098
34.32282	488.37698
34.34280	509.94202
34.36279	518.26404
34.38278	491.73801
34.40276	478.92297
34.42275	520.64294
34.44273	537.14697
34.46272	501.10501
34.48270	503.48297
34.50269	523.73102
34.52268	494.32297
34.54266	478.57202
34.56265	517.48706
34.58263	521.41205
34.60262	488.18601
34.62260	524.02899
34.64259	554.91406
34.66257	499.63202
34.68256	506.78400
34.70254	509.55698
34.72253	513.35596
34.74251	513.61597
34.76250	492.64102
34.78248	484.09601
34.80247	492.80200
34.82245	472.31201
34.84244	472.62799
34.86243	477.66501
34.88241	487.26401
34.90239	448.49298
34.92238	496.17203
34.94236	499.69601
34.96235	574.86597
34.98233	577.48206
35.00232	586.65094
35.02231	611.38501
35.04229	665.67096
35.06228	667.67798
35.08227	629.21899
35.10225	614.43506
35.12223	608.70801
35.14222	598.76703
35.16221	570.25800
35.18219	490.46100
35.20217	502.08398
35.22216	490.31900
35.24214	479.26401
35.26213	465.20700
35.28211	462.66400
35.30210	464.84998
35.32208	495.41400
35.34207	500.57001
35.36205	488.24402
35.38204	487.92099
35.40202	531.53503
35.42200	559.87598
35.44199	566.71600
35.46198	597.29205
35.48196	585.46204
35.50195	601.03503
35.52193	578.97900
35.54192	566.05499
35.56191	601.40704
35.58189	627.47803
35.60187	585.69098
35.62186	603.48407
35.64184	617.20203
35.66183	571.77801
35.68181	606.27405
35.70179	597.52405
35.72178	631.24298
35.74177	647.48901
35.76175	630.80298
35.78174	692.96002
35.80172	665.32202
35.82171	696.97003
35.84169	719.00000
35.86168	764.41302
35.88166	787.81598
35.90165	799.75702
35.92163	781.74701
35.94162	745.09998
35.96160	689.75702
35.98159	646.32703
36.00157	616.12500
36.02155	580.43506
36.04154	540.70502
36.06152	473.83298
36.08151	494.84000
36.10149	483.93500
36.12147	482.96600
36.14146	444.91501
36.16145	454.40201
36.18143	507.81201
36.20141	499.08499
36.22140	556.76001
36.24138	587.81097
36.26137	588.20502
36.28135	576.02405
36.30134	568.93207
36.32132	554.97504
36.34131	541.52002
36.36129	533.48706
36.38128	565.36798
36.40126	523.35297
36.42125	490.58899
36.44123	478.73901
36.46122	463.52200
36.48120	439.77103
36.50119	475.07999
36.52117	463.24701
36.54116	483.37799
36.56114	491.74503
36.58113	503.66602
36.60111	485.84998
36.62109	474.50201
36.64108	476.58899
36.66106	491.01001
36.68105	473.74603
36.70103	437.56101
36.72101	441.98697
36.74100	441.45898
36.76098	410.11401
36.78097	436.44400
36.80095	459.36600
36.82094	476.63602
36.84092	473.72400
36.86091	511.84399
36.88089	533.13501
36.90087	521.74896
36.92086	487.64902
36.94084	530.26599
36.96083	531.11597
36.98081	501.39899
37.00079	517.39600
37.02078	501.13800
37.04076	489.83600
37.06075	497.71002
37.08074	477.75299
37.10072	481.25299
37.12071	488.31101
37.14069	538.23706
37.16067	559.47504
37.18066	595.55701
37.20064	625.14197
37.22062	671.72803
37.24061	706.58203
37.26059	718.06097
37.28057	777.31702
37.30056	820.74500
37.32055	829.42102
37.34053	830.42304
37.36052	810.45898
37.38050	812.71002
37.40048	772.19598
37.42046	764.03998
37.44045	723.22205
37.46043	661.50000
37.48042	596.81799
37.50040	534.80200
37.52039	511.07501
37.54037	513.26202
37.56036	502.06201
37.58034	470.06201
37.60032	469.44501
37.62030	473.50201
37.64029	449.40601
37.66027	449.37299
37.68026	459.73401
37.70024	473.41000
37.72022	496.05100
37.74021	488.84998
37.76020	501.24902
37.78018	514.59705
37.80016	496.00500
37.82015	488.05600
37.84013	432.89697
37.86012	480.41400
37.88010	433.91602
37.90008	458.23700
37.92007	465.46298
37.94005	469.82999
37.96003	473.38998
37.98002	502.27701
38.00000	524.69299
38.01999	558.55701
38.03997	585.73999
38.05996	619.43603
38.07994	607.70703
38.09992	543.98102
38.11990	575.14294
38.13989	595.25702
38.15987	562.29706
38.17986	584.77801
38.19984	581.56000
38.21982	571.04498
38.23981	556.54797
38.25979	514.00403
38.27977	530.30896
38.29976	514.62799
38.31974	480.17502
38.33973	507.29001
38.35971	475.17203
38.37970	472.48199
38.39968	489.97101
38.41966	558.72601
38.43965	606.44898
38.45963	618.36597
38.47961	642.63000
38.49960	683.77502
38.51958	689.42407
38.53957	719.17200
38.55955	668.63599
38.57954	636.27405
38.59952	587.03302
38.61950	569.31598
38.63948	532.33801
38.65947	522.04297
38.67945	490.28699
38.69943	490.03699
38.71942	460.32599
38.73940	460.25400
38.75938	443.66501
38.77937	421.55399
38.79935	451.10901
38.81934	444.03799
38.83932	439.85599
38.85930	417.33697
38.87929	388.69400
38.89927	406.88297
38.91925	415.88797
38.93924	395.31601
38.95922	380.21204
38.97920	360.87900
38.99919	381.93500
39.01917	402.53699
39.03915	412.27203
39.05914	392.27002
39.07912	377.76700
39.09910	396.12299
39.11909	403.69101
39.13908	412.78400
39.15906	416.82098
39.17904	403.29202
39.19902	399.28299
39.21901	389.95398
39.23899	393.09500
39.25897	397.94000
39.27896	380.19101
39.29894	387.24503
39.31892	392.26602
39.33891	383.47601
39.35889	380.19400
39.37888	381.74603
39.39886	384.37100
39.41884	370.46698
39.43882	357.79501
39.45880	364.16800
39.47879	369.10602
39.49878	337.19299
39.51876	346.69699
39.53874	380.46100
39.55872	379.91000
39.57871	380.29901
39.59869	370.74503
39.61867	398.90100
39.63866	406.01901
39.65864	405.92200
39.67862	406.98697
39.69860	430.16699
39.71859	445.54300
39.73857	457.89200
39.75855	441.03699
39.77854	435.09000
39.79852	477.00900
39.81850	497.06201
39.83849	507.99899
39.85847	591.87500
39.87846	646.87500
39.89844	750.95099
39.91842	767.10498
39.93840	885.76703
39.95839	909.12201
39.97837	979.38702
39.99836	972.36896
40.01834	1002.07800
40.03832	964.03003
40.05830	962.02600
40.07829	952.47705
40.09827	920.78601
40.11825	854.86200
40.13824	827.94000
40.15822	800.81000
40.17820	736.25098
40.19818	691.99103
40.21817	636.30597
40.23815	611.91406
40.25813	566.89899
40.27811	505.44400
40.29810	459.88599
40.31808	439.98099
40.33807	435.33099
40.35805	403.94601
40.37803	399.28201
40.39801	353.62698
40.41799	385.48798
40.43798	369.67999
40.45796	390.58398
40.47794	369.74301
40.49793	358.42099
40.51791	374.00601
40.53789	416.18899
40.55788	419.95999
40.57787	432.02698
40.59784	428.21603
40.61783	411.30899
40.63781	411.14002
40.65780	405.56601
40.67778	398.41800
40.69775	398.17203
40.71774	418.82498
40.73772	385.87399
40.75771	406.72000
40.77769	413.98697
40.79767	426.79602
40.81765	403.92798
40.83764	433.26401
40.85762	443.96899
40.87761	450.89697
40.89758	443.51999
40.91757	480.10501
40.93755	464.09000
40.95753	452.31399
40.97752	435.27801
40.99750	436.45499
41.01748	461.22800
41.03746	427.48297
41.05745	409.26001
41.07743	400.78601
41.09741	427.57001
41.11739	430.69000
41.13737	387.94900
41.15736	415.67999
41.17734	436.01401
41.19732	396.58298
41.21730	393.75400
41.23729	419.53400
41.25727	408.99500
41.27726	441.26102
41.29724	427.03799
41.31722	453.09201
41.33720	469.33697
41.35719	469.45599
41.37717	450.22299
41.39715	401.66699
41.41713	380.01001
41.43711	396.84399
41.45710	404.50299
41.47708	381.93799
41.49706	389.45297
41.51705	389.79800
41.53703	364.69299
41.55701	373.79501
41.57700	353.88098
41.59697	361.01202
41.61696	343.58798
41.63694	354.03101
41.65692	354.63101
41.67691	421.77002
41.69688	405.18601
41.71687	440.66602
41.73685	474.91202
41.75683	481.92697
41.77682	520.07404
41.79680	511.73001
41.81678	478.98498
41.83676	469.80899
41.85675	471.47900
41.87673	454.97699
41.89671	442.53201
41.91669	432.84601
41.93667	421.40900
41.95666	413.30200
41.97664	384.55798
41.99662	386.11301
42.01661	415.92297
42.03659	380.32999
42.05657	378.99698
42.07656	395.24701
42.09654	366.86600
42.11652	376.93899
42.13650	371.85199
42.15648	376.07700
42.17646	382.74402
42.19644	387.35599
42.21643	397.79300
42.23641	441.20203
42.25639	463.59201
42.27638	445.57602
42.29636	433.98697
42.31634	463.74802
42.33632	475.27402
42.35630	459.84201
42.37629	512.56598
42.39627	487.37997
42.41625	480.33200
42.43623	486.41901
42.45621	482.01602
42.47620	542.67200
42.49618	514.82703
42.51616	555.66296
42.53614	525.74799
42.55613	559.50201
42.57611	584.22205
42.59609	610.48407
42.61607	570.01801
42.63605	609.03601
42.65603	627.29004
42.67601	614.92407
42.69600	591.21002
42.71598	592.18701
42.73596	612.38599
42.75594	614.43304
42.77593	600.94403
42.79591	557.17297
42.81589	493.90601
42.83587	481.24103
42.85586	472.78101
42.87584	483.04501
42.89582	470.40799
42.91580	416.73102
42.93578	387.44800
42.95576	392.12799
42.97575	344.10300
42.99573	322.35297
43.01571	359.66699
43.03569	384.79300
43.05568	362.82398
43.07566	348.82999
43.09563	367.00299
43.11562	363.42697
43.13560	321.15698
43.15558	319.58899
43.17556	332.63202
43.19554	344.25101
43.21553	353.83600
43.23551	366.71802
43.25549	341.36398
43.27547	379.99500
43.29545	374.44000
43.31544	391.61801
43.33542	423.76202
43.35540	419.25699
43.37538	402.31101
43.39536	445.81601
43.41534	457.96399
43.43533	435.97299
43.45531	442.63300
43.47529	432.28601
43.49527	444.81399
43.51526	436.53900
43.53524	427.87201
43.55522	425.52698
43.57520	426.63501
43.59518	401.40500
43.61516	367.15201
43.63514	361.27203
43.65512	369.92200
43.67511	359.47299
43.69509	386.44400
43.71507	360.03900
43.73505	337.57901
43.75503	313.28000
43.77501	340.82199
43.79499	303.40698
43.81498	314.94998
43.83496	323.70401
43.85494	312.45499
43.87492	336.41101
43.89490	341.95398
43.91488	341.82999
43.93486	332.90799
43.95485	327.62900
43.97483	310.57101
43.99481	300.36600
44.01479	316.65698
44.03478	322.36200
44.05476	332.55200
44.07474	348.14002
44.09472	340.07700
44.11470	326.65399
44.13468	321.09299
44.15466	281.00699
44.17464	284.36697
44.19462	333.77301
44.21460	310.80899
44.23459	319.46500
44.25457	327.79999
44.27455	328.55100
44.29453	331.50900
44.31451	343.71103
44.33450	366.20602
44.35448	357.39999
44.37446	333.49100
44.39444	353.18899
44.41442	343.22900
44.43440	340.50400
44.45438	356.24301
44.47436	327.71603
44.49435	363.19000
44.51433	322.02298
44.53431	336.32297
44.55429	336.98999
44.57427	317.94299
44.59425	320.38599
44.61423	309.13400
44.63421	358.61700
44.65420	344.09601
44.67418	343.92398
44.69416	375.05698
44.71414	381.64301
44.73412	353.83200
44.75410	370.72800
44.77408	372.55698
44.79406	368.11502
44.81405	375.64203
44.83403	390.82999
44.85401	396.86398
44.87399	397.95898
44.89397	408.57901
44.91395	402.28201
44.93393	419.45898
44.95391	433.51602
44.97389	407.90299
44.99387	408.82297
45.01386	434.13101
45.03384	435.15399
45.05382	423.57501
45.07380	445.34201
45.09378	398.96500
45.11376	416.79501
45.13374	420.01300
45.15373	395.50299
45.17371	383.32898
45.19368	387.37900
45.21366	378.51401
45.23365	381.20401
45.25363	357.67102
45.27361	337.99600
45.29359	335.77603
45.31357	328.01502
45.33355	354.69400
45.35354	351.34699
45.37352	350.54999
45.39349	336.09399
45.41347	371.00601
45.43346	338.61203
45.45344	418.28299
45.47342	419.84699
45.49340	443.14801
45.51338	456.21701
45.53336	453.64002
45.55335	446.76001
45.57333	470.81500
45.59330	458.14002
45.61328	465.59100
45.63326	434.88998
45.65324	409.52399
45.67323	407.98398
45.69320	399.74002
45.71318	396.49799
45.73317	371.25699
45.75315	357.96298
45.77313	355.77902
45.79311	349.81799
45.81309	340.50000
45.83308	340.77203
45.85306	360.82898
45.87304	351.38797
45.89301	346.50400
45.91299	321.62500
45.93298	348.47201
45.95296	343.50299
45.97294	348.66299
45.99292	340.07999
46.01290	337.22800
46.03288	347.12900
46.05286	338.61203
46.07285	355.65698
46.09282	349.91800
46.11280	345.13400
46.13278	352.95798
46.15276	354.08697
46.17274	353.21603
46.19272	358.53201
46.21270	323.85098
46.23268	322.24802
46.25267	315.90399
46.27265	331.25400
46.29263	292.49399
46.31261	321.88797
46.33259	305.13699
46.35257	315.14502
46.37255	312.49298
46.39253	283.39499
46.41251	293.07602
46.43249	301.59299
46.45247	296.93298
46.47245	278.32898
46.49243	298.26700
46.51241	303.17700
46.53239	288.12799
46.55238	282.61603
46.57236	304.18698
46.59233	312.48099
46.61232	320.48697
46.63230	311.15601
46.65228	301.21301
46.67226	325.97601
46.69224	320.30899
46.71222	301.57001
46.73220	279.81101
46.75218	322.52200
46.77216	325.21301
46.79214	344.59299
46.81212	308.91901
46.83210	311.73401
46.85208	313.31799
46.87206	304.16202
46.89204	310.72601
46.91202	300.23901
46.93200	318.12900
46.95198	309.46698
46.97196	316.19601
46.99194	326.69900
47.01192	330.66699
47.03190	347.06201
47.05188	360.94299
47.07187	357.05399
47.09184	362.15698
47.11182	326.89398
47.13180	367.01801
47.15178	336.41202
47.17176	337.16299
47.19174	347.64700
47.21172	370.01999
47.23170	352.44400
47.25168	372.95798
47.27166	362.51999
47.29165	353.06201
47.31162	329.12799
47.33160	333.48898
47.35159	372.16501
47.37157	385.73102
47.39155	373.64700
47.41153	365.42899
47.43151	370.73300
47.45149	354.23203
47.47147	388.33899
47.49145	383.05798
47.51143	392.70801
47.53141	371.44101
47.55139	404.71503
47.57137	425.13101
47.59135	389.24701
47.61133	389.24301
47.63131	397.52399
47.65129	375.93500
47.67127	370.53201
47.69125	338.26602
47.71122	359.33298
47.73121	335.39200
47.75119	322.02799
47.77117	352.74902
47.79115	335.48999
47.81113	338.69699
47.83111	350.73102
47.85109	360.15201
47.87107	326.14603
47.89104	300.13699
47.91103	299.71402
47.93100	307.32898
47.95099	293.43399
47.97097	309.93100
47.99094	327.38397
48.01093	314.13101
48.03091	312.09900
48.05089	319.79300
48.07087	336.90399
48.09084	335.84699
48.11082	355.25299
48.13080	346.56900
48.15078	324.17001
48.17077	318.58798
48.19074	306.80399
48.21072	318.89899
48.23071	332.22299
48.25068	347.16101
48.27066	334.95297
48.29065	344.49500
48.31062	355.11700
48.33060	349.20801
48.35059	338.00601
48.37056	344.37299
48.39054	347.28699
48.41052	352.32398
48.43050	346.12100
48.45048	371.89999
48.47046	362.11203
48.49044	370.35696
48.51042	362.05698
48.53040	376.15698
48.55038	398.85797
48.57036	369.06299
48.59034	362.33298
48.61032	355.08600
48.63030	346.72800
48.65028	346.75601
48.67026	364.10202
48.69024	344.08600
48.71021	305.97601
48.73019	327.36798
48.75017	325.56299
48.77015	314.19501
48.79013	285.17700
48.81011	305.58697
48.83009	281.10602
48.85007	320.97201
48.87005	288.76602
48.89003	306.31601
48.91001	258.36697
48.92999	268.53601
48.94997	271.17300
48.96995	281.36600
48.98993	310.37698
49.00991	311.98297
49.02989	310.39398
49.04987	327.83298
49.06985	330.27603
49.08983	320.59601
49.10981	315.68899
49.12979	355.29300
49.14977	371.14002
49.16975	375.53299
49.18972	340.63501
49.20970	366.68500
49.22968	385.87201
49.24966	353.44601
49.26964	332.96698
49.28962	307.18298
49.30960	310.14999
49.32958	316.53799
49.34956	315.10800
49.36954	303.35599
49.38952	296.70102
49.40950	320.64401
49.42948	301.48999
49.44946	275.11700
49.46944	277.15900
49.48941	278.61301
49.50940	278.33499
49.52937	281.64700
49.54935	279.56500
49.56933	272.81000
49.58931	288.11401
49.60929	293.51001
49.62927	293.70401
49.64925	293.51999
49.66923	330.32898
49.68921	297.86697
49.70918	309.54901
49.72916	302.04700
49.74914	331.28500
49.76912	303.89398
49.78910	333.67801
49.80908	351.25400
49.82906	341.61401
49.84904	352.13602
49.86902	360.52899
49.88900	357.31299
49.90898	364.77603
49.92896	368.36398
49.94894	356.85998
49.96892	368.63000
49.98889	358.58200
50.00888	367.35498
50.02885	352.15799
50.04884	346.12799
50.06881	374.47998
50.08879	377.97699
50.10877	322.74701
50.12875	330.79901
50.14873	339.25699
50.16871	345.11902
50.18868	329.16202
50.20866	347.57602
50.22864	325.06799
50.24862	359.73602
50.26860	388.72699
50.28858	369.64102
50.30856	369.76401
50.32854	362.46100
50.34852	369.37000
50.36850	368.22601
50.38847	378.62299
50.40845	367.04700
50.42843	354.95599
50.44841	335.61700
50.46839	353.96500
50.48837	356.95499
50.50835	338.42899
50.52833	337.43601
50.54831	294.88297
50.56829	281.85797
50.58826	251.51500
50.60824	297.14801
50.62822	330.10202
50.64820	308.72900
50.66818	318.56799
50.68816	293.48099
50.70814	309.49298
50.72812	339.72000
50.74809	330.84799
50.76807	316.28500
50.78805	333.62000
50.80803	352.73401
50.82801	357.54401
50.84799	350.68399
50.86797	325.65500
50.88794	328.17203
50.90792	339.81000
50.92790	335.74203
50.94788	328.69299
50.96786	293.76300
50.98784	353.47601
51.00782	320.30399
51.02780	353.19101
51.04778	325.70502
51.06776	318.63602
51.08773	312.25800
51.10771	321.46201
51.12769	319.83899
51.14767	310.43500
51.16765	296.19699
51.18762	286.37399
51.20760	290.99500
51.22758	308.41699
51.24756	290.33697
51.26754	279.99298
51.28752	276.12698
51.30750	296.58499
51.32748	296.43298
51.34745	246.07400
51.36743	253.27800
51.38741	244.17401
51.40739	297.60101
51.42736	298.29202
51.44735	303.91202
51.46732	290.52600
51.48730	298.96899
51.50728	318.75601
51.52726	334.24902
51.54724	309.53201
51.56722	283.24802
51.58720	292.43100
51.60717	282.52399
51.62716	278.16000
51.64713	273.70502
51.66711	283.46698
51.68709	297.72601
51.70707	278.18899
51.72704	297.81799
51.74703	298.36200
51.76700	266.79202
51.78698	261.86200
51.80696	266.36200
51.82694	249.75900
51.84692	278.66400
51.86689	248.08400
51.88687	263.04001
51.90685	282.02799
51.92683	277.89697
51.94681	269.39297
51.96679	294.74203
51.98676	294.61401
52.00674	282.54501
52.02672	287.24402
52.04670	292.27103
52.06668	282.76602
52.08666	292.14401
52.10663	290.77301
52.12661	282.05698
52.14659	302.70300
52.16657	279.50400
52.18654	298.02499
52.20652	276.60300
52.22650	270.70300
52.24648	259.80499
52.26646	305.64401
52.28643	264.00900
52.30642	272.49298
52.32639	280.50201
52.34637	296.03500
52.36635	279.46799
52.38633	262.90500
52.40630	284.44998
52.42629	304.33099
52.44626	317.12000
52.46624	293.61902
52.48622	271.77002
52.50620	294.20203
52.52618	319.64502
52.54616	312.51102
52.56614	295.29999
52.58611	333.87000
52.60609	345.59399
52.62606	362.56699
52.64605	335.03299
52.66602	370.89297
52.68600	345.12601
52.70598	349.14700
52.72596	318.12000
52.74593	300.05499
52.76591	312.49799
52.78589	330.64603
52.80587	291.89600
52.82585	275.71603
52.84582	265.63901
52.86580	281.01602
52.88578	276.24301
52.90575	253.24300
52.92574	269.42798
52.94571	269.43298
52.96569	258.97299
52.98567	274.92398
53.00565	279.17300
53.02563	285.37201
53.04561	308.06799
53.06558	312.79901
53.08556	297.67300
53.10553	310.28601
53.12551	285.27701
53.14549	316.79501
53.16547	319.74603
53.18544	305.72699
53.20542	308.32898
53.22540	316.43399
53.24538	311.29800
53.26536	310.58099
53.28534	316.17203
53.30531	311.12601
53.32529	306.12698
53.34527	298.77502
53.36525	281.38199
53.38522	280.61801
53.40521	276.28900
53.42518	259.72501
53.44516	273.50500
53.46514	278.39899
53.48512	247.59900
53.50509	228.52901
53.52507	272.02298
53.54505	257.91000
53.56503	271.53000
53.58500	266.64301
53.60498	264.97699
53.62496	278.67999
53.64494	274.18399
53.66491	282.09500
53.68489	258.89099
53.70487	249.45399
53.72485	266.85696
53.74482	283.01700
53.76480	263.67801
53.78478	256.58798
53.80476	260.68100
53.82473	265.65201
53.84471	265.29901
53.86469	284.52499
53.88467	269.89600
53.90464	257.25699
53.92462	262.54401
53.94460	259.66501
53.96458	241.10200
53.98455	266.94400
54.00453	293.97699
54.02451	269.75400
54.04449	262.64603
54.06446	272.39200
54.08444	291.57800
54.10442	284.90698
54.12440	273.57800
54.14437	271.51502
54.16435	267.24701
54.18433	273.38797
54.20430	274.35498
54.22428	265.26102
54.24426	268.69202
54.26424	255.68501
54.28422	282.35599
54.30419	304.46201
54.32417	281.52600
54.34415	287.72800
54.36413	276.31101
54.38410	271.33398
54.40408	278.81201
54.42406	281.90100
54.44403	265.53500
54.46401	272.46899
54.48399	273.50400
54.50397	265.01202
54.52395	227.10600
54.54393	240.69600
54.56390	251.52600
54.58388	257.52899
54.60386	273.80100
54.62383	277.68899
54.64381	276.17801
54.66379	255.18001
54.68376	272.02499
54.70374	245.70700
54.72372	272.06799
54.74369	291.36099
54.76367	246.50400
54.78365	253.47700
54.80363	274.60400
54.82361	264.46698
54.84358	232.77000
54.86356	270.49600
54.88353	250.73599
54.90351	246.59599
54.92349	215.94099
54.94347	231.66600
54.96344	231.82101
54.98342	234.15302
55.00340	260.64301
55.02338	278.70001
55.04335	275.12201
55.06333	268.37900
55.08331	258.76202
55.10328	253.44099
55.12326	279.57800
55.14324	257.38098
55.16322	264.46600
55.18319	240.51900
55.20317	259.21802
55.22315	271.61603
55.24312	272.10300
55.26310	253.09799
55.28308	245.54500
55.30306	266.15698
55.32303	279.16800
55.34301	269.36697
55.36299	262.63501
55.38296	247.88301
55.40294	246.64400
55.42292	260.83600
55.44289	247.17902
55.46287	246.00600
55.48285	250.37401
55.50283	253.94299
55.52280	274.67902
55.54278	247.81100
55.56276	252.77901
55.58273	242.18102
55.60271	237.82501
55.62268	250.69800
55.64266	270.81201
55.66264	253.30501
55.68261	243.79799
55.70259	243.60200
55.72257	243.18201
55.74255	243.13701
55.76252	256.13800
55.78250	262.99600
55.80248	267.04202
55.82245	273.95499
55.84243	276.31799
55.86241	287.98599
55.88238	284.14102
55.90236	258.21002
55.92234	273.36298
55.94231	256.03201
55.96229	270.42200
55.98226	271.73700
56.00224	263.41501
56.02222	262.46600
56.04220	274.03000
56.06218	269.61301
56.08215	240.45599
56.10213	263.89297
56.12210	280.88098
56.14208	275.15299
56.16206	276.85898
56.18203	250.66901
56.20201	248.10101
56.22199	244.86000
56.24197	248.99300
56.26194	249.85800
56.28192	241.99899
56.30190	237.34399
56.32187	240.18701
56.34185	227.77200
56.36183	252.21300
56.38180	251.66800
56.40178	225.59599
56.42175	210.36400
56.44173	227.13600
56.46171	237.37501
56.48169	219.43799
56.50166	236.94398
56.52164	247.25900
56.54162	244.86500
56.56159	248.87401
56.58157	225.45000
56.60154	241.60800
56.62152	244.25200
56.64150	256.51999
56.66147	249.40399
56.68145	238.28101
56.70142	242.34000
56.72140	251.77600
56.74138	232.23799
56.76135	228.76199
56.78133	241.27600
56.80131	260.11203
56.82129	251.09599
56.84126	233.23599
56.86124	245.22200
56.88121	247.34100
56.90119	249.08900
56.92117	219.60200
56.94114	236.25900
56.96112	255.66600
56.98109	259.08899
57.00107	253.58701
57.02105	233.06200
57.04103	234.47600
57.06100	245.10600
57.08098	243.37102
57.10095	267.99399
57.12093	286.06900
57.14091	262.27801
57.16089	250.30501
57.18086	251.05400
57.20084	262.32498
57.22081	254.22101
57.24079	261.28000
57.26076	269.81299
57.28074	255.76199
57.30072	250.93500
57.32069	286.35098
57.34067	295.57101
57.36065	302.54602
57.38062	302.63400
57.40060	283.00101
57.42057	285.67902
57.44055	274.49600
57.46053	280.55298
57.48050	267.68601
57.50048	268.69202
57.52046	273.78699
57.54043	271.47900
57.56041	251.88001
57.58038	266.03601
57.60036	287.99200
57.62033	274.30798
57.64031	281.85599
57.66029	259.81900
57.68026	274.62698
57.70024	255.44899
57.72022	250.33701
57.74019	243.54700
57.76017	248.46899
57.78014	251.27901
57.80012	263.86099
57.82010	254.37001
57.84007	226.96799
57.86005	221.69701
57.88002	242.87401
57.90000	254.15102
57.91998	280.99399
57.93995	272.85297
57.95993	253.80701
57.97990	255.00800
57.99988	264.47601
58.01985	257.18100
58.03983	251.72501
58.05981	263.93201
58.07978	273.49600
58.09976	285.45999
58.11974	281.62201
58.13971	291.26001
58.15969	260.61603
58.17966	262.89099
58.19964	275.85696
58.21962	256.71103
58.23959	272.04102
58.25957	245.23300
58.27954	253.10800
58.29952	263.69000
58.31950	251.50700
58.33947	227.55901
58.35945	240.71199
58.37942	236.70300
58.39940	251.59100
58.41938	248.87501
58.43935	251.54900
58.45933	233.79700
58.47930	234.81799
58.49928	234.42200
58.51926	207.21100
58.53923	226.13200
58.55921	212.79799
58.57918	225.25700
58.59916	220.95799
58.61913	223.67001
58.63911	209.34500
58.65908	224.32600
58.67906	222.99100
58.69903	208.07400
58.71901	216.20500
58.73899	231.11700
58.75896	215.08900
58.77894	201.48100
58.79891	205.16101
58.81889	212.34599
58.83887	207.14900
58.85884	219.86500
58.87882	219.92000
58.89879	212.00000
58.91877	231.49300
58.93874	204.09100
58.95872	216.92500
58.97870	221.45500
58.99867	225.13800
59.01865	226.36800
59.03862	246.82301
59.05860	226.24199
59.07857	233.31599
59.09855	207.78000
59.11852	205.57600
59.13850	230.43900
59.15847	223.66600
59.17844	217.69600
59.19843	216.27101
59.21840	221.93599
59.23838	214.06799
59.25835	225.10101
59.27833	214.83600
59.29831	216.96899
59.31828	218.99399
59.33826	245.82301
59.35823	241.49799
59.37820	207.29199
59.39818	212.96399
59.41816	237.62102
59.43813	243.18001
59.45811	241.31700
59.47809	260.21902
59.49806	222.07301
59.51804	224.51900
59.53801	224.54799
59.55799	226.58101
59.57796	230.93500
59.59793	219.23599
59.61791	220.04799
59.63789	221.45799
59.65786	233.38101
59.67783	253.69701
59.69781	246.50800
59.71778	232.70399
59.73776	234.14700
59.75774	249.18102
59.77771	242.84599
59.79769	251.32901
59.81766	252.88901
59.83764	253.04399
59.85762	242.52200
59.87759	243.82501
59.89756	218.61301
59.91754	234.65601
59.93751	235.81100
59.95749	256.71402
59.97747	245.03700
59.99744	213.39999
60.01742	228.92999
60.03739	232.17102
