5.00000	2220.00000
5.01920	2290.00000
5.03840	2332.00000
5.05760	2447.00000
5.07680	2580.00000
5.09600	2752.00000
5.11520	3003.00000
5.13440	3292.00000
5.15360	3718.00000
5.17280	3910.00000
5.19200	3637.00000
5.21120	3002.00000
5.23040	2526.00000
5.24960	2249.00000
5.26880	2088.00000
5.28800	2058.00000
5.30720	2024.00000
5.32640	2043.00000
5.34560	2017.00000
5.36480	2009.00000
5.38400	2020.00000
5.40320	2014.00000
5.42240	2008.00000
5.44160	2014.00000
5.46080	1998.00000
5.48000	1997.00000
5.49920	2016.00000
5.51840	2022.00000
5.53760	2012.00000
5.55680	2016.00000
5.57600	2010.00000
5.59520	2044.00000
5.61440	2033.00000
5.63360	2026.00000
5.65280	2005.00000
5.67200	2035.00000
5.69120	2052.00000
5.71040	2022.00000
5.72960	2023.00000
5.74880	2048.00000
5.76800	2045.00000
5.78720	2046.00000
5.80640	2015.00000
5.82560	2010.00000
5.84480	2032.00000
5.86400	2044.00000
5.88320	2044.00000
5.90240	2054.00000
5.92160	2040.00000
5.94080	2048.00000
5.96000	2057.00000
5.97920	2041.00000
5.99840	2053.00000
6.01760	2028.00000
6.03680	2040.00000
6.05600	2050.00000
6.07520	2032.00000
6.09440	2026.00000
6.11360	2046.00000
6.13280	2058.00000
6.15200	2040.00000
6.17120	2046.00000
6.19040	2060.00000
6.20960	2042.00000
6.22880	2047.00000
6.24800	2055.00000
6.26720	2046.00000
6.28640	2030.00000
6.30560	2060.00000
6.32480	2066.00000
6.34400	2041.00000
6.36320	2048.00000
6.38240	2046.00000
6.40160	2043.00000
6.42080	2040.00000
6.44000	2047.00000
6.45920	2052.00000
6.47840	2093.00000
6.49760	2057.00000
6.51680	2068.00000
6.53600	2027.00000
6.55520	2062.00000
6.57440	2041.00000
6.59360	2050.00000
6.61280	2082.00000
6.63200	2080.00000
6.65120	2071.00000
6.67040	2065.00000
6.68960	2070.00000
6.70880	2079.00000
6.72800	2064.00000
6.74720	2054.00000
6.76640	2048.00000
6.78560	2078.00000
6.80480	2086.00000
6.82400	2095.00000
6.84320	2081.00000
6.86240	2081.00000
6.88160	2085.00000
6.90080	2110.00000
6.92000	2072.00000
6.93920	2090.00000
6.95840	2121.00000
6.97760	2128.00000
6.99680	2119.00000
7.01600	2129.00000
7.03520	2159.00000
7.05440	2165.00000
7.07360	2188.00000
7.09280	2195.00000
7.11200	2215.00000
7.13120	2241.00000
7.15040	2278.00000
7.16960	2324.00000
7.18880	2410.00000
7.20800	2506.00000
7.22720	2632.00000
7.24640	2786.00000
7.26560	2975.00000
7.28480	3256.00000
7.30400	3696.00000
7.32320	4194.00000
7.34240	5010.00000
7.36160	6166.00000
7.38080	7694.00000
7.40000	8939.00000
7.41920	8413.00000
7.43840	6249.00000
7.45760	4189.00000
7.47680	3046.00000
7.49600	2574.00000
7.51520	2362.00000
7.53440	2281.00000
7.55360	2246.00000
7.57280	2209.00000
7.59200	2226.00000
7.61120	2220.00000
7.63040	2214.00000
7.64960	2213.00000
7.66880	2200.00000
7.68800	2195.00000
7.70720	2188.00000
7.72640	2184.00000
7.74560	2203.00000
7.76480	2194.00000
7.78400	2203.00000
7.80320	2197.00000
7.82240	2190.00000
7.84160	2214.00000
7.86080	2235.00000
7.88000	2271.00000
7.89920	2274.00000
7.91840	2292.00000
7.93760	2337.00000
7.95680	2356.00000
7.97600	2424.00000
7.99520	2527.00000
8.01440	2644.00000
8.03360	2724.00000
8.05280	2941.00000
8.07200	3224.00000
8.09120	3554.00000
8.11040	3993.00000
8.12960	4649.00000
8.14880	5596.00000
8.16800	6982.00000
8.18720	8979.00000
8.20640	11519.00000
8.22560	13370.00000
8.24480	12799.00000
8.26400	9803.00000
8.28320	6558.00000
8.30240	4576.00000
8.32160	3539.00000
8.34080	3060.00000
8.36000	2849.00000
8.37920	2748.00000
8.39840	2746.00000
8.41760	2824.00000
8.43680	2912.00000
8.45600	3042.00000
8.47520	3273.00000
8.49440	3550.00000
8.51360	3932.00000
8.53280	4502.00000
8.55200	5388.00000
8.57120	6574.00000
8.59040	8276.00000
8.60960	10805.00000
8.62880	13283.00000
8.64800	14263.00000
8.66720	12352.00000
8.68640	8776.00000
8.70560	5813.00000
8.72480	4100.00000
8.74400	3257.00000
8.76320	2822.00000
8.78240	2683.00000
8.80160	2594.00000
8.82080	2590.00000
8.84000	2568.00000
8.85920	2588.00000
8.87840	2677.00000
8.89760	2759.00000
8.91680	2938.00000
8.93600	3168.00000
8.95520	3517.00000
8.97440	3970.00000
8.99360	4351.00000
9.01280	4381.00000
9.03200	3996.00000
9.05120	3559.00000
9.07040	3282.00000
9.08960	3286.00000
9.10880	3464.00000
9.12800	3912.00000
9.14720	4459.00000
9.16640	4875.00000
9.18560	4779.00000
9.20480	4209.00000
9.22400	3534.00000
9.24320	3088.00000
9.26240	2761.00000
9.28160	2483.00000
9.30080	2373.00000
9.32000	2258.00000
9.33920	2202.00000
9.35840	2197.00000
9.37760	2167.00000
9.39680	2155.00000
9.41600	2136.00000
9.43520	2145.00000
9.45440	2121.00000
9.47360	2115.00000
9.49280	2110.00000
9.51200	2121.00000
9.53120	2124.00000
9.55040	2112.00000
9.56960	2130.00000
9.58880	2087.00000
9.60800	2110.00000
9.62720	2098.00000
9.64640	2085.00000
9.66560	2092.00000
9.68480	2095.00000
9.70400	2076.00000
9.72320	2085.00000
9.74240	2080.00000
9.76160	2086.00000
9.78080	2072.00000
9.80000	2068.00000
9.81920	2028.00000
9.83840	2059.00000
9.85760	2062.00000
9.87680	2058.00000
9.89600	2060.00000
9.91520	2068.00000
9.93440	2065.00000
9.95360	2069.00000
9.97280	2059.00000
9.99200	2067.00000
10.01120	2036.00000
10.03040	2043.00000
10.04960	2054.00000
10.06880	2064.00000
10.08800	2044.00000
10.10720	2080.00000
10.12640	2076.00000
10.14560	2120.00000
10.16480	2133.00000
10.18400	2184.00000
10.20320	2239.00000
10.22240	2318.00000
10.24160	2429.00000
10.26080	2666.00000
10.28000	2949.00000
10.29920	3441.00000
10.31840	4036.00000
10.33760	4560.00000
10.35680	4386.00000
10.37600	3628.00000
10.39520	2905.00000
10.41440	2413.00000
10.43360	2166.00000
10.45280	2076.00000
10.47200	2085.00000
10.49120	2052.00000
10.51040	2028.00000
10.52960	2009.00000
10.54880	2003.00000
10.56800	1988.00000
10.58720	1990.00000
10.60640	1978.00000
10.62560	1969.00000
10.64480	1975.00000
10.66400	1972.00000
10.68320	1971.00000
10.70240	1952.00000
10.72160	1974.00000
10.74080	1963.00000
10.76000	1945.00000
10.77920	1973.00000
10.79840	1958.00000
10.81760	1960.00000
10.83680	1968.00000
10.85600	1955.00000
10.87520	1974.00000
10.89440	1953.00000
10.91360	1937.00000
10.93280	1978.00000
10.95200	1926.00000
10.97120	1925.00000
10.99040	1937.00000
11.00960	1932.00000
11.02880	1922.00000
11.04800	1903.00000
11.06720	1925.00000
11.08640	1922.00000
11.10560	1927.00000
11.12480	1912.00000
11.14400	1924.00000
11.16320	1931.00000
11.18240	1928.00000
11.20160	1896.00000
11.22080	1903.00000
11.24000	1888.00000
11.25920	1901.00000
11.27840	1906.00000
11.29760	1874.00000
11.31680	1910.00000
11.33600	1905.00000
11.35520	1903.00000
11.37440	1887.00000
11.39360	1848.00000
11.41280	1888.00000
11.43200	1911.00000
11.45120	1918.00000
11.47040	1901.00000
11.48960	1870.00000
11.50880	1908.00000
11.52800	1913.00000
11.54720	1888.00000
11.56640	1889.00000
11.58560	1868.00000
11.60480	1871.00000
11.62400	1854.00000
11.64320	1864.00000
11.66240	1867.00000
11.68160	1878.00000
11.70080	1878.00000
11.72000	1866.00000
11.73920	1874.00000
11.75840	1898.00000
11.77760	1867.00000
11.79680	1867.00000
11.81600	1876.00000
11.83520	1876.00000
11.85440	1875.00000
11.87360	1882.00000
11.89280	1866.00000
11.91200	1845.00000
11.93120	1871.00000
11.95040	1878.00000
11.96960	1886.00000
11.98880	1888.00000
12.00800	1940.00000
12.02720	1935.00000
12.04640	2002.00000
12.06560	2023.00000
12.08480	2100.00000
12.10400	2217.00000
12.12320	2345.00000
12.14240	2472.00000
12.16160	2534.00000
12.18080	2428.00000
12.20000	2310.00000
12.21920	2164.00000
12.23840	2069.00000
12.25760	2044.00000
12.27680	2068.00000
12.29600	2137.00000
12.31520	2247.00000
12.33440	2430.00000
12.35360	2809.00000
12.37280	3333.00000
12.39200	3924.00000
12.41120	4302.00000
12.43040	4108.00000
12.44960	3373.00000
12.46880	2682.00000
12.48800	2260.00000
12.50720	2062.00000
12.52640	1960.00000
12.54560	1915.00000
12.56480	1910.00000
12.58400	1888.00000
12.60320	1889.00000
12.62240	1857.00000
12.64160	1871.00000
12.66080	1848.00000
12.68000	1850.00000
12.69920	1849.00000
12.71840	1882.00000
12.73760	1859.00000
12.75680	1872.00000
12.77600	1877.00000
12.79520	1868.00000
12.81440	1886.00000
12.83360	1912.00000
12.85280	1940.00000
12.87200	1976.00000
12.89120	2043.00000
12.91040	2112.00000
12.92960	2316.00000
12.94880	2557.00000
12.96800	2937.00000
12.98720	3590.00000
13.00640	4307.00000
13.02560	4911.00000
13.04480	4764.00000
13.06400	3926.00000
13.08320	2998.00000
13.10240	2392.00000
13.12160	2126.00000
13.14080	2016.00000
13.16000	1952.00000
13.17920	1926.00000
13.19840	1878.00000
13.21760	1869.00000
13.23680	1876.00000
13.25600	1864.00000
13.27520	1870.00000
13.29440	1880.00000
13.31360	1869.00000
13.33280	1848.00000
13.35200	1849.00000
13.37120	1828.00000
13.39040	1892.00000
13.40960	1841.00000
13.42880	1847.00000
13.44800	1869.00000
13.46720	1859.00000
13.48640	1883.00000
13.50560	1894.00000
13.52480	1903.00000
13.54400	1925.00000
13.56320	1934.00000
13.58240	1935.00000
13.60160	1960.00000
13.62080	2015.00000
13.64000	2076.00000
13.65920	2194.00000
13.67840	2294.00000
13.69760	2448.00000
13.71680	2586.00000
13.73600	2686.00000
13.75520	2806.00000
13.77440	3166.00000
13.79360	3672.00000
13.81280	4405.00000
13.83200	5118.00000
13.85120	5268.00000
13.87040	4712.00000
13.88960	3802.00000
13.90880	3008.00000
13.92800	2498.00000
13.94720	2276.00000
13.96640	2156.00000
13.98560	2076.00000
14.00480	2051.00000
14.02400	2067.00000
14.04320	2085.00000
14.06240	2137.00000
14.08160	2224.00000
14.10080	2351.00000
14.12000	2587.00000
14.13920	2882.00000
14.15840	3373.00000
14.17760	3922.00000
14.19680	4424.00000
14.21600	4550.00000
14.23520	4252.00000
14.25440	3698.00000
14.27360	3351.00000
14.29280	3304.00000
14.31200	3641.00000
14.33120	4331.00000
14.35040	5387.00000
14.36960	6455.00000
14.38880	6944.00000
14.40800	6269.00000
14.42720	4932.00000
14.44640	3767.00000
14.46560	2986.00000
14.48480	2544.00000
14.50400	2322.00000
14.52320	2218.00000
14.54240	2152.00000
14.56160	2091.00000
14.58080	2102.00000
14.60000	2080.00000
14.61920	2141.00000
14.63840	2179.00000
14.65760	2237.00000
14.67680	2307.00000
14.69600	2408.00000
14.71520	2503.00000
14.73440	2564.00000
14.75360	2461.00000
14.77280	2400.00000
14.79200	2314.00000
14.81120	2301.00000
14.83040	2295.00000
14.84960	2264.00000
14.86880	2178.00000
14.88800	2134.00000
14.90720	2140.00000
14.92640	2148.00000
14.94560	2182.00000
14.96480	2321.00000
14.98400	2510.00000
15.00320	2822.00000
15.02240	3260.00000
15.04160	3632.00000
15.06080	3841.00000
15.08000	3776.00000
15.09920	3662.00000
15.11840	3768.00000
15.13760	4207.00000
15.15680	4941.00000
15.17600	5557.00000
15.19520	5661.00000
15.21440	5069.00000
15.23360	4175.00000
15.25280	3366.00000
15.27200	2879.00000
15.29120	2626.00000
15.31040	2540.00000
15.32960	2593.00000
15.34880	2796.00000
15.36800	3170.00000
15.38720	3802.00000
15.40640	4870.00000
15.42560	6364.00000
15.44480	7938.00000
15.46400	9186.00000
15.48320	10235.00000
15.50240	11723.00000
15.52160	13301.00000
15.54080	13338.00000
15.56000	10852.00000
15.57920	7447.00000
15.59840	4857.00000
15.61760	3478.00000
15.63680	2830.00000
15.65600	2574.00000
15.67520	2453.00000
15.69440	2348.00000
15.71360	2329.00000
15.73280	2344.00000
15.75200	2328.00000
15.77120	2395.00000
15.79040	2446.00000
15.80960	2512.00000
15.82880	2732.00000
15.84800	3012.00000
15.86720	3600.00000
15.88640	4483.00000
15.90560	5878.00000
15.92480	7697.00000
15.94400	9407.00000
15.96320	9963.00000
15.98240	9256.00000
16.00160	7846.00000
16.02080	6690.00000
16.04000	5907.00000
16.05920	5455.00000
16.07840	5322.00000
16.09760	5139.00000
16.11680	4746.00000
16.13600	4267.00000
16.15520	3773.00000
16.17440	3575.00000
16.19360	3785.00000
16.21280	4217.00000
16.23200	4773.00000
16.25120	5130.00000
16.27040	4995.00000
16.28960	4452.00000
16.30880	3831.00000
16.32800	3430.00000
16.34720	3371.00000
16.36640	3606.00000
16.38560	3952.00000
16.40480	4587.00000
16.42400	5380.00000
16.44320	6404.00000
16.46240	7637.00000
16.48160	8338.00000
16.50080	8033.00000
16.52000	6868.00000
16.53920	5517.00000
16.55840	4593.00000
16.57760	4190.00000
16.59680	4174.00000
16.61600	4315.00000
16.63520	4198.00000
16.65440	3900.00000
16.67360	3420.00000
16.69280	2989.00000
16.71200	2712.00000
16.73120	2527.00000
16.75040	2457.00000
16.76960	2438.00000
16.78880	2473.00000
16.80800	2521.00000
16.82720	2641.00000
16.84640	2839.00000
16.86560	3015.00000
16.88480	3318.00000
16.90400	3588.00000
16.92320	4079.00000
16.94240	4799.00000
16.96160	5695.00000
16.98080	6342.00000
17.00000	6437.00000
17.01920	5754.00000
17.03840	4766.00000
17.05760	3876.00000
17.07680	3302.00000
17.09600	2988.00000
17.11520	2796.00000
17.13440	2796.00000
17.15360	2857.00000
17.17280	3074.00000
17.19200	3466.00000
17.21120	4014.00000
17.23040	4740.00000
17.24960	5556.00000
17.26880	6539.00000
17.28800	7673.00000
17.30720	8709.00000
17.32640	9134.00000
17.34560	8473.00000
17.36480	6910.00000
17.38400	5388.00000
17.40320	4304.00000
17.42240	3718.00000
17.44160	3551.00000
17.46080	3758.00000
17.48000	4406.00000
17.49920	5522.00000
17.51840	7475.00000
17.53760	10035.00000
17.55680	12122.00000
17.57600	12654.00000
17.59520	11449.00000
17.61440	10284.00000
17.63360	10369.00000
17.65280	10700.00000
17.67200	10047.00000
17.69120	8064.00000
17.71040	5798.00000
17.72960	4184.00000
17.74880	3280.00000
17.76800	2858.00000
17.78720	2583.00000
17.80640	2522.00000
17.82560	2473.00000
17.84480	2444.00000
17.86400	2456.00000
17.88320	2525.00000
17.90240	2556.00000
17.92160	2742.00000
17.94080	2981.00000
17.96000	3378.00000
17.97920	3997.00000
17.99840	4894.00000
18.01760	5934.00000
18.03680	6706.00000
18.05600	6782.00000
18.07520	6017.00000
18.09440	4981.00000
18.11360	4006.00000
18.13280	3368.00000
18.15200	2976.00000
18.17120	2682.00000
18.19040	2589.00000
18.20960	2510.00000
18.22880	2449.00000
18.24800	2428.00000
18.26720	2482.00000
18.28640	2532.00000
18.30560	2662.00000
18.32480	2861.00000
18.34400	3197.00000
18.36320	3515.00000
18.38240	3840.00000
18.40160	4111.00000
18.42080	4308.00000
18.44000	4674.00000
18.45920	5479.00000
18.47840	6947.00000
18.49760	8897.00000
18.51680	10615.00000
18.53600	11232.00000
18.55520	10048.00000
18.57440	7681.00000
18.59360	5475.00000
18.61280	3970.00000
18.63200	3147.00000
18.65120	2756.00000
18.67040	2558.00000
18.68960	2475.00000
18.70880	2405.00000
18.72800	2378.00000
18.74720	2309.00000
18.76640	2287.00000
18.78560	2266.00000
18.80480	2192.00000
18.82400	2181.00000
18.84320	2227.00000
18.86240	2217.00000
18.88160	2215.00000
18.90080	2255.00000
18.92000	2306.00000
18.93920	2373.00000
18.95840	2486.00000
18.97760	2642.00000
18.99680	2856.00000
19.01600	3022.00000
19.03520	3140.00000
19.05440	3058.00000
19.07360	2856.00000
19.09280	2651.00000
19.11200	2515.00000
19.13120	2389.00000
19.15040	2376.00000
19.16960	2407.00000
19.18880	2465.00000
19.20800	2497.00000
19.22720	2520.00000
19.24640	2499.00000
19.26560	2458.00000
19.28480	2354.00000
19.30400	2332.00000
19.32320	2342.00000
19.34240	2378.00000
19.36160	2450.00000
19.38080	2602.00000
19.40000	2816.00000
19.41920	3213.00000
19.43840	3796.00000
19.45760	4647.00000
19.47680	5768.00000
19.49600	6752.00000
19.51520	7208.00000
19.53440	6759.00000
19.55360	5703.00000
19.57280	4522.00000
19.59200	3661.00000
19.61120	3094.00000
19.63040	2769.00000
19.64960	2528.00000
19.66880	2432.00000
19.68800	2356.00000
19.70720	2324.00000
19.72640	2253.00000
19.74560	2263.00000
19.76480	2232.00000
19.78400	2268.00000
19.80320	2238.00000
19.82240	2220.00000
19.84160	2236.00000
19.86080	2267.00000
19.88000	2300.00000
19.89920	2378.00000
19.91840	2458.00000
19.93760	2605.00000
19.95680	2845.00000
19.97600	3126.00000
19.99520	3531.00000
20.01440	3767.00000
20.03360	3976.00000
20.05280	3856.00000
20.07200	3681.00000
20.09120	3541.00000
20.11040	3611.00000
20.12960	3878.00000
20.14880	4065.00000
20.16800	4094.00000
20.18720	3784.00000
20.20640	3392.00000
20.22560	2964.00000
20.24480	2680.00000
20.26400	2537.00000
20.28320	2497.00000
20.30240	2495.00000
20.32160	2490.00000
20.34080	2598.00000
20.36000	2700.00000
20.37920	2976.00000
20.39840	3372.00000
20.41760	3771.00000
20.43680	4071.00000
20.45600	4254.00000
20.47520	4340.00000
20.49440	4636.00000
20.51360	5322.00000
20.53280	6785.00000
20.55200	8939.00000
20.57120	11302.00000
20.59040	13300.00000
20.60960	13719.00000
20.62880	12754.00000
20.64800	11586.00000
20.66720	10685.00000
20.68640	10220.00000
20.70560	9573.00000
20.72480	8698.00000
20.74400	7899.00000
20.76320	7803.00000
20.78240	8434.00000
20.80160	9820.00000
20.82080	11428.00000
20.84000	12738.00000
20.85920	12949.00000
20.87840	13075.00000
20.89760	13538.00000
20.91680	14942.00000
20.93600	16663.00000
20.95520	17200.00000
20.97440	15763.00000
20.99360	12776.00000
21.01280	9499.00000
21.03200	6928.00000
21.05120	5303.00000
21.07040	4358.00000
21.08960	3761.00000
21.10880	3434.00000
21.12800	3144.00000
21.14720	2907.00000
21.16640	2745.00000
21.18560	2649.00000
21.20480	2558.00000
21.22400	2455.00000
21.24320	2446.00000
21.26240	2408.00000
21.28160	2356.00000
21.30080	2315.00000
21.32000	2315.00000
21.33920	2342.00000
21.35840	2295.00000
21.37760	2305.00000
21.39680	2324.00000
21.41600	2320.00000
21.43520	2331.00000
21.45440	2341.00000
21.47360	2340.00000
21.49280	2378.00000
21.51200	2400.00000
21.53120	2432.00000
21.55040	2504.00000
21.56960	2642.00000
21.58880	2856.00000
21.60800	3074.00000
21.62720	3441.00000
21.64640	3776.00000
21.66560	4039.00000
21.68480	4091.00000
21.70400	4028.00000
21.72320	3887.00000
21.74240	3867.00000
21.76160	4147.00000
21.78080	4747.00000
21.80000	5801.00000
21.81920	7412.00000
21.83840	9618.00000
21.85760	11856.00000
21.87680	13344.00000
21.89600	13655.00000
21.91520	12664.00000
21.93440	10795.00000
21.95360	8958.00000
21.97280	7281.00000
21.99200	6214.00000
22.01120	5694.00000
22.03040	5679.00000
22.04960	6065.00000
22.06880	6340.00000
22.08800	6220.00000
22.10720	5414.00000
22.12640	4435.00000
22.14560	3608.00000
22.16480	3032.00000
22.18400	2734.00000
22.20320	2614.00000
22.22240	2522.00000
22.24160	2516.00000
22.26080	2559.00000
22.28000	2664.00000
22.29920	2859.00000
22.31840	3184.00000
22.33760	3826.00000
22.35680	4792.00000
22.37600	6453.00000
22.39520	8564.00000
22.41440	10729.00000
22.43360	12064.00000
22.45280	12230.00000
22.47200	11378.00000
22.49120	9722.00000
22.51040	7888.00000
22.52960	6244.00000
22.54880	5147.00000
22.56800	4908.00000
22.58720	5378.00000
22.60640	6243.00000
22.62560	7181.00000
22.64480	7429.00000
22.66400	6882.00000
22.68320	5577.00000
22.70240	4274.00000
22.72160	3308.00000
22.74080	2764.00000
22.76000	2452.00000
22.77920	2344.00000
22.79840	2245.00000
22.81760	2251.00000
22.83680	2305.00000
22.85600	2379.00000
22.87520	2506.00000
22.89440	2690.00000
22.91360	2823.00000
22.93280	2828.00000
22.95200	2736.00000
22.97120	2533.00000
22.99040	2377.00000
23.00960	2237.00000
23.02880	2148.00000
23.04800	2143.00000
23.06720	2144.00000
23.08640	2258.00000
23.10560	2421.00000
23.12480	2670.00000
23.14400	3072.00000
23.16320	3417.00000
23.18240	3758.00000
23.20160	4056.00000
23.22080	4164.00000
23.24000	4103.00000
23.25920	3833.00000
23.27840	3447.00000
23.29760	3024.00000
23.31680	2727.00000
23.33600	2570.00000
23.35520	2520.00000
23.37440	2566.00000
23.39360	2620.00000
23.41280	2642.00000
23.43200	2538.00000
23.45120	2392.00000
23.47040	2233.00000
23.48960	2080.00000
23.50880	1972.00000
23.52800	1926.00000
23.54720	1860.00000
23.56640	1814.00000
23.58560	1829.00000
23.60480	1823.00000
23.62400	1820.00000
23.64320	1827.00000
23.66240	1826.00000
23.68160	1839.00000
23.70080	1834.00000
23.72000	1909.00000
23.73920	1967.00000
23.75840	2083.00000
23.77760	2188.00000
23.79680	2250.00000
23.81600	2294.00000
23.83520	2255.00000
23.85440	2218.00000
23.87360	2110.00000
23.89280	2050.00000
23.91200	1948.00000
23.93120	1939.00000
23.95040	1914.00000
23.96960	1886.00000
23.98880	1966.00000
24.00800	2045.00000
24.02720	2252.00000
24.04640	2472.00000
24.06560	2796.00000
24.08480	3200.00000
24.10400	3631.00000
24.12320	3958.00000
24.14240	4118.00000
24.16160	4018.00000
24.18080	3641.00000
24.20000	3286.00000
24.21920	3197.00000
24.23840	3284.00000
24.25760	3479.00000
24.27680	3516.00000
24.29600	3326.00000
24.31520	2956.00000
24.33440	2631.00000
24.35360	2417.00000
24.37280	2317.00000
24.39200	2344.00000
24.41120	2468.00000
24.43040	2654.00000
24.44960	2845.00000
24.46880	2894.00000
24.48800	2763.00000
24.50720	2569.00000
24.52640	2340.00000
24.54560	2082.00000
24.56480	1932.00000
24.58400	1847.00000
24.60320	1760.00000
24.62240	1733.00000
24.64160	1685.00000
24.66080	1664.00000
24.68000	1640.00000
24.69920	1661.00000
24.71840	1658.00000
24.73760	1683.00000
24.75680	1684.00000
24.77600	1693.00000
24.79520	1668.00000
24.81440	1661.00000
24.83360	1644.00000
24.85280	1638.00000
24.87200	1637.00000
24.89120	1684.00000
24.91040	1689.00000
24.92960	1756.00000
24.94880	1781.00000
24.96800	1797.00000
24.98720	1761.00000
25.00640	1744.00000
25.02560	1756.00000
25.04480	1824.00000
25.06400	1966.00000
25.08320	2145.00000
25.10240	2369.00000
25.12160	2520.00000
25.14080	2509.00000
25.16000	2402.00000
25.17920	2265.00000
25.19840	2217.00000
25.21760	2138.00000
25.23680	2105.00000
25.25600	2067.00000
25.27520	1978.00000
25.29440	1925.00000
25.31360	1866.00000
25.33280	1895.00000
25.35200	1918.00000
25.37120	1934.00000
25.39040	1944.00000
25.40960	1876.00000
25.42880	1810.00000
25.44800	1741.00000
25.46720	1680.00000
25.48640	1648.00000
25.50560	1588.00000
25.52480	1570.00000
25.54400	1531.00000
25.56320	1553.00000
25.58240	1526.00000
25.60160	1521.00000
25.62080	1555.00000
25.64000	1534.00000
25.65920	1529.00000
25.67840	1587.00000
25.69760	1599.00000
25.71680	1699.00000
25.73600	1808.00000
25.75520	1934.00000
25.77440	2055.00000
25.79360	2136.00000
25.81280	2046.00000
25.83200	1957.00000
25.85120	1891.00000
25.87040	1800.00000
25.88960	1767.00000
25.90880	1778.00000
25.92800	1824.00000
25.94720	1975.00000
25.96640	2212.00000
25.98560	2584.00000
26.00480	3040.00000
26.02400	3280.00000
26.04320	3188.00000
26.06240	2889.00000
26.08160	2538.00000
26.10080	2341.00000
26.12000	2283.00000
26.13920	2420.00000
26.15840	2577.00000
26.17760	2733.00000
26.19680	2838.00000
26.21600	2791.00000
26.23520	2647.00000
26.25440	2373.00000
26.27360	2081.00000
26.29280	1848.00000
26.31200	1697.00000
26.33120	1613.00000
26.35040	1554.00000
26.36960	1524.00000
26.38880	1510.00000
26.40800	1480.00000
26.42720	1478.00000
26.44640	1487.00000
26.46560	1479.00000
26.48480	1465.00000
26.50400	1473.00000
26.52320	1507.00000
26.54240	1605.00000
26.56160	1710.00000
26.58080	1888.00000
26.60000	2045.00000
26.61920	2100.00000
26.63840	2178.00000
26.65760	2189.00000
26.67680	2232.00000
26.69600	2368.00000
26.71520	2553.00000
26.73440	2577.00000
26.75360	2382.00000
26.77280	2139.00000
26.79200	1881.00000
26.81120	1696.00000
26.83040	1565.00000
26.84960	1501.00000
26.86880	1454.00000
26.88800	1421.00000
26.90720	1406.00000
26.92640	1390.00000
26.94560	1388.00000
26.96480	1375.00000
26.98400	1402.00000
27.00320	1398.00000
27.02240	1402.00000
27.04160	1428.00000
27.06080	1430.00000
27.08000	1484.00000
27.09920	1560.00000
27.11840	1657.00000
27.13760	1815.00000
27.15680	2025.00000
27.17600	2265.00000
27.19520	2486.00000
27.21440	2702.00000
27.23360	2738.00000
27.25280	2691.00000
27.27200	2520.00000
27.29120	2281.00000
27.31040	2099.00000
27.32960	1860.00000
27.34880	1728.00000
27.36800	1668.00000
27.38720	1739.00000
27.40640	1794.00000
27.42560	1940.00000
27.44480	2162.00000
27.46400	2401.00000
27.48320	2537.00000
27.50240	2696.00000
27.52160	2758.00000
27.54080	2894.00000
27.56000	3144.00000
27.57920	3410.00000
27.59840	3634.00000
27.61760	3712.00000
27.63680	3663.00000
27.65600	3385.00000
27.67520	3064.00000
27.69440	2709.00000
27.71360	2451.00000
27.73280	2248.00000
27.75200	2119.00000
27.77120	1974.00000
27.79040	1931.00000
27.80960	1953.00000
27.82880	2065.00000
27.84800	2191.00000
27.86720	2334.00000
27.88640	2475.00000
27.90560	2468.00000
27.92480	2430.00000
27.94400	2376.00000
27.96320	2297.00000
27.98240	2267.00000
28.00160	2199.00000
28.02080	2063.00000
28.04000	1996.00000
28.05920	1895.00000
28.07840	1807.00000
28.09760	1729.00000
28.11680	1700.00000
28.13600	1632.00000
28.15520	1571.00000
28.17440	1540.00000
28.19360	1538.00000
28.21280	1574.00000
28.23200	1607.00000
28.25120	1711.00000
28.27040	1833.00000
28.28960	1872.00000
28.30880	1880.00000
28.32800	1895.00000
28.34720	1866.00000
28.36640	1818.00000
28.38560	1789.00000
28.40480	1764.00000
28.42400	1736.00000
28.44320	1788.00000
28.46240	1835.00000
28.48160	1814.00000
28.50080	1862.00000
28.52000	1854.00000
28.53920	1884.00000
28.55840	2037.00000
28.57760	2182.00000
28.59680	2349.00000
28.61600	2443.00000
28.63520	2467.00000
28.65440	2351.00000
28.67360	2181.00000
28.69280	1987.00000
28.71200	1773.00000
28.73120	1624.00000
28.75040	1538.00000
28.76960	1452.00000
28.78880	1411.00000
28.80800	1351.00000
28.82720	1330.00000
28.84640	1316.00000
28.86560	1305.00000
28.88480	1303.00000
28.90400	1331.00000
28.92320	1375.00000
28.94240	1446.00000
28.96160	1502.00000
28.98080	1579.00000
29.00000	1644.00000
29.01920	1649.00000
29.03840	1734.00000
29.05760	1824.00000
29.07680	1942.00000
29.09600	2035.00000
29.11520	2073.00000
29.13440	1955.00000
29.15360	1857.00000
29.17280	1682.00000
29.19200	1530.00000
29.21120	1421.00000
29.23040	1348.00000
29.24960	1315.00000
29.26880	1270.00000
29.28800	1268.00000
29.30720	1230.00000
29.32640	1207.00000
29.34560	1205.00000
29.36480	1199.00000
29.38400	1216.00000
29.40320	1208.00000
29.42240	1185.00000
29.44160	1185.00000
29.46080	1177.00000
29.48000	1172.00000
29.49920	1184.00000
29.51840	1201.00000
29.53760	1200.00000
29.55680	1220.00000
29.57600	1237.00000
29.59520	1299.00000
29.61440	1362.00000
29.63360	1432.00000
29.65280	1591.00000
29.67200	1674.00000
29.69120	1736.00000
29.71040	1718.00000
29.72960	1711.00000
29.74880	1627.00000
29.76800	1604.00000
29.78720	1576.00000
29.80640	1619.00000
29.82560	1653.00000
29.84480	1712.00000
29.86400	1736.00000
29.88320	1735.00000
29.90240	1750.00000
29.92160	1662.00000
29.94080	1564.00000
29.96000	1463.00000
29.97920	1381.00000
29.99840	1346.00000
30.01760	1286.00000
30.03680	1310.00000
30.05600	1253.00000
30.07520	1292.00000
30.09440	1290.00000
30.11360	1290.00000
30.13280	1317.00000
30.15200	1344.00000
30.17120	1326.00000
30.19040	1326.00000
30.20960	1314.00000
30.22880	1278.00000
30.24800	1236.00000
30.26720	1192.00000
30.28640	1177.00000
30.30560	1146.00000
30.32480	1144.00000
30.34400	1154.00000
30.36320	1142.00000
30.38240	1148.00000
30.40160	1152.00000
30.42080	1181.00000
30.44000	1159.00000
30.45920	1160.00000
30.47840	1179.00000
30.49760	1194.00000
30.51680	1178.00000
30.53600	1188.00000
30.55520	1213.00000
30.57440	1255.00000
30.59360	1268.00000
30.61280	1334.00000
30.63200	1431.00000
30.65120	1593.00000
30.67040	1830.00000
30.68960	2260.00000
30.70880	2776.00000
30.72800	3294.00000
30.74720	3588.00000
30.76640	3547.00000
30.78560	3050.00000
30.80480	2497.00000
30.82400	2010.00000
30.84320	1659.00000
30.86240	1486.00000
30.88160	1408.00000
30.90080	1396.00000
30.92000	1442.00000
30.93920	1469.00000
30.95840	1490.00000
30.97760	1523.00000
30.99680	1534.00000
31.01600	1563.00000
31.03520	1647.00000
31.05440	1722.00000
31.07360	1892.00000
31.09280	2124.00000
31.11200	2451.00000
31.13120	2833.00000
31.15040	3161.00000
31.16960	3381.00000
31.18880	3337.00000
31.20800	3123.00000
31.22720	2745.00000
31.24640	2287.00000
31.26560	1966.00000
31.28480	1717.00000
31.30400	1598.00000
31.32320	1582.00000
31.34240	1595.00000
31.36160	1646.00000
31.38080	1742.00000
31.40000	1906.00000
31.41920	2044.00000
31.43840	2103.00000
31.45760	2092.00000
31.47680	1965.00000
31.49600	1828.00000
31.51520	1666.00000
31.53440	1630.00000
31.55360	1650.00000
31.57280	1612.00000
31.59200	1611.00000
31.61120	1590.00000
31.63040	1521.00000
31.64960	1451.00000
31.66880	1373.00000
31.68800	1272.00000
31.70720	1218.00000
31.72640	1198.00000
31.74560	1169.00000
31.76480	1138.00000
31.78400	1137.00000
31.80320	1152.00000
31.82240	1153.00000
31.84160	1183.00000
31.86080	1204.00000
31.88000	1250.00000
31.89920	1230.00000
31.91840	1243.00000
31.93760	1220.00000
31.95680	1232.00000
31.97600	1225.00000
31.99520	1207.00000
32.01440	1221.00000
32.03360	1233.00000
32.05280	1238.00000
32.07200	1232.00000
32.09120	1234.00000
32.11040	1246.00000
32.12960	1203.00000
32.14880	1217.00000
32.16800	1176.00000
32.18720	1164.00000
32.20640	1148.00000
32.22560	1128.00000
32.24480	1118.00000
32.26400	1094.00000
32.28320	1091.00000
32.30240	1078.00000
32.32160	1075.00000
32.34080	1077.00000
32.36000	1063.00000
32.37920	1083.00000
32.39840	1077.00000
32.41760	1096.00000
32.43680	1116.00000
32.45600	1171.00000
32.47520	1201.00000
32.49440	1210.00000
32.51360	1256.00000
32.53280	1279.00000
32.55200	1333.00000
32.57120	1396.00000
32.59040	1586.00000
32.60960	1701.00000
32.62880	1846.00000
32.64800	1824.00000
32.66720	1730.00000
32.68640	1687.00000
32.70560	1697.00000
32.72480	1758.00000
32.74400	1935.00000
32.76320	2138.00000
32.78240	2340.00000
32.80160	2394.00000
32.82080	2316.00000
32.84000	2173.00000
32.85920	2004.00000
32.87840	1899.00000
32.89760	1885.00000
32.91680	1934.00000
32.93600	2061.00000
32.95520	2123.00000
32.97440	2173.00000
32.99360	2075.00000
33.01280	1972.00000
33.03200	1806.00000
33.05120	1668.00000
33.07040	1608.00000
33.08960	1567.00000
33.10880	1513.00000
33.12800	1478.00000
33.14720	1464.00000
33.16640	1445.00000
33.18560	1456.00000
33.20480	1472.00000
33.22400	1543.00000
33.24320	1596.00000
33.26240	1680.00000
33.28160	1734.00000
33.30080	1670.00000
33.32000	1613.00000
33.33920	1532.00000
33.35840	1463.00000
33.37760	1411.00000
33.39680	1377.00000
33.41600	1395.00000
33.43520	1475.00000
33.45440	1535.00000
33.47360	1563.00000
33.49280	1604.00000
33.51200	1598.00000
33.53120	1589.00000
33.55040	1600.00000
33.56960	1619.00000
33.58880	1646.00000
33.60800	1658.00000
33.62720	1631.00000
33.64640	1573.00000
33.66560	1494.00000
33.68480	1417.00000
33.70400	1373.00000
33.72320	1366.00000
33.74240	1410.00000
33.76160	1450.00000
33.78080	1509.00000
33.80000	1548.00000
33.81920	1566.00000
33.83840	1538.00000
33.85760	1494.00000
33.87680	1395.00000
33.89600	1336.00000
33.91520	1310.00000
33.93440	1273.00000
33.95360	1306.00000
33.97280	1309.00000
33.99200	1329.00000
34.01120	1336.00000
34.03040	1321.00000
34.04960	1335.00000
34.06880	1316.00000
34.08800	1318.00000
34.10720	1297.00000
34.12640	1304.00000
34.14560	1257.00000
34.16480	1231.00000
34.18400	1220.00000
34.20320	1204.00000
34.22240	1176.00000
34.24160	1168.00000
34.26080	1155.00000
34.28000	1161.00000
34.29920	1207.00000
34.31840	1224.00000
34.33760	1221.00000
34.35680	1258.00000
34.37600	1263.00000
34.39520	1237.00000
34.41440	1199.00000
34.43360	1187.00000
34.45280	1185.00000
34.47200	1193.00000
34.49120	1252.00000
34.51040	1295.00000
34.52960	1372.00000
34.54880	1361.00000
34.56800	1380.00000
34.58720	1345.00000
34.60640	1340.00000
34.62560	1314.00000
34.64480	1310.00000
34.66400	1291.00000
34.68320	1279.00000
34.70240	1300.00000
34.72160	1288.00000
34.74080	1305.00000
34.76000	1318.00000
34.77920	1275.00000
34.79840	1220.00000
34.81760	1188.00000
34.83680	1189.00000
34.85600	1144.00000
34.87520	1179.00000
34.89440	1238.00000
34.91360	1276.00000
34.93280	1312.00000
34.95200	1326.00000
34.97120	1364.00000
34.99040	1385.00000
35.00960	1430.00000
35.02880	1486.00000
35.04800	1543.00000
35.06720	1549.00000
35.08640	1540.00000
35.10560	1483.00000
35.12480	1369.00000
35.14400	1280.00000
35.16320	1207.00000
35.18240	1171.00000
35.20160	1100.00000
35.22080	1096.00000
35.24000	1103.00000
35.25920	1129.00000
35.27840	1150.00000
35.29760	1148.00000
35.31680	1202.00000
35.33600	1248.00000
35.35520	1287.00000
35.37440	1356.00000
35.39360	1423.00000
35.41280	1460.00000
35.43200	1503.00000
35.45120	1473.00000
35.47040	1441.00000
35.48960	1453.00000
35.50880	1487.00000
35.52800	1530.00000
35.54720	1573.00000
35.56640	1547.00000
35.58560	1442.00000
35.60480	1397.00000
35.62400	1337.00000
35.64320	1335.00000
35.66240	1365.00000
35.68160	1389.00000
35.70080	1445.00000
35.72000	1467.00000
35.73920	1461.00000
35.75840	1438.00000
35.77760	1433.00000
35.79680	1381.00000
35.81600	1324.00000
35.83520	1286.00000
35.85440	1235.00000
35.87360	1170.00000
35.89280	1121.00000
35.91200	1107.00000
35.93120	1118.00000
35.95040	1112.00000
35.96960	1146.00000
35.98880	1156.00000
36.00800	1148.00000
36.02720	1133.00000
36.04640	1087.00000
36.06560	1061.00000
36.08480	1043.00000
36.10400	1017.00000
36.12320	981.00000
36.14240	965.00000
36.16160	964.00000
36.18080	991.00000
36.20000	974.00000
36.21920	1005.00000
36.23840	998.00000
36.25760	1038.00000
36.27680	1058.00000
36.29600	1102.00000
36.31520	1126.00000
36.33440	1169.00000
36.35360	1158.00000
36.37280	1158.00000
36.39200	1146.00000
36.41120	1141.00000
36.43040	1149.00000
36.44960	1160.00000
36.46880	1156.00000
36.48800	1217.00000
36.50720	1238.00000
36.52640	1246.00000
36.54560	1249.00000
36.56480	1250.00000
36.58400	1247.00000
36.60320	1194.00000
36.62240	1178.00000
36.64160	1141.00000
36.66080	1102.00000
36.68000	1075.00000
36.69920	1056.00000
36.71840	1035.00000
36.73760	1028.00000
36.75680	1041.00000
36.77600	1026.00000
36.79520	1043.00000
36.81440	1073.00000
36.83360	1070.00000
36.85280	1138.00000
36.87200	1214.00000
36.89120	1295.00000
36.91040	1405.00000
36.92960	1498.00000
36.94880	1559.00000
36.96800	1596.00000
36.98720	1566.00000
37.00640	1548.00000
37.02560	1494.00000
37.04480	1542.00000
37.06400	1605.00000
37.08320	1752.00000
37.10240	1847.00000
37.12160	1956.00000
37.14080	1956.00000
37.16000	1869.00000
37.17920	1766.00000
37.19840	1628.00000
37.21760	1447.00000
37.23680	1346.00000
37.25600	1246.00000
37.27520	1232.00000
37.29440	1164.00000
37.31360	1130.00000
37.33280	1120.00000
37.35200	1109.00000
37.37120	1114.00000
37.39040	1128.00000
37.40960	1157.00000
37.42880	1221.00000
37.44800	1266.00000
37.46720	1350.00000
37.48640	1486.00000
37.50560	1653.00000
37.52480	1847.00000
37.54400	2079.00000
37.56320	2273.00000
37.58240	2352.00000
37.60160	2354.00000
37.62080	2216.00000
37.64000	1993.00000
37.65920	1789.00000
37.67840	1629.00000
37.69760	1505.00000
37.71680	1483.00000
37.73600	1486.00000
37.75520	1455.00000
37.77440	1478.00000
37.79360	1466.00000
37.81280	1418.00000
37.83200	1372.00000
37.85120	1304.00000
37.87040	1259.00000
37.88960	1249.00000
37.90880	1226.00000
37.92800	1233.00000
37.94720	1181.00000
37.96640	1146.00000
37.98560	1095.00000
38.00480	1107.00000
38.02400	1071.00000
38.04320	1096.00000
38.06240	1142.00000
38.08160	1158.00000
38.10080	1182.00000
38.12000	1160.00000
38.13920	1172.00000
38.15840	1164.00000
38.17760	1148.00000
38.19680	1163.00000
38.21600	1177.00000
38.23520	1222.00000
38.25440	1235.00000
38.27360	1266.00000
38.29280	1301.00000
38.31200	1254.00000
38.33120	1198.00000
38.35040	1158.00000
38.36960	1124.00000
38.38880	1101.00000
38.40800	1064.00000
38.42720	1057.00000
38.44640	1051.00000
38.46560	1102.00000
38.48480	1150.00000
38.50400	1179.00000
38.52320	1231.00000
38.54240	1263.00000
38.56160	1302.00000
38.58080	1339.00000
38.60000	1289.00000
38.61920	1248.00000
38.63840	1241.00000
38.65760	1221.00000
38.67680	1211.00000
38.69600	1229.00000
38.71520	1244.00000
38.73440	1265.00000
38.75360	1253.00000
38.77280	1246.00000
38.79200	1230.00000
38.81120	1212.00000
38.83040	1192.00000
38.84960	1191.00000
38.86880	1181.00000
38.88800	1191.00000
38.90720	1230.00000
38.92640	1235.00000
38.94560	1309.00000
38.96480	1379.00000
38.98400	1425.00000
39.00320	1486.00000
39.02240	1525.00000
39.04160	1561.00000
39.06080	1520.00000
39.08000	1482.00000
39.09920	1406.00000
39.11840	1361.00000
39.13760	1350.00000
39.15680	1340.00000
39.17600	1324.00000
39.19520	1339.00000
39.21440	1335.00000
39.23360	1337.00000
39.25280	1352.00000
39.27200	1366.00000
39.29120	1393.00000
39.31040	1402.00000
39.32960	1385.00000
39.34880	1387.00000
39.36800	1360.00000
39.38720	1292.00000
39.40640	1230.00000
39.42560	1137.00000
39.44480	1116.00000
39.46400	1115.00000
39.48320	1090.00000
39.50240	1131.00000
39.52160	1132.00000
39.54080	1193.00000
39.56000	1299.00000
39.57920	1387.00000
39.59840	1502.00000
39.61760	1660.00000
39.63680	1762.00000
39.65600	1856.00000
39.67520	1872.00000
39.69440	1839.00000
39.71360	1799.00000
39.73280	1694.00000
39.75200	1604.00000
39.77120	1542.00000
39.79040	1551.00000
39.80960	1563.00000
39.82880	1557.00000
39.84800	1604.00000
39.86720	1649.00000
39.88640	1673.00000
39.90560	1729.00000
39.92480	1766.00000
39.94400	1720.00000
39.96320	1693.00000
39.98240	1612.00000
40.00160	1507.00000
40.02080	1419.00000
40.04000	1327.00000
40.05920	1285.00000
40.07840	1236.00000
40.09760	1220.00000
40.11680	1226.00000
40.13600	1264.00000
40.15520	1265.00000
40.17440	1289.00000
40.19360	1313.00000
40.21280	1323.00000
40.23200	1336.00000
40.25120	1337.00000
40.27040	1310.00000
40.28960	1280.00000
40.30880	1235.00000
40.32800	1215.00000
40.34720	1150.00000
40.36640	1114.00000
40.38560	1073.00000
40.40480	1037.00000
40.42400	1019.00000
40.44320	1014.00000
40.46240	1036.00000
40.48160	1024.00000
40.50080	1028.00000
40.52000	1078.00000
40.53920	1128.00000
40.55840	1142.00000
40.57760	1174.00000
40.59680	1204.00000
40.61600	1198.00000
40.63520	1222.00000
40.65440	1256.00000
40.67360	1307.00000
40.69280	1364.00000
40.71200	1466.00000
40.73120	1502.00000
40.75040	1540.00000
40.76960	1547.00000
40.78880	1480.00000
40.80800	1415.00000
40.82720	1317.00000
40.84640	1266.00000
40.86560	1184.00000
40.88480	1145.00000
40.90400	1146.00000
40.92320	1145.00000
40.94240	1135.00000
40.96160	1131.00000
40.98080	1128.00000
41.00000	1138.00000
41.01920	1110.00000
41.03840	1108.00000
41.05760	1076.00000
41.07680	1062.00000
41.09600	1056.00000
41.11520	1049.00000
41.13440	1028.00000
41.15360	986.00000
41.17280	1001.00000
41.19200	1001.00000
41.21120	1021.00000
41.23040	1024.00000
41.24960	1039.00000
41.26880	1044.00000
41.28800	1062.00000
41.30720	1104.00000
41.32640	1151.00000
41.34560	1151.00000
41.36480	1206.00000
41.38400	1212.00000
41.40320	1228.00000
41.42240	1237.00000
41.44160	1244.00000
41.46080	1281.00000
41.48000	1283.00000
41.49920	1317.00000
41.51840	1300.00000
41.53760	1286.00000
41.55680	1268.00000
41.57600	1231.00000
41.59520	1190.00000
41.61440	1184.00000
41.63360	1206.00000
41.65280	1246.00000
41.67200	1320.00000
41.69120	1381.00000
41.71040	1455.00000
41.72960	1445.00000
41.74880	1478.00000
41.76800	1459.00000
41.78720	1444.00000
41.80640	1405.00000
41.82560	1434.00000
41.84480	1427.00000
41.86400	1440.00000
41.88320	1459.00000
41.90240	1456.00000
41.92160	1458.00000
41.94080	1434.00000
41.96000	1381.00000
41.97920	1349.00000
41.99840	1309.00000
42.01760	1303.00000
42.03680	1291.00000
42.05600	1282.00000
42.07520	1324.00000
42.09440	1291.00000
42.11360	1280.00000
42.13280	1248.00000
42.15200	1203.00000
42.17120	1188.00000
42.19040	1131.00000
42.20960	1117.00000
42.22880	1111.00000
42.24800	1139.00000
42.26720	1146.00000
42.28640	1196.00000
42.30560	1239.00000
42.32480	1281.00000
42.34400	1328.00000
42.36320	1385.00000
42.38240	1372.00000
42.40160	1382.00000
42.42080	1366.00000
42.44000	1344.00000
42.45920	1324.00000
42.47840	1326.00000
42.49760	1330.00000
42.51680	1320.00000
42.53600	1314.00000
42.55520	1317.00000
42.57440	1324.00000
42.59360	1330.00000
42.61280	1333.00000
42.63200	1321.00000
42.65120	1295.00000
42.67040	1272.00000
42.68960	1235.00000
42.70880	1182.00000
42.72800	1152.00000
42.74720	1124.00000
42.76640	1126.00000
42.78560	1105.00000
42.80480	1102.00000
42.82400	1113.00000
42.84320	1083.00000
42.86240	1110.00000
42.88160	1095.00000
42.90080	1086.00000
42.92000	1116.00000
42.93920	1147.00000
42.95840	1167.00000
42.97760	1191.00000
42.99680	1194.00000
43.01600	1190.00000
43.03520	1205.00000
43.05440	1216.00000
43.07360	1196.00000
43.09280	1177.00000
43.11200	1150.00000
43.13120	1194.00000
43.15040	1176.00000
43.16960	1211.00000
43.18880	1252.00000
43.20800	1278.00000
43.22720	1304.00000
43.24640	1369.00000
43.26560	1344.00000
43.28480	1342.00000
43.30400	1375.00000
43.32320	1345.00000
43.34240	1350.00000
43.36160	1317.00000
43.38080	1251.00000
43.40000	1205.00000
43.41920	1165.00000
43.43840	1093.00000
43.45760	1045.00000
43.47680	993.00000
43.49600	977.00000
43.51520	970.00000
43.53440	961.00000
43.55360	939.00000
43.57280	926.00000
43.59200	941.00000
43.61120	919.00000
43.63040	943.00000
43.64960	921.00000
43.66880	918.00000
43.68800	936.00000
43.70720	922.00000
43.72640	903.00000
43.74560	909.00000
43.76480	897.00000
43.78400	915.00000
43.80320	915.00000
43.82240	925.00000
43.84160	908.00000
43.86080	927.00000
43.88000	938.00000
43.89920	978.00000
43.91840	979.00000
43.93760	1012.00000
43.95680	1083.00000
43.97600	1115.00000
43.99520	1186.00000
44.01440	1244.00000
44.03360	1259.00000
44.05280	1294.00000
44.07200	1334.00000
44.09120	1306.00000
44.11040	1295.00000
44.12960	1269.00000
44.14880	1239.00000
44.16800	1215.00000
44.18720	1179.00000
44.20640	1167.00000
44.22560	1144.00000
44.24480	1127.00000
44.26400	1110.00000
44.28320	1094.00000
44.30240	1098.00000
44.32160	1101.00000
44.34080	1122.00000
44.36000	1136.00000
44.37920	1152.00000
44.39840	1188.00000
44.41760	1225.00000
44.43680	1234.00000
44.45600	1254.00000
44.47520	1274.00000
44.49440	1278.00000
44.51360	1344.00000
44.53280	1324.00000
44.55200	1368.00000
44.57120	1346.00000
44.59040	1338.00000
44.60960	1296.00000
44.62880	1250.00000
44.64800	1207.00000
44.66720	1166.00000
44.68640	1117.00000
44.70560	1062.00000
44.72480	1052.00000
44.74400	1046.00000
44.76320	1022.00000
44.78240	1020.00000
44.80160	1025.00000
44.82080	1014.00000
44.84000	996.00000
44.85920	986.00000
44.87840	1023.00000
44.89760	1016.00000
44.91680	1022.00000
44.93600	1023.00000
44.95520	1062.00000
44.97440	1099.00000
44.99360	1109.00000
45.01280	1147.00000
45.03200	1168.00000
45.05120	1155.00000
45.07040	1137.00000
45.08960	1134.00000
45.10880	1127.00000
45.12800	1151.00000
45.14720	1146.00000
45.16640	1151.00000
45.18560	1166.00000
45.20480	1149.00000
45.22400	1136.00000
45.24320	1115.00000
45.26240	1105.00000
45.28160	1112.00000
45.30080	1076.00000
45.32000	1074.00000
45.33920	1063.00000
45.35840	1060.00000
45.37760	1068.00000
45.39680	1039.00000
45.41600	1039.00000
45.43520	1045.00000
45.45440	1024.00000
45.47360	1027.00000
45.49280	1006.00000
45.51200	1001.00000
45.53120	1010.00000
45.55040	1003.00000
45.56960	1024.00000
45.58880	1032.00000
45.60800	1036.00000
45.62720	1072.00000
45.64640	1093.00000
45.66560	1145.00000
45.68480	1135.00000
45.70400	1210.00000
45.72320	1255.00000
45.74240	1259.00000
45.76160	1263.00000
45.78080	1248.00000
45.80000	1209.00000
45.81920	1148.00000
45.83840	1111.00000
45.85760	1117.00000
45.87680	1083.00000
45.89600	1055.00000
45.91520	1048.00000
45.93440	1033.00000
45.95360	1019.00000
45.97280	992.00000
45.99200	998.00000
46.01120	996.00000
46.03040	1028.00000
46.04960	1020.00000
46.06880	1023.00000
46.08800	1035.00000
46.10720	1046.00000
46.12640	1049.00000
46.14560	1044.00000
46.16480	1049.00000
46.18400	1061.00000
46.20320	1050.00000
46.22240	1018.00000
46.24160	1038.00000
46.26080	998.00000
46.28000	996.00000
46.29920	971.00000
46.31840	956.00000
46.33760	933.00000
46.35680	933.00000
46.37600	922.00000
46.39520	940.00000
46.41440	919.00000
46.43360	951.00000
46.45280	968.00000
46.47200	1000.00000
46.49120	1054.00000
46.51040	1063.00000
46.52960	1095.00000
46.54880	1138.00000
46.56800	1134.00000
46.58720	1134.00000
46.60640	1103.00000
46.62560	1088.00000
46.64480	1081.00000
46.66400	1074.00000
46.68320	1084.00000
46.70240	1125.00000
46.72160	1176.00000
46.74080	1236.00000
46.76000	1272.00000
46.77920	1320.00000
46.79840	1359.00000
46.81760	1349.00000
46.83680	1333.00000
46.85600	1269.00000
46.87520	1223.00000
46.89440	1162.00000
46.91360	1090.00000
46.93280	1049.00000
46.95200	1011.00000
46.97120	992.00000
46.99040	970.00000
47.00960	956.00000
47.02880	957.00000
47.04800	954.00000
47.06720	966.00000
47.08640	973.00000
47.10560	973.00000
47.12480	966.00000
47.14400	993.00000
47.16320	1012.00000
47.18240	1015.00000
47.20160	1022.00000
47.22080	1031.00000
47.24000	1045.00000
47.25920	1030.00000
47.27840	1039.00000
47.29760	1039.00000
47.31680	1021.00000
47.33600	1039.00000
47.35520	1020.00000
47.37440	1035.00000
47.39360	1033.00000
47.41280	1048.00000
47.43200	1070.00000
47.45120	1095.00000
47.47040	1130.00000
47.48960	1154.00000
47.50880	1186.00000
47.52800	1226.00000
47.54720	1264.00000
47.56640	1282.00000
47.58560	1309.00000
47.60480	1341.00000
47.62400	1338.00000
47.64320	1314.00000
47.66240	1288.00000
47.68160	1275.00000
47.70080	1198.00000
47.72000	1188.00000
47.73920	1147.00000
47.75840	1108.00000
47.77760	1088.00000
47.79680	1063.00000
47.81600	1049.00000
47.83520	1028.00000
47.85440	1039.00000
47.87360	1047.00000
47.89280	1013.00000
47.91200	1004.00000
47.93120	1010.00000
47.95040	995.00000
47.96960	996.00000
47.98880	1028.00000
48.00800	1058.00000
48.02720	1094.00000
48.04640	1120.00000
48.06560	1173.00000
48.08480	1240.00000
48.10400	1297.00000
48.12320	1328.00000
48.14240	1368.00000
48.16160	1394.00000
48.18080	1380.00000
48.20000	1332.00000
48.21920	1312.00000
48.23840	1230.00000
48.25760	1166.00000
48.27680	1147.00000
48.29600	1108.00000
48.31520	1094.00000
48.33440	1081.00000
48.35360	1103.00000
48.37280	1108.00000
48.39200	1068.00000
48.41120	1089.00000
48.43040	1068.00000
48.44960	1046.00000
48.46880	1013.00000
48.48800	996.00000
48.50720	974.00000
48.52640	981.00000
48.54560	961.00000
48.56480	976.00000
48.58400	999.00000
48.60320	1027.00000
48.62240	1050.00000
48.64160	1100.00000
48.66080	1129.00000
48.68000	1127.00000
48.69920	1128.00000
48.71840	1098.00000
48.73760	1074.00000
48.75680	1071.00000
48.77600	1046.00000
48.79520	1039.00000
48.81440	1044.00000
48.83360	1059.00000
48.85280	1051.00000
48.87200	1047.00000
48.89120	1001.00000
48.91040	958.00000
48.92960	914.00000
48.94880	865.00000
48.96800	848.00000
48.98720	826.00000
49.00640	827.00000
49.02560	823.00000
49.04480	818.00000
49.06400	825.00000
49.08320	818.00000
49.10240	838.00000
49.12160	830.00000
49.14080	830.00000
49.16000	846.00000
49.17920	866.00000
49.19840	878.00000
49.21760	908.00000
49.23680	915.00000
49.25600	921.00000
49.27520	943.00000
49.29440	978.00000
49.31360	983.00000
49.33280	965.00000
49.35200	961.00000
49.37120	939.00000
49.39040	925.00000
49.40960	933.00000
49.42880	900.00000
49.44800	914.00000
49.46720	931.00000
49.48640	934.00000
49.50560	926.00000
49.52480	939.00000
49.54400	914.00000
49.56320	893.00000
49.58240	897.00000
49.60160	881.00000
49.62080	884.00000
49.64000	887.00000
49.65920	881.00000
49.67840	903.00000
49.69760	890.00000
49.71680	880.00000
49.73600	876.00000
49.75520	860.00000
49.77440	867.00000
49.79360	871.00000
49.81280	836.00000
49.83200	853.00000
49.85120	841.00000
49.87040	854.00000
49.88960	864.00000
49.90880	862.00000
49.92800	920.00000
49.94720	918.00000
49.96640	935.00000
49.98560	959.00000
50.00480	1000.00000
50.02400	1025.00000
50.04320	1049.00000
50.06240	1073.00000
50.08160	1097.00000
50.10080	1125.00000
50.12000	1152.00000
50.13920	1175.00000
50.15840	1177.00000
50.17760	1203.00000
50.19680	1236.00000
50.21600	1214.00000
50.23520	1234.00000
50.25440	1202.00000
50.27360	1174.00000
50.29280	1116.00000
50.31200	1064.00000
50.33120	994.00000
50.35040	950.00000
50.36960	917.00000
50.38880	910.00000
50.40800	862.00000
50.42720	864.00000
50.44640	853.00000
50.46560	841.00000
50.48480	852.00000
50.50400	872.00000
50.52320	850.00000
50.54240	868.00000
50.56160	872.00000
50.58080	864.00000
50.60000	850.00000
50.61920	832.00000
50.63840	828.00000
50.65760	833.00000
50.67680	818.00000
50.69600	808.00000
50.71520	837.00000
50.73440	829.00000
50.75360	843.00000
50.77280	830.00000
50.79200	830.00000
50.81120	842.00000
50.83040	834.00000
50.84960	819.00000
50.86880	828.00000
50.88800	809.00000
50.90720	799.00000
50.92640	800.00000
50.94560	798.00000
50.96480	792.00000
50.98400	808.00000
51.00320	819.00000
51.02240	854.00000
51.04160	851.00000
51.06080	876.00000
51.08000	890.00000
51.09920	860.00000
51.11840	866.00000
51.13760	839.00000
51.15680	813.00000
51.17600	802.00000
51.19520	759.00000
51.21440	756.00000
51.23360	746.00000
51.25280	727.00000
51.27200	724.00000
51.29120	729.00000
51.31040	719.00000
51.32960	720.00000
51.34880	700.00000
51.36800	738.00000
51.38720	733.00000
51.40640	731.00000
51.42560	761.00000
51.44480	731.00000
51.46400	730.00000
51.48320	749.00000
51.50240	785.00000
51.52160	778.00000
51.54080	793.00000
51.56000	818.00000
51.57920	813.00000
51.59840	814.00000
51.61760	793.00000
51.63680	808.00000
51.65600	796.00000
51.67520	785.00000
51.69440	779.00000
51.71360	778.00000
51.73280	783.00000
51.75200	777.00000
51.77120	796.00000
51.79040	799.00000
51.80960	818.00000
51.82880	845.00000
51.84800	847.00000
51.86720	852.00000
51.88640	851.00000
51.90560	839.00000
51.92480	837.00000
51.94400	839.00000
51.96320	837.00000
51.98240	832.00000
52.00160	840.00000
52.02080	845.00000
52.04000	878.00000
52.05920	874.00000
52.07840	918.00000
52.09760	919.00000
52.11680	938.00000
52.13600	925.00000
52.15520	915.00000
52.17440	882.00000
52.19360	885.00000
52.21280	852.00000
52.23200	851.00000
52.25120	822.00000
52.27040	814.00000
52.28960	784.00000
52.30880	771.00000
52.32800	772.00000
52.34720	778.00000
52.36640	779.00000
52.38560	793.00000
52.40480	797.00000
52.42400	811.00000
52.44320	840.00000
52.46240	830.00000
52.48160	864.00000
52.50080	882.00000
52.52000	907.00000
52.53920	921.00000
52.55840	920.00000
52.57760	934.00000
52.59680	934.00000
52.61600	924.00000
52.63520	914.00000
52.65440	884.00000
52.67360	902.00000
52.69280	884.00000
52.71200	865.00000
52.73120	859.00000
52.75040	876.00000
52.76960	862.00000
52.78880	858.00000
52.80800	847.00000
52.82720	843.00000
52.84640	833.00000
52.86560	838.00000
52.88480	803.00000
52.90400	802.00000
52.92320	762.00000
52.94240	772.00000
52.96160	753.00000
52.98080	743.00000
53.00000	747.00000
53.01920	721.00000
53.03840	716.00000
53.05760	729.00000
53.07680	730.00000
53.09600	745.00000
53.11520	753.00000
53.13440	759.00000
53.15360	788.00000
53.17280	784.00000
53.19200	792.00000
53.21120	771.00000
53.23040	797.00000
53.24960	793.00000
53.26880	783.00000
53.28800	778.00000
53.30720	776.00000
53.32640	780.00000
53.34560	781.00000
53.36480	779.00000
53.38400	780.00000
53.40320	783.00000
53.42240	797.00000
53.44160	794.00000
53.46080	810.00000
53.48000	824.00000
53.49920	854.00000
53.51840	865.00000
53.53760	864.00000
53.55680	868.00000
53.57600	908.00000
53.59520	868.00000
53.61440	878.00000
53.63360	868.00000
53.65280	863.00000
53.67200	876.00000
53.69120	868.00000
53.71040	867.00000
53.72960	889.00000
53.74880	896.00000
53.76800	882.00000
53.78720	889.00000
53.80640	881.00000
53.82560	871.00000
53.84480	873.00000
53.86400	859.00000
53.88320	848.00000
53.90240	809.00000
53.92160	809.00000
53.94080	799.00000
53.96000	786.00000
53.97920	784.00000
53.99840	775.00000
54.01760	783.00000
54.03680	793.00000
54.05600	792.00000
54.07520	815.00000
54.09440	836.00000
54.11360	858.00000
54.13280	868.00000
54.15200	848.00000
54.17120	870.00000
54.19040	861.00000
54.20960	864.00000
54.22880	868.00000
54.24800	839.00000
54.26720	823.00000
54.28640	810.00000
54.30560	803.00000
54.32480	766.00000
54.34400	762.00000
54.36320	766.00000
54.38240	763.00000
54.40160	749.00000
54.42080	774.00000
54.44000	758.00000
54.45920	757.00000
54.47840	775.00000
54.49760	780.00000
54.51680	785.00000
54.53600	763.00000
54.55520	771.00000
54.57440	763.00000
54.59360	726.00000
54.61280	738.00000
54.63200	720.00000
54.65120	704.00000
54.67040	699.00000
54.68960	686.00000
54.70880	696.00000
54.72800	679.00000
54.74720	672.00000
54.76640	669.00000
54.78560	677.00000
54.80480	663.00000
54.82400	672.00000
54.84320	666.00000
54.86240	650.00000
54.88160	648.00000
54.90080	654.00000
54.92000	673.00000
54.93920	663.00000
54.95840	673.00000
54.97760	665.00000
54.99680	697.00000
55.01600	694.00000
55.03520	690.00000
55.05440	676.00000
55.07360	680.00000
55.09280	689.00000
55.11200	682.00000
55.13120	665.00000
55.15040	657.00000
55.16960	662.00000
55.18880	662.00000
55.20800	687.00000
55.22720	680.00000
55.24640	703.00000
55.26560	713.00000
55.28480	722.00000
55.30400	724.00000
55.32320	740.00000
55.34240	743.00000
55.36160	726.00000
55.38080	707.00000
55.40000	685.00000
55.41920	688.00000
55.43840	673.00000
55.45760	668.00000
55.47680	668.00000
55.49600	670.00000
55.51520	669.00000
55.53440	663.00000
55.55360	648.00000
55.57280	661.00000
55.59200	671.00000
55.61120	686.00000
55.63040	677.00000
55.64960	673.00000
55.66880	663.00000
55.68800	666.00000
55.70720	668.00000
55.72640	671.00000
55.74560	662.00000
55.76480	670.00000
55.78400	661.00000
55.80320	659.00000
55.82240	680.00000
55.84160	658.00000
55.86080	686.00000
55.88000	664.00000
55.89920	705.00000
55.91840	698.00000
55.93760	704.00000
55.95680	696.00000
55.97600	708.00000
55.99520	694.00000
56.01440	692.00000
56.03360	705.00000
56.05280	696.00000
56.07200	683.00000
56.09120	703.00000
56.11040	717.00000
56.12960	698.00000
56.14880	694.00000
56.16800	688.00000
56.18720	693.00000
56.20640	692.00000
56.22560	686.00000
56.24480	686.00000
56.26400	657.00000
56.28320	644.00000
56.30240	647.00000
56.32160	662.00000
56.34080	640.00000
56.36000	639.00000
56.37920	637.00000
56.39840	629.00000
56.41760	629.00000
56.43680	614.00000
56.45600	604.00000
56.47520	619.00000
56.49440	618.00000
56.51360	618.00000
56.53280	611.00000
56.55200	624.00000
56.57120	626.00000
56.59040	634.00000
56.60960	633.00000
56.62880	644.00000
56.64800	638.00000
56.66720	636.00000
56.68640	648.00000
56.70560	663.00000
56.72480	652.00000
56.74400	656.00000
56.76320	653.00000
56.78240	677.00000
56.80160	669.00000
56.82080	670.00000
56.84000	683.00000
56.85920	678.00000
56.87840	703.00000
56.89760	704.00000
56.91680	702.00000
56.93600	720.00000
56.95520	725.00000
56.97440	731.00000
56.99360	714.00000
57.01280	723.00000
57.03200	721.00000
57.05120	714.00000
57.07040	704.00000
57.08960	686.00000
57.10880	694.00000
57.12800	663.00000
57.14720	662.00000
57.16640	659.00000
57.18560	655.00000
57.20480	633.00000
57.22400	630.00000
57.24320	654.00000
57.26240	632.00000
57.28160	646.00000
57.30080	652.00000
57.32000	663.00000
57.33920	666.00000
57.35840	666.00000
57.37760	680.00000
57.39680	659.00000
57.41600	648.00000
57.43520	659.00000
57.45440	650.00000
57.47360	654.00000
57.49280	637.00000
57.51200	631.00000
57.53120	635.00000
57.55040	645.00000
57.56960	634.00000
57.58880	629.00000
57.60800	648.00000
57.62720	649.00000
57.64640	644.00000
57.66560	657.00000
57.68480	666.00000
57.70400	673.00000
57.72320	686.00000
57.74240	681.00000
57.76160	676.00000
57.78080	679.00000
57.80000	666.00000
57.81920	645.00000
57.83840	653.00000
57.85760	643.00000
57.87680	642.00000
57.89600	628.00000
57.91520	609.00000
57.93440	628.00000
57.95360	605.00000
57.97280	623.00000
