2.50530	622.91000
2.51830	620.60000
2.53130	619.54000
2.54430	620.16000
2.55730	620.14000
2.57030	617.71000
2.58330	614.32000
2.59630	611.88000
2.60930	611.01000
2.62230	609.82000
2.63530	609.11000
2.64830	608.78000
2.66130	608.86000
2.67430	608.29000
2.68730	607.93000
2.70030	608.22000
2.71330	608.01000
2.72630	609.17000
2.73930	612.61000
2.75230	615.78000
2.76530	614.43000
2.77830	609.34000
2.79130	603.91000
2.80430	603.09000
2.81730	602.59000
2.83030	601.01000
2.84330	599.93000
2.85630	599.86000
2.86930	600.73000
2.88230	600.18000
2.89530	599.04000
2.90830	599.08000
2.92130	597.77000
2.93430	597.07000
2.94730	594.63000
2.96030	593.98000
2.97330	594.75000
2.98630	593.88000
2.99930	593.46000
3.01230	594.66000
3.02530	593.35000
3.03830	592.18000
3.05130	593.78000
3.06430	595.28000
3.07730	595.47000
3.09030	594.33000
3.10330	592.99000
3.11630	591.18000
3.12930	591.12000
3.14230	591.09000
3.15530	589.33000
3.16830	588.46000
3.18130	587.86000
3.19430	587.46000
3.20730	588.63000
3.22030	589.29000
3.23330	589.82000
3.24630	590.34000
3.25930	591.20000
3.27230	590.26000
3.28530	590.02000
3.29830	590.35000
3.31130	589.62000
3.32430	587.84000
3.33730	589.06000
3.35030	589.89000
3.36330	588.65000
3.37630	588.24000
3.38930	589.79000
3.40230	590.15000
3.41530	591.29000
3.42830	592.16000
3.44130	591.91000
3.45430	592.08000
3.46730	592.49000
3.48030	593.39000
3.49330	595.99000
3.50630	596.46000
3.51930	597.31000
3.53230	598.55000
3.54530	599.17000
3.55830	599.59000
3.57130	601.31000
3.58430	602.72000
3.59730	606.07000
3.61030	609.93000
3.62330	613.57000
3.63630	618.07000
3.64930	623.08000
3.66230	629.21000
3.67530	635.62000
3.68830	646.10000
3.70130	660.32000
3.71430	676.45000
3.72730	699.30000
3.74030	737.06000
3.75330	801.19000
3.76630	927.15000
3.77930	1214.44000
3.79230	1925.48000
3.80530	3649.43000
3.81830	6976.78000
3.83130	10486.70000
3.84430	11178.20000
3.85730	8255.51000
3.87030	4711.29000
3.88330	2494.38000
3.89630	1512.82000
3.90930	1129.45000
3.92230	970.68000
3.93530	901.81000
3.94830	873.97000
3.96130	870.66000
3.97430	882.27000
3.98730	899.87000
4.00030	917.42000
4.01330	930.51000
4.02630	943.03000
4.03930	975.70000
4.05230	1059.16000
4.06530	1170.71000
4.07830	1240.81000
4.09130	1293.09000
4.10430	1539.57000
4.11730	2286.38000
4.13030	3739.47000
4.14330	5312.10000
4.15630	5591.42000
4.16930	4275.35000
4.18230	2633.76000
4.19530	1603.87000
4.20830	1097.89000
4.22130	856.76000
4.23430	741.00000
4.24730	684.71000
4.26030	655.18000
4.27330	636.87000
4.28630	626.32000
4.29930	620.83000
4.31230	617.87000
4.32530	614.96000
4.33830	609.99000
4.35130	604.21000
4.36430	600.75000
4.37730	598.26000
4.39030	594.69000
4.40330	592.46000
4.41630	591.25000
4.42930	589.36000
4.44230	587.31000
4.45530	586.31000
4.46830	584.84000
4.48130	582.75000
4.49430	582.71000
4.50730	582.77000
4.52030	582.06000
4.53330	582.70000
4.54630	582.88000
4.55930	583.06000
4.57230	581.84000
4.58530	582.08000
4.59830	581.49000
4.61130	584.72000
4.62430	583.63000
4.63730	581.81000
4.65030	582.33000
4.66330	582.95000
4.67630	584.19000
4.68930	585.39000
4.70230	589.70000
4.71530	596.48000
4.72830	610.96000
4.74130	644.04000
4.75430	713.23000
4.76730	845.35000
4.78030	1019.39000
4.79330	1113.03000
4.80630	1043.38000
4.81930	879.49000
4.83230	748.85000
4.84530	680.29000
4.85830	656.35000
4.87130	658.80000
4.88430	684.18000
4.89730	742.92000
4.91030	860.76000
4.92330	1059.72000
4.93630	1303.45000
4.94930	1431.37000
4.96230	1337.77000
4.97530	1115.29000
4.98830	932.74000
5.00130	854.45000
5.01430	873.20000
5.02730	957.71000
5.04030	1025.01000
5.05330	994.73000
5.06630	883.17000
5.07930	768.40000
5.09230	692.81000
5.10530	653.77000
5.11830	633.18000
5.13130	622.16000
5.14430	616.13000
5.15730	611.11000
5.17030	608.32000
5.18330	607.75000
5.19630	608.55000
5.20930	608.82000
5.22230	609.83000
5.23530	611.51000
5.24830	613.77000
5.26130	616.84000
5.27430	622.25000
5.28730	629.15000
5.30030	640.96000
5.31330	662.68000
5.32630	704.67000
5.33930	788.09000
5.35230	929.77000
5.36530	1094.13000
5.37830	1172.92000
5.39130	1098.79000
5.40430	955.41000
5.41730	852.42000
5.43030	831.77000
5.44330	902.81000
5.45630	1111.56000
5.46930	1624.87000
5.48230	2771.07000
5.49530	4795.82000
5.50830	6858.40000
5.52130	7166.57000
5.53430	5388.07000
5.54730	3198.76000
5.56030	1825.48000
5.57330	1192.06000
5.58630	928.93000
5.59930	811.83000
5.61230	755.02000
5.62530	728.71000
5.63830	716.70000
5.65130	714.63000
5.66430	721.27000
5.67730	737.36000
5.69030	766.48000
5.70330	821.32000
5.71630	929.84000
5.72930	1178.97000
5.74230	1830.74000
5.75530	3499.63000
5.76830	6874.92000
5.78130	11030.70000
5.79430	12392.20000
5.80730	9547.37000
5.82030	5372.49000
5.83330	2710.78000
5.84630	1550.81000
5.85930	1115.58000
5.87230	943.56000
5.88530	859.35000
5.89830	808.18000
5.91130	775.34000
5.92430	754.74000
5.93730	738.92000
5.95030	719.03000
5.96330	695.62000
5.97630	673.97000
5.98930	656.64000
6.00230	644.75000
6.01530	637.79000
6.02830	633.94000
6.04130	630.73000
6.05430	628.45000
6.06730	629.63000
6.08030	638.96000
6.09330	662.86000
6.10630	723.61000
6.11930	870.06000
6.13230	1171.85000
6.14530	1552.23000
6.15830	1665.80000
6.17130	1407.57000
6.18430	1083.06000
6.19730	972.99000
6.21030	1105.99000
6.22330	1396.72000
6.23630	1635.31000
6.24930	1613.45000
6.26230	1406.05000
6.27530	1231.06000
6.28830	1140.41000
6.30130	1052.19000
6.31430	942.83000
6.32730	864.14000
6.34030	851.97000
6.35330	935.28000
6.36630	1145.82000
6.37930	1438.26000
6.39230	1612.67000
6.40530	1488.77000
6.41830	1188.34000
6.43130	928.45000
6.44430	786.51000
6.45730	727.79000
6.47030	715.63000
6.48330	738.87000
6.49630	804.61000
6.50930	922.99000
6.52230	1071.56000
6.53530	1173.05000
6.54830	1154.25000
6.56130	1033.61000
6.57430	892.16000
6.58730	785.49000
6.60030	721.10000
6.61330	688.98000
6.62630	679.42000
6.63930	694.79000
6.65230	737.24000
6.66530	794.79000
6.67830	831.06000
6.69130	833.53000
6.70430	825.98000
6.71730	818.79000
6.73030	803.70000
6.74330	781.92000
6.75630	766.61000
6.76930	775.11000
6.78230	822.01000
6.79530	909.47000
6.80830	999.81000
6.82130	1027.81000
6.83430	968.73000
6.84730	864.95000
6.86030	771.97000
6.87330	710.84000
6.88630	676.09000
6.89930	658.12000
6.91230	650.74000
6.92530	650.54000
6.93830	654.59000
6.95130	662.28000
6.96430	672.74000
6.97730	688.11000
6.99030	709.02000
7.00330	740.48000
7.01630	792.56000
7.02930	874.61000
7.04230	993.34000
7.05530	1142.24000
7.06830	1287.48000
7.08130	1363.15000
7.09430	1329.80000
7.10730	1240.01000
7.12030	1149.98000
7.13330	1051.40000
7.14630	944.13000
7.15930	853.13000
7.17230	787.99000
7.18530	740.56000
7.19830	703.44000
7.21130	674.83000
7.22430	654.35000
7.23730	640.80000
7.25030	631.45000
7.26330	624.61000
7.27630	619.73000
7.28930	616.95000
7.30230	615.20000
7.31530	613.38000
7.32830	614.13000
7.34130	615.53000
7.35430	620.82000
7.36730	633.96000
7.38030	661.00000
7.39330	708.58000
7.40630	773.26000
7.41930	821.14000
7.43230	814.50000
7.44530	754.97000
7.45830	686.88000
7.47130	637.18000
7.48430	607.62000
7.49730	591.26000
7.51030	581.75000
7.52330	576.71000
7.53630	573.43000
7.54930	570.05000
7.56230	568.30000
7.57530	569.13000
7.58830	570.68000
7.60130	573.53000
7.61430	582.42000
7.62730	599.56000
7.64030	631.71000
7.65330	687.26000
7.66630	760.70000
7.67930	820.19000
7.69230	834.38000
7.70530	808.51000
7.71830	762.34000
7.73130	706.05000
7.74430	649.05000
7.75730	605.65000
7.77030	579.87000
7.78330	565.45000
7.79630	557.34000
7.80930	551.77000
7.82230	549.18000
7.83530	549.25000
7.84830	549.23000
7.86130	549.39000
7.87430	550.96000
7.88730	554.33000
7.90030	558.57000
7.91330	563.39000
7.92630	572.17000
7.93930	586.27000
7.95230	607.21000
7.96530	639.95000
7.97830	694.22000
7.99130	785.65000
8.00430	931.14000
8.01730	1118.68000
8.03030	1274.09000
8.04330	1292.56000
8.05630	1166.80000
8.06930	992.88000
8.08230	861.42000
8.09530	800.22000
8.10830	806.63000
8.12130	863.62000
8.13430	933.05000
8.14730	958.61000
8.16030	901.75000
8.17330	796.36000
8.18630	707.12000
8.19930	656.85000
8.21230	636.83000
8.22530	637.38000
8.23830	655.81000
8.25130	695.90000
8.26430	769.18000
8.27730	888.76000
8.29030	1049.38000
8.30330	1180.99000
8.31630	1202.29000
8.32930	1129.27000
8.34230	1078.94000
8.35530	1130.69000
8.36830	1284.55000
8.38130	1462.21000
8.39430	1556.30000
8.40730	1518.63000
8.42030	1384.44000
8.43330	1209.51000
8.44630	1038.08000
8.45930	900.03000
8.47230	808.89000
8.48530	763.43000
8.49830	761.41000
8.51130	811.75000
8.52430	922.65000
8.53730	1075.49000
8.55030	1193.76000
8.56330	1190.72000
8.57630	1070.04000
8.58930	918.70000
8.60230	795.43000
8.61530	708.99000
8.62830	652.53000
8.64130	617.52000
8.65430	599.27000
8.66730	592.27000
8.68030	595.20000
8.69330	604.33000
8.70630	613.27000
8.71930	617.13000
8.73230	616.06000
8.74530	612.51000
8.75830	611.04000
8.77130	616.68000
8.78430	635.45000
8.79730	676.34000
8.81030	748.85000
8.82330	856.09000
8.83630	977.65000
8.84930	1063.18000
8.86230	1063.23000
8.87530	990.60000
8.88830	904.60000
8.90130	851.58000
8.91430	839.43000
8.92730	869.77000
8.94030	965.91000
8.95330	1159.14000
8.96630	1427.80000
8.97930	1618.32000
8.99230	1571.69000
9.00530	1329.93000
9.01830	1089.17000
9.03130	967.40000
9.04430	973.19000
9.05730	1079.09000
9.07030	1237.95000
9.08330	1375.60000
9.09630	1425.99000
9.10930	1367.92000
9.12230	1227.09000
9.13530	1069.50000
9.14830	959.64000
9.16130	910.86000
9.17430	885.78000
9.18730	838.05000
9.20030	761.09000
9.21330	682.21000
9.22630	622.10000
9.23930	582.03000
9.25230	557.92000
9.26530	547.11000
9.27830	547.78000
9.29130	561.69000
9.30430	586.48000
9.31730	608.87000
9.33030	612.35000
9.34330	590.14000
9.35630	557.72000
9.36930	530.85000
9.38230	515.51000
9.39530	507.82000
9.40830	503.93000
9.42130	504.23000
9.43430	507.84000
9.44730	513.73000
9.46030	522.48000
9.47330	534.30000
9.48630	552.25000
9.49930	582.15000
9.51230	632.72000
9.52530	728.85000
9.53830	913.68000
9.55130	1192.59000
9.56430	1417.08000
9.57730	1378.19000
9.59030	1116.00000
9.60330	857.57000
9.61630	717.38000
9.62930	677.67000
9.64230	703.83000
9.65530	764.88000
9.66830	835.60000
9.68130	926.70000
9.69430	1083.56000
9.70730	1291.47000
9.72030	1401.75000
9.73330	1294.37000
9.74630	1060.85000
9.75930	881.14000
9.77230	826.46000
9.78530	869.43000
9.79830	943.39000
9.81130	974.24000
9.82430	924.13000
9.83730	812.08000
9.85030	696.98000
9.86330	618.40000
9.87630	577.33000
9.88930	558.80000
9.90230	549.97000
9.91530	543.35000
9.92830	537.25000
9.94130	532.98000
9.95430	527.98000
9.96730	523.43000
9.98030	519.69000
9.99330	517.03000
10.00630	516.78000
10.01930	519.35000
10.03230	525.58000
10.04530	536.87000
10.05830	554.42000
10.07130	580.39000
10.08430	614.14000
10.09730	648.43000
10.11030	673.81000
10.12330	687.99000
10.13630	696.14000
10.14930	705.77000
10.16230	720.19000
10.17530	735.19000
10.18830	735.77000
10.20130	706.58000
10.21430	654.14000
10.22730	599.32000
10.24030	556.36000
10.25330	526.76000
10.26630	508.04000
10.27930	497.56000
10.29230	492.93000
10.30530	493.31000
10.31830	498.13000
10.33130	509.78000
10.34430	532.19000
10.35730	571.49000
10.37030	629.13000
10.38330	691.01000
10.39630	728.22000
10.40930	727.62000
10.42230	711.07000
10.43530	705.58000
10.44830	705.56000
10.46130	686.55000
10.47430	643.33000
10.48730	600.09000
10.50030	575.53000
10.51330	567.00000
10.52630	560.87000
10.53930	550.18000
10.55230	540.97000
10.56530	537.97000
10.57830	542.16000
10.59130	550.56000
10.60430	564.41000
10.61730	588.09000
10.63030	621.79000
10.64330	660.02000
10.65630	689.89000
10.66930	698.74000
10.68230	691.00000
10.69530	686.25000
10.70830	693.73000
10.72130	701.61000
10.73430	695.55000
10.74730	671.89000
10.76030	636.33000
10.77330	597.95000
10.78630	563.02000
10.79930	537.49000
10.81230	519.06000
10.82530	504.51000
10.83830	491.77000
10.85130	481.87000
10.86430	476.33000
10.87730	476.54000
10.89030	478.41000
10.90330	481.35000
10.91630	486.86000
10.92930	493.23000
10.94230	501.50000
10.95530	513.22000
10.96830	538.21000
10.98130	590.37000
10.99430	690.27000
11.00730	867.32000
11.02030	1136.06000
11.03330	1420.19000
11.04630	1538.29000
11.05930	1389.30000
11.07230	1093.58000
11.08530	835.40000
11.09830	675.90000
11.11130	592.43000
11.12430	553.52000
11.13730	534.35000
11.15030	520.41000
11.16330	505.92000
11.17630	492.45000
11.18930	481.50000
11.20230	475.66000
11.21530	477.51000
11.22830	486.15000
11.24130	500.30000
11.25430	513.93000
11.26730	522.20000
11.28030	522.93000
11.29330	520.47000
11.30630	520.38000
11.31930	527.78000
11.33230	541.96000
11.34530	563.96000
11.35830	592.83000
11.37130	617.31000
11.38430	616.22000
11.39730	580.62000
11.41030	528.77000
11.42330	484.92000
11.43630	458.09000
11.44930	445.57000
11.46230	442.64000
11.47530	449.23000
11.48830	467.61000
11.50130	500.66000
11.51430	551.69000
11.52730	618.48000
11.54030	680.33000
11.55330	704.85000
11.56630	674.75000
11.57930	614.36000
11.59230	561.93000
11.60530	531.98000
11.61830	519.97000
11.63130	521.20000
11.64430	533.17000
11.65730	554.24000
11.67030	580.69000
11.68330	602.89000
11.69630	615.21000
11.70930	618.04000
11.72230	613.00000
11.73530	606.34000
11.74830	606.64000
11.76130	616.46000
11.77430	628.17000
11.78730	623.44000
11.80030	592.22000
11.81330	546.60000
11.82630	501.95000
11.83930	465.93000
11.85230	439.62000
11.86530	421.47000
11.87830	407.25000
11.89130	396.43000
11.90430	388.87000
11.91730	383.37000
11.93030	378.75000
11.94330	377.29000
11.95630	376.61000
11.96930	378.49000
11.98230	382.49000
11.99530	389.51000
12.00830	400.29000
12.02130	417.01000
12.03430	440.54000
12.04730	467.51000
12.06030	494.15000
12.07330	507.49000
12.08630	501.33000
12.09930	480.51000
12.11230	453.25000
12.12530	427.37000
12.13830	406.47000
12.15130	391.45000
12.16430	383.34000
12.17730	378.12000
12.19030	374.85000
12.20330	374.03000
12.21630	373.07000
12.22930	371.86000
12.24230	372.12000
12.25530	374.42000
12.26830	379.28000
12.28130	386.06000
12.29430	393.76000
12.30730	403.57000
12.32030	414.63000
12.33330	420.79000
12.34630	418.69000
12.35930	416.74000
12.37230	420.35000
12.38530	426.62000
12.39830	430.00000
12.41130	433.45000
12.42430	444.16000
12.43730	463.75000
12.45030	482.38000
12.46330	486.34000
12.47630	474.66000
12.48930	458.35000
12.50230	452.97000
12.51530	471.40000
12.52830	525.92000
12.54130	619.37000
12.55430	711.55000
12.56730	735.21000
12.58030	685.11000
12.59330	612.70000
12.60630	556.90000
12.61930	515.64000
12.63230	485.20000
12.64530	469.79000
12.65830	472.78000
12.67130	496.53000
12.68430	548.94000
12.69730	629.42000
12.71030	703.74000
12.72330	719.29000
12.73630	667.39000
12.74930	594.99000
12.76230	543.46000
12.77530	519.00000
12.78830	510.01000
12.80130	504.38000
12.81430	497.93000
12.82730	492.89000
12.84030	492.42000
12.85330	498.62000
12.86630	506.62000
12.87930	503.32000
12.89230	484.11000
12.90530	456.11000
12.91830	431.98000
12.93130	417.98000
12.94430	410.88000
12.95730	406.44000
12.97030	404.51000
12.98330	406.76000
12.99630	413.45000
13.00930	423.42000
13.02230	433.70000
13.03530	440.61000
13.04830	440.49000
13.06130	432.03000
13.07430	419.79000
13.08730	406.96000
13.10030	394.96000
13.11330	384.47000
13.12630	375.53000
13.13930	368.51000
13.15230	363.96000
13.16530	362.67000
13.17830	365.75000
13.19130	373.37000
13.20430	385.58000
13.21730	403.37000
13.23030	421.55000
13.24330	431.62000
13.25630	431.65000
13.26930	428.84000
13.28230	432.04000
13.29530	443.42000
13.30830	463.58000
13.32130	495.79000
13.33430	546.86000
13.34730	619.80000
13.36030	701.73000
13.37330	767.51000
13.38630	802.40000
13.39930	809.39000
13.41230	793.90000
13.42530	759.05000
13.43830	714.91000
13.45130	670.85000
13.46430	627.13000
13.47730	584.00000
13.49030	547.08000
13.50330	515.80000
13.51630	487.15000
13.52930	457.07000
13.54230	428.48000
13.55530	406.87000
13.56830	397.34000
13.58130	401.16000
13.59430	417.40000
13.60730	442.16000
13.62030	463.15000
13.63330	469.25000
13.64630	459.55000
13.65930	444.18000
13.67230	427.40000
13.68530	410.73000
13.69830	396.70000
13.71130	385.28000
13.72430	379.32000
13.73730	376.36000
13.75030	374.94000
13.76330	373.88000
13.77630	373.60000
13.78930	374.76000
13.80230	379.83000
13.81530	391.56000
13.82830	409.49000
13.84130	432.34000
13.85430	453.03000
13.86730	468.13000
13.88030	477.97000
13.89330	480.28000
13.90630	467.14000
13.91930	441.52000
13.93230	413.95000
13.94530	392.35000
13.95830	380.61000
13.97130	375.30000
13.98430	376.08000
13.99730	381.81000
14.01030	392.83000
14.02330	407.66000
14.03630	423.58000
14.04930	436.79000
14.06230	440.84000
14.07530	434.70000
14.08830	423.03000
14.10130	412.58000
14.11430	406.29000
14.12730	406.02000
14.14030	410.81000
14.15330	421.56000
14.16630	438.77000
14.17930	462.74000
14.19230	496.36000
14.20530	537.45000
14.21830	581.98000
14.23130	628.81000
14.24430	678.45000
14.25730	716.09000
14.27030	724.01000
14.28330	706.35000
14.29630	685.85000
14.30930	686.08000
14.32230	708.80000
14.33530	736.26000
14.34830	739.57000
14.36130	709.03000
14.37430	661.76000
14.38730	614.79000
14.40030	570.48000
14.41330	528.13000
14.42630	489.14000
14.43930	458.10000
14.45230	438.50000
14.46530	429.37000
14.47830	431.94000
14.49130	445.92000
14.50430	468.63000
14.51730	494.34000
14.53030	515.44000
14.54330	526.11000
14.55630	526.39000
14.56930	518.35000
14.58230	504.04000
14.59530	485.50000
14.60830	464.54000
14.62130	445.57000
14.63430	432.16000
14.64730	424.24000
14.66030	420.76000
14.67330	418.30000
14.68630	414.02000
14.69930	408.23000
14.71230	401.24000
14.72530	394.77000
14.73830	389.44000
14.75130	387.18000
14.76430	391.76000
14.77730	402.91000
14.79030	422.28000
14.80330	443.43000
14.81630	455.13000
14.82930	449.28000
14.84230	428.49000
14.85530	406.39000
14.86830	390.58000
14.88130	382.31000
14.89430	379.77000
14.90730	383.52000
14.92030	392.54000
14.93330	405.57000
14.94630	419.68000
14.95930	436.55000
14.97230	455.15000
14.98530	466.08000
14.99830	456.98000
15.01130	432.01000
15.02430	404.63000
15.03730	385.97000
15.05030	377.35000
15.06330	376.29000
15.07630	379.55000
15.08930	387.52000
15.10230	399.79000
15.11530	417.98000
15.12830	440.18000
15.14130	464.02000
15.15430	482.81000
15.16730	490.00000
15.18030	486.20000
15.19330	477.91000
15.20630	474.34000
15.21930	479.26000
15.23230	495.13000
15.24530	521.57000
15.25830	549.85000
15.27130	569.82000
15.28430	577.33000
15.29730	574.05000
15.31030	561.57000
15.32330	543.85000
15.33630	525.66000
15.34930	509.60000
15.36230	494.51000
15.37530	479.36000
15.38830	465.29000
15.40130	451.82000
15.41430	442.99000
15.42730	437.80000
15.44030	436.18000
15.45330	436.68000
15.46630	437.09000
15.47930	437.06000
15.49230	435.96000
15.50530	436.16000
15.51830	439.62000
15.53130	444.09000
15.54430	450.52000
15.55730	457.28000
15.57030	463.76000
15.58330	470.11000
15.59630	472.80000
15.60930	464.42000
15.62230	445.18000
15.63530	424.26000
15.64830	408.63000
15.66130	397.83000
15.67430	392.65000
15.68730	394.17000
15.70030	400.50000
15.71330	409.89000
15.72630	421.80000
15.73930	438.57000
15.75230	458.44000
15.76530	472.61000
15.77830	476.06000
15.79130	471.11000
15.80430	462.93000
15.81730	452.34000
15.83030	441.74000
15.84330	433.27000
15.85630	429.35000
15.86930	430.35000
15.88230	431.80000
15.89530	428.10000
15.90830	417.26000
15.92130	401.56000
15.93430	386.94000
15.94730	376.17000
15.96030	369.76000
15.97330	366.64000
15.98630	364.54000
15.99930	362.35000
16.01230	358.83000
16.02530	356.60000
16.03830	356.43000
16.05130	358.60000
16.06430	363.07000
16.07730	370.90000
16.09030	379.19000
16.10330	386.25000
16.11630	391.86000
16.12930	395.90000
16.14230	400.38000
16.15530	407.81000
16.16830	417.68000
16.18130	430.69000
16.19430	446.34000
16.20730	465.15000
16.22030	484.60000
16.23330	499.36000
16.24630	505.72000
16.25930	502.02000
16.27230	491.27000
16.28530	480.21000
16.29830	471.60000
16.31130	463.96000
16.32430	458.02000
16.33730	452.42000
16.35030	450.67000
16.36330	454.38000
16.37630	465.57000
16.38930	479.37000
16.40230	492.00000
16.41530	499.14000
16.42830	500.27000
16.44130	496.40000
16.45430	489.00000
16.46730	479.27000
16.48030	467.69000
16.49330	459.74000
16.50630	460.12000
16.51930	470.20000
16.53230	487.00000
16.54530	508.54000
16.55830	537.14000
16.57130	580.85000
16.58430	638.00000
16.59730	683.38000
16.61030	686.34000
16.62330	641.92000
16.63630	580.58000
16.64930	530.59000
16.66230	499.02000
16.67530	481.96000
16.68830	474.35000
16.70130	471.12000
16.71430	466.29000
16.72730	458.34000
16.74030	452.95000
16.75330	454.66000
16.76630	465.74000
16.77930	479.38000
16.79230	488.82000
16.80530	487.98000
16.81830	475.03000
16.83130	456.97000
16.84430	440.77000
16.85730	430.62000
16.87030	427.31000
16.88330	427.05000
16.89630	425.31000
16.90930	421.25000
16.92230	418.36000
16.93530	417.60000
16.94830	420.00000
16.96130	423.59000
16.97430	421.91000
16.98730	412.37000
17.00030	396.63000
17.01330	382.17000
17.02630	373.04000
17.03930	370.30000
17.05230	373.46000
17.06530	379.22000
17.07830	385.90000
17.09130	392.75000
17.10430	398.91000
17.11730	404.10000
17.13030	408.55000
17.14330	413.02000
17.15630	414.73000
17.16930	408.01000
17.18230	393.78000
17.19530	376.76000
17.20830	361.64000
17.22130	351.34000
17.23430	343.57000
17.24730	339.16000
17.26030	336.09000
17.27330	333.26000
17.28630	330.29000
17.29930	326.70000
17.31230	323.39000
17.32530	321.90000
17.33830	322.62000
17.35130	324.67000
17.36430	328.17000
17.37730	335.25000
17.39030	344.83000
17.40330	355.66000
17.41630	365.44000
17.42930	370.50000
17.44230	369.05000
17.45530	364.16000
17.46830	359.21000
17.48130	354.87000
17.49430	351.74000
17.50730	351.10000
17.52030	354.42000
17.53330	359.52000
17.54630	365.01000
17.55930	368.78000
17.57230	369.19000
17.58530	367.19000
17.59830	364.26000
17.61130	362.44000
17.62430	360.48000
17.63730	358.71000
17.65030	356.63000
17.66330	356.40000
17.67630	357.11000
17.68930	358.68000
17.70230	360.95000
17.71530	363.35000
17.72830	366.65000
17.74130	372.38000
17.75430	381.27000
17.76730	393.63000
17.78030	407.55000
17.79330	420.30000
17.80630	430.05000
17.81930	433.93000
17.83230	431.91000
17.84530	429.09000
17.85830	429.30000
17.87130	434.81000
17.88430	440.86000
17.89730	444.32000
17.91030	444.51000
17.92330	443.06000
17.93630	441.94000
17.94930	441.99000
17.96230	445.04000
17.97530	450.97000
17.98830	458.27000
18.00130	464.94000
18.01430	467.74000
18.02730	463.02000
18.04030	450.25000
18.05330	432.24000
18.06630	415.33000
18.07930	403.29000
18.09230	397.02000
18.10530	395.45000
18.11830	397.71000
18.13130	402.02000
18.14430	406.18000
18.15730	411.45000
18.17030	417.89000
18.18330	425.06000
18.19630	431.96000
18.20930	436.23000
18.22230	438.25000
18.23530	437.95000
18.24830	438.98000
18.26130	444.42000
18.27430	453.78000
18.28730	462.66000
18.30030	468.02000
18.31330	469.35000
18.32630	469.14000
18.33930	470.68000
18.35230	475.55000
18.36530	480.53000
18.37830	483.16000
18.39130	483.34000
18.40430	481.00000
18.41730	476.38000
18.43030	467.30000
18.44330	451.80000
18.45630	435.80000
18.46930	420.12000
18.48230	405.09000
18.49530	392.20000
18.50830	382.06000
18.52130	372.90000
18.53430	367.63000
18.54730	363.99000
18.56030	358.09000
18.57330	350.03000
18.58630	343.45000
18.59930	343.19000
18.61230	350.23000
18.62530	364.41000
18.63830	386.95000
18.65130	419.22000
18.66430	450.11000
18.67730	467.77000
18.69030	465.74000
18.70330	451.68000
18.71630	436.64000
18.72930	424.54000
18.74230	411.56000
18.75530	398.61000
18.76830	388.13000
18.78130	382.32000
18.79430	383.16000
18.80730	392.80000
18.82030	407.53000
18.83330	417.74000
18.84630	411.99000
18.85930	390.88000
18.87230	366.19000
18.88530	347.02000
18.89830	335.85000
18.91130	328.71000
18.92430	324.95000
18.93730	322.94000
18.95030	323.06000
18.96330	325.89000
18.97630	330.35000
18.98930	335.10000
19.00230	342.05000
19.01530	352.27000
19.02830	364.59000
19.04130	378.46000
19.05430	391.75000
19.06730	402.63000
19.08030	410.35000
19.09330	413.71000
19.10630	414.95000
19.11930	416.60000
19.13230	418.03000
19.14530	419.40000
19.15830	422.02000
19.17130	426.55000
19.18430	437.21000
19.19730	453.47000
19.21030	468.55000
19.22330	472.50000
19.23630	463.90000
19.24930	449.36000
19.26230	435.27000
19.27530	422.08000
19.28830	409.04000
19.30130	396.55000
19.31430	386.04000
19.32730	379.01000
19.34030	379.79000
19.35330	386.27000
19.36630	396.71000
19.37930	410.04000
19.39230	420.07000
19.40530	420.10000
19.41830	407.14000
19.43130	387.32000
19.44430	368.03000
19.45730	353.22000
19.47030	343.53000
19.48330	336.52000
19.49630	333.15000
19.50930	332.57000
19.52230	332.26000
19.53530	329.15000
19.54830	324.00000
19.56130	319.30000
19.57430	316.27000
19.58730	315.67000
19.60030	319.46000
19.61330	326.70000
19.62630	335.92000
19.63930	341.26000
19.65230	337.88000
19.66530	326.84000
19.67830	314.88000
19.69130	305.51000
19.70430	300.12000
19.71730	297.12000
19.73030	295.38000
19.74330	293.62000
19.75630	291.95000
19.76930	292.55000
19.78230	294.55000
19.79530	297.52000
19.80830	300.74000
19.82130	303.34000
19.83430	306.68000
19.84730	309.48000
19.86030	312.29000
19.87330	316.41000
19.88630	321.11000
19.89930	327.18000
19.91230	334.94000
19.92530	340.91000
19.93830	344.84000
19.95130	346.99000
19.96430	348.58000
19.97730	350.58000
19.99030	352.81000
20.00330	356.55000
20.01630	363.53000
20.02930	373.30000
20.04230	383.53000
20.05530	392.19000
20.06830	394.94000
20.08130	389.53000
20.09430	380.80000
20.10730	371.95000
20.12030	364.00000
20.13330	356.88000
20.14630	350.74000
20.15930	347.85000
20.17230	346.50000
20.18530	345.86000
20.19830	345.52000
20.21130	344.28000
20.22430	341.96000
20.23730	338.21000
20.25030	335.98000
20.26330	335.70000
20.27630	337.23000
20.28930	340.99000
20.30230	342.57000
20.31530	342.71000
20.32830	342.97000
20.34130	343.25000
20.35430	343.10000
20.36730	342.40000
20.38030	341.36000
20.39330	340.31000
20.40630	338.39000
20.41930	336.66000
20.43230	335.84000
20.44530	333.81000
20.45830	329.16000
20.47130	325.82000
20.48430	321.64000
20.49730	317.46000
20.51030	314.93000
20.52330	314.29000
20.53630	315.33000
20.54930	317.37000
20.56230	317.76000
20.57530	315.67000
20.58830	312.90000
20.60130	309.28000
20.61430	307.12000
20.62730	307.69000
20.64030	309.89000
20.65330	311.29000
20.66630	312.88000
20.67930	313.71000
20.69230	315.30000
20.70530	316.24000
20.71830	316.90000
20.73130	315.29000
20.74430	314.38000
20.75730	314.82000
20.77030	313.65000
20.78330	310.82000
20.79630	306.93000
20.80930	301.97000
20.82230	297.94000
20.83530	296.89000
20.84830	298.13000
20.86130	301.05000
20.87430	304.37000
20.88730	304.59000
20.90030	302.46000
20.91330	298.79000
20.92630	294.92000
20.93930	290.00000
20.95230	286.03000
20.96530	283.45000
20.97830	280.84000
20.99130	279.01000
21.00430	276.18000
21.01730	276.90000
21.03030	278.59000
21.04330	279.85000
21.05630	281.13000
21.06930	281.85000
21.08230	281.77000
21.09530	281.30000
21.10830	280.33000
21.12130	279.84000
21.13430	279.74000
21.14730	280.52000
21.16030	279.99000
21.17330	279.23000
21.18630	278.56000
21.19930	277.02000
21.21230	274.48000
21.22530	274.22000
21.23830	274.45000
21.25130	276.09000
21.26430	279.24000
21.27730	282.28000
21.29030	283.08000
21.30330	282.04000
21.31630	281.63000
21.32930	280.96000
21.34230	282.28000
21.35530	286.49000
21.36830	287.46000
21.38130	287.88000
21.39430	289.01000
21.40730	289.56000
21.42030	290.51000
21.43330	289.81000
21.44630	286.17000
21.45930	281.14000
21.47230	276.40000
21.48530	271.68000
21.49830	270.12000
21.51130	268.24000
21.52430	267.55000
21.53730	268.03000
21.55030	269.11000
21.56330	270.75000
21.57630	273.34000
21.58930	276.14000
21.60230	278.40000
21.61530	280.90000
21.62830	283.88000
21.64130	286.44000
21.65430	289.98000
21.66730	294.43000
21.68030	300.14000
21.69330	304.60000
21.70630	306.56000
21.71930	307.94000
21.73230	309.42000
21.74530	309.99000
21.75830	310.96000
21.77130	309.53000
21.78430	306.45000
21.79730	303.53000
21.81030	300.30000
21.82330	295.72000
21.83630	291.42000
21.84930	287.34000
21.86230	283.82000
21.87530	281.42000
21.88830	280.91000
21.90130	280.62000
21.91430	279.44000
21.92730	277.23000
21.94030	271.77000
21.95330	266.88000
21.96630	263.53000
21.97930	260.92000
21.99230	259.58000
22.00530	258.58000
22.01830	258.44000
22.03130	259.21000
22.04430	259.16000
22.05730	257.30000
22.07030	256.50000
22.08330	255.28000
22.09630	256.83000
22.10930	258.55000
22.12230	260.89000
22.13530	264.12000
22.14830	268.57000
22.16130	274.17000
22.17430	279.17000
22.18730	284.74000
22.20030	289.96000
22.21330	292.51000
22.22630	294.75000
22.23930	295.79000
22.25230	295.30000
22.26530	295.69000
22.27830	297.01000
22.29130	296.54000
22.30430	298.26000
22.31730	297.60000
22.33030	295.40000
22.34330	293.75000
22.35630	293.68000
22.36930	294.78000
22.38230	296.38000
22.39530	298.83000
22.40830	300.85000
22.42130	304.04000
22.43430	306.04000
22.44730	305.95000
22.46030	306.21000
22.47330	308.14000
22.48630	306.14000
22.49930	302.31000
22.51230	296.13000
22.52530	289.19000
22.53830	283.45000
22.55130	277.25000
22.56430	272.85000
22.57730	269.91000
22.59030	267.17000
22.60330	265.98000
22.61630	264.50000
22.62930	264.32000
22.64230	263.63000
22.65530	261.74000
22.66830	260.54000
22.68130	259.73000
22.69430	260.90000
22.70730	263.17000
22.72030	266.12000
22.73330	268.20000
22.74630	270.35000
22.75930	271.53000
22.77230	272.42000
22.78530	271.34000
22.79830	270.47000
22.81130	271.28000
22.82430	272.63000
22.83730	272.56000
22.85030	272.82000
22.86330	274.07000
22.87630	275.34000
22.88930	274.41000
22.90230	272.52000
22.91530	267.99000
22.92830	263.62000
22.94130	258.58000
22.95430	256.75000
22.96730	255.13000
22.98030	251.93000
22.99330	250.04000
23.00630	248.36000
23.01930	247.00000
23.03230	245.62000
23.04530	243.70000
23.05830	243.22000
23.07130	244.29000
23.08430	244.93000
23.09730	244.57000
23.11030	245.49000
23.12330	248.91000
23.13630	252.25000
23.14930	256.82000
23.16230	260.92000
23.17530	263.87000
23.18830	266.66000
23.20130	268.24000
23.21430	269.04000
23.22730	269.25000
23.24030	271.12000
23.25330	272.85000
23.26630	273.49000
23.27930	275.10000
23.29230	278.97000
23.30530	283.36000
23.31830	288.58000
23.33130	294.02000
23.34430	299.60000
23.35730	301.48000
23.37030	302.35000
23.38330	305.85000
23.39630	306.03000
23.40930	304.82000
23.42230	302.36000
23.43530	297.21000
23.44830	291.95000
23.46130	287.89000
23.47430	283.22000
23.48730	281.79000
23.50030	281.39000
23.51330	282.70000
23.52630	284.47000
23.53930	286.12000
23.55230	285.47000
23.56530	285.61000
23.57830	284.28000
23.59130	278.24000
23.60430	273.31000
23.61730	269.45000
23.63030	267.42000
23.64330	264.41000
23.65630	260.47000
23.66930	259.48000
23.68230	259.93000
23.69530	260.40000
23.70830	260.39000
23.72130	262.02000
23.73430	263.71000
23.74730	263.91000
23.76030	267.45000
23.77330	270.40000
23.78630	271.71000
23.79930	271.32000
23.81230	270.89000
23.82530	268.74000
23.83830	265.42000
23.85130	260.84000
23.86430	257.54000
23.87730	254.45000
23.89030	250.01000
23.90330	250.02000
23.91630	250.09000
23.92930	247.72000
23.94230	246.24000
23.95530	246.67000
23.96830	246.54000
23.98130	244.79000
23.99430	246.75000
24.00730	247.90000
24.02030	247.48000
24.03330	248.62000
24.04630	252.62000
24.05930	253.64000
24.07230	254.26000
24.08530	254.57000
24.09830	254.97000
24.11130	254.25000
24.12430	255.32000
24.13730	256.21000
24.15030	255.69000
24.16330	256.17000
24.17630	254.15000
24.18930	255.35000
24.20230	255.53000
24.21530	255.27000
24.22830	253.60000
24.24130	252.54000
24.25430	253.46000
24.26730	251.21000
24.28030	252.59000
24.29330	255.37000
24.30630	255.17000
24.31930	253.45000
24.33230	253.98000
24.34530	254.84000
24.35830	256.48000
24.37130	255.81000
24.38430	254.66000
24.39730	256.11000
24.41030	258.69000
24.42330	260.21000
24.43630	260.57000
24.44930	260.12000
24.46230	260.05000
24.47530	260.82000
24.48830	262.90000
24.50130	264.16000
24.51430	262.32000
24.52730	262.89000
24.54030	264.01000
24.55330	265.13000
24.56630	265.31000
24.57930	263.26000
24.59230	264.46000
24.60530	264.73000
24.61830	264.97000
24.63130	268.50000
24.64430	269.18000
24.65730	269.57000
24.67030	271.19000
24.68330	274.45000
24.69630	279.23000
24.70930	281.37000
24.72230	283.88000
24.73530	284.00000
24.74830	282.34000
24.76130	279.70000
24.77430	281.49000
24.78730	285.22000
24.80030	287.70000
24.81330	289.72000
24.82630	288.22000
24.83930	287.82000
24.85230	285.54000
24.86530	285.40000
24.87830	287.83000
24.89130	289.21000
24.90430	293.92000
24.91730	297.18000
24.93030	298.87000
24.94330	295.88000
24.95630	291.74000
24.96930	288.23000
24.98230	283.28000
24.99530	277.44000
25.00830	271.57000
25.02130	272.67000
25.03430	273.65000
25.04730	275.01000
25.06030	275.60000
25.07330	273.12000
25.08630	277.19000
25.09930	277.81000
25.11230	280.76000
25.12530	283.18000
25.13830	281.77000
25.15130	279.88000
25.16430	282.09000
25.17730	285.50000
25.19030	292.78000
25.20330	293.43000
25.21630	296.16000
25.22930	299.53000
25.24230	299.75000
25.25530	299.07000
25.26830	299.60000
25.28130	302.29000
25.29430	302.14000
25.30730	301.44000
25.32030	299.71000
25.33330	292.44000
25.34630	281.38000
25.35930	279.94000
25.37230	281.22000
25.38530	282.37000
25.39830	283.74000
25.41130	281.03000
25.42430	281.80000
25.43730	290.06000
25.45030	290.33000
25.46330	287.19000
25.47630	293.92000
25.48930	298.39000
25.50230	299.89000
25.51530	295.63000
25.52830	286.96000
25.54130	288.51000
25.55430	299.04000
25.56730	292.05000
25.58030	288.33000
25.59330	294.72000
25.60630	310.95000
25.61930	308.38000
25.63230	311.32000
25.64530	308.55000
25.65830	302.46000
25.67130	294.25000
25.68430	290.15000
25.69730	289.98000
