7.01170	566.23000
7.02180	567.48000
7.03200	567.25000
7.04210	565.55000
7.05230	568.73000
7.06240	568.73000
7.07260	567.83000
7.08270	565.42000
7.09290	559.56000
7.10300	563.41000
7.11320	568.84000
7.12330	565.98000
7.13350	559.73000
7.14360	559.89000
7.15380	559.09000
7.16390	563.08000
7.17410	562.69000
7.18420	566.81000
7.19440	559.89000
7.20450	573.23000
7.21470	559.78000
7.22480	560.39000
7.23500	562.52000
7.24510	557.66000
7.25530	555.42000
7.26540	556.62000
7.27560	562.55000
7.28570	558.92000
7.29590	563.27000
7.30600	553.38000
7.31620	548.75000
7.32630	557.25000
7.33650	555.67000
7.34660	552.44000
7.35680	556.56000
7.36690	558.02000
7.37710	554.03000
7.38720	551.78000
7.39740	550.08000
7.40750	553.38000
7.41770	547.89000
7.42780	550.62000
7.43800	550.50000
7.44810	546.00000
7.45830	551.33000
7.46840	552.45000
7.47860	558.62000
7.48870	547.92000
7.49890	547.52000
7.50900	547.06000
7.51920	539.69000
7.52930	545.77000
7.53950	541.78000
7.54960	547.84000
7.55980	540.52000
7.56990	550.02000
7.58010	547.14000
7.59020	547.61000
7.60040	546.12000
7.61050	541.06000
7.62070	542.59000
7.63080	540.77000
7.64100	542.56000
7.65110	542.44000
7.66130	544.75000
7.67140	545.84000
7.68160	542.39000
7.69170	537.81000
7.70190	544.94000
7.71200	537.66000
7.72220	539.14000
7.73230	542.41000
7.74250	536.42000
7.75260	540.09000
7.76280	535.17000
7.77290	539.30000
7.78310	538.95000
7.79320	543.19000
7.80340	537.55000
7.81350	542.75000
7.82370	537.81000
7.83380	539.55000
7.84400	536.50000
7.85410	534.94000
7.86430	532.50000
7.87440	536.23000
7.88460	538.36000
7.89470	539.30000
7.90490	535.38000
7.91500	530.48000
7.92520	532.02000
7.93530	531.17000
7.94550	535.38000
7.95560	533.73000
7.96580	530.16000
7.97590	536.64000
7.98610	535.33000
7.99620	533.72000
8.00640	532.17000
8.01650	527.88000
8.02670	530.69000
8.03680	532.38000
8.04700	526.58000
8.05710	530.02000
8.06730	528.66000
8.07740	530.19000
8.08760	528.55000
8.09770	530.27000
8.10790	524.64000
8.11800	522.25000
8.12820	527.27000
8.13830	528.48000
8.14850	524.53000
8.15860	527.16000
8.16880	529.05000
8.17890	524.81000
8.18910	524.12000
8.19920	519.67000
8.20940	524.88000
8.21950	523.94000
8.22970	523.13000
8.23980	524.62000
8.25000	525.64000
8.26010	527.84000
8.27030	521.48000
8.28040	527.56000
8.29060	519.67000
8.30070	523.06000
8.31090	530.23000
8.32100	518.86000
8.33120	523.89000
8.34130	520.95000
8.35150	517.95000
8.36160	521.47000
8.37180	516.05000
8.38190	517.28000
8.39210	519.83000
8.40220	519.31000
8.41240	518.42000
8.42250	518.72000
8.43270	521.80000
8.44280	516.86000
8.45300	520.45000
8.46310	522.75000
8.47330	522.98000
8.48340	520.91000
8.49360	519.66000
8.50370	521.70000
8.51390	521.06000
8.52400	512.56000
8.53420	519.73000
8.54430	517.77000
8.55450	513.61000
8.56460	514.48000
8.57480	518.67000
8.58490	516.05000
8.59510	514.36000
8.60520	515.67000
8.61540	509.95000
8.62550	509.86000
8.63570	508.48000
8.64580	513.50000
8.65600	513.25000
8.66610	511.52000
8.67630	507.38000
8.68640	505.59000
8.69660	507.45000
8.70670	512.81000
8.71690	508.89000
8.72700	508.16000
8.73720	508.11000
8.74730	505.78000
8.75750	507.66000
8.76760	509.81000
8.77780	505.56000
8.78790	506.58000
8.79810	509.81000
8.80820	508.77000
8.81840	502.47000
8.82850	505.33000
8.83870	503.64000
8.84880	505.38000
8.85900	508.31000
8.86910	509.25000
8.87930	508.30000
8.88940	507.75000
8.89960	514.69000
8.90970	511.09000
8.91990	509.86000
8.93000	511.14000
8.94020	520.22000
8.95030	517.33000
8.96050	517.91000
8.97060	518.58000
8.98080	523.22000
8.99090	524.58000
9.00110	529.28000
9.01120	530.08000
9.02140	534.61000
9.03150	535.78000
9.04170	551.53000
9.05180	550.53000
9.06200	557.52000
9.07210	571.53000
9.08230	578.03000
9.09240	588.92000
9.10260	595.58000
9.11270	614.95000
9.12290	634.08000
9.13300	666.34000
9.14320	698.00000
9.15330	731.33000
9.16350	772.02000
9.17360	826.69000
9.18380	859.63000
9.19390	868.73000
9.20410	851.69000
9.21420	802.44000
9.22440	720.97000
9.23450	647.41000
9.24470	591.17000
9.25480	552.98000
9.26500	522.52000
9.27510	513.64000
9.28530	508.66000
9.29540	503.95000
9.30560	502.84000
9.31570	501.50000
9.32590	502.06000
9.33600	501.95000
9.34620	491.73000
9.35630	494.97000
9.36650	491.33000
9.37660	495.78000
9.38680	488.89000
9.39690	495.08000
9.40710	493.59000
9.41720	491.69000
9.42740	490.78000
9.43750	491.77000
9.44770	491.92000
9.45780	490.30000
9.46800	493.84000
9.47810	491.27000
9.48830	489.25000
9.49840	485.00000
9.50860	491.23000
9.51870	495.30000
9.52890	491.14000
9.53900	486.84000
9.54920	487.98000
9.55930	490.83000
9.56950	488.83000
9.57960	481.75000
9.58980	488.48000
9.59990	487.61000
9.61010	486.62000
9.62020	483.92000
9.63040	484.22000
9.64050	488.75000
9.65070	483.58000
9.66080	482.27000
9.67100	489.78000
9.68110	487.61000
9.69130	482.50000
9.70140	486.38000
9.71160	473.91000
9.72170	482.75000
9.73190	479.55000
9.74200	483.84000
9.75220	484.91000
9.76230	483.41000
9.77250	481.09000
9.78260	485.23000
9.79280	484.64000
9.80290	483.53000
9.81310	485.36000
9.82320	478.55000
9.83340	489.81000
9.84350	485.05000
9.85370	484.30000
9.86380	488.16000
9.87400	483.06000
9.88410	485.98000
9.89430	483.27000
9.90440	490.97000
9.91460	485.41000
9.92470	491.28000
9.93490	494.31000
9.94500	497.33000
9.95520	495.61000
9.96530	496.98000
9.97550	502.41000
9.98560	506.80000
9.99580	510.88000
10.00590	514.12000
10.01610	519.64000
10.02620	525.44000
10.03640	537.89000
10.04650	545.80000
10.05670	558.94000
10.06680	566.95000
10.07700	590.34000
10.08710	605.09000
10.09730	629.03000
10.10740	657.42000
10.11760	681.73000
10.12770	720.48000
10.13790	772.69000
10.14800	838.91000
10.15820	880.14000
10.16830	904.72000
10.17850	898.83000
10.18860	854.02000
10.19880	781.91000
10.20890	691.97000
10.21910	615.88000
10.22920	568.38000
10.23940	529.34000
10.24950	510.81000
10.25970	496.36000
10.26980	485.05000
10.28000	481.75000
10.29010	480.78000
10.30030	476.55000
10.31040	477.53000
10.32060	476.86000
10.33070	468.11000
10.34090	481.05000
10.35100	472.83000
10.36120	473.14000
10.37130	464.83000
10.38150	467.56000
10.39160	469.39000
10.40180	467.31000
10.41190	472.12000
10.42210	464.75000
10.43220	467.75000
10.44240	461.06000
10.45250	464.42000
10.46270	468.39000
10.47280	460.89000
10.48300	469.23000
10.49310	464.22000
10.50330	470.98000
10.51340	467.66000
10.52360	464.45000
10.53370	464.25000
10.54390	463.12000
10.55400	459.14000
10.56420	465.33000
10.57430	464.78000
10.58450	463.98000
10.59460	462.16000
10.60480	460.67000
10.61490	460.64000
10.62510	458.69000
10.63520	462.06000
10.64540	462.36000
10.65550	459.02000
10.66570	461.56000
10.67580	455.70000
10.68600	457.58000
10.69610	459.05000
10.70630	461.50000
10.71640	459.00000
10.72660	458.17000
10.73670	458.52000
10.74690	460.42000
10.75700	453.09000
10.76720	460.98000
10.77730	462.47000
10.78750	460.66000
10.79760	460.33000
10.80780	453.11000
10.81790	454.12000
10.82810	464.70000
10.83820	462.14000
10.84840	458.72000
10.85850	455.98000
10.86870	456.02000
10.87880	456.75000
10.88900	457.61000
10.89910	455.19000
10.90930	450.45000
10.91940	451.36000
10.92960	457.27000
10.93970	456.56000
10.94990	455.97000
10.96000	454.50000
10.97020	453.77000
10.98030	453.45000
10.99050	454.08000
11.00060	454.33000
11.01080	449.48000
11.02090	451.92000
11.03110	453.98000
11.04120	458.91000
11.05140	456.64000
11.06150	450.45000
11.07170	455.80000
11.08180	455.39000
11.09200	451.19000
11.10210	448.98000
11.11230	454.88000
11.12240	449.55000
11.13260	455.53000
11.14270	446.48000
11.15290	454.80000
11.16300	447.62000
11.17320	449.94000
11.18330	448.83000
11.19350	450.39000
11.20360	450.67000
11.21380	452.09000
11.22390	449.72000
11.23410	448.50000
11.24420	450.38000
11.25440	445.30000
11.26450	449.78000
11.27470	444.95000
11.28480	450.83000
11.29500	444.06000
11.30510	442.11000
11.31530	446.88000
11.32540	443.19000
11.33560	448.33000
11.34570	446.14000
11.35590	444.22000
11.36600	444.41000
11.37620	450.47000
11.38630	445.81000
11.39650	446.86000
11.40660	445.31000
11.41680	444.30000
11.42690	443.67000
11.43710	447.22000
11.44720	442.06000
11.45740	442.28000
11.46750	444.36000
11.47770	443.78000
11.48780	439.55000
11.49800	443.84000
11.50810	445.53000
11.51830	442.69000
11.52840	442.33000
11.53860	440.73000
11.54870	437.22000
11.55890	445.88000
11.56900	439.12000
11.57920	445.30000
11.58930	437.64000
11.59950	441.73000
11.60960	439.86000
11.61980	443.22000
11.62990	442.73000
11.64010	438.86000
11.65020	441.30000
11.66040	439.62000
11.67050	443.97000
11.68070	440.97000
11.69080	438.53000
11.70100	441.22000
11.71110	442.92000
11.72130	440.94000
11.73140	442.59000
11.74160	446.31000
11.75170	439.03000
11.76190	439.31000
11.77200	435.06000
11.78220	440.16000
11.79230	439.38000
11.80250	443.83000
11.81260	437.95000
11.82280	442.98000
11.83290	434.52000
11.84310	437.66000
11.85320	432.53000
11.86340	435.36000
11.87350	438.19000
11.88370	438.98000
11.89380	433.83000
11.90400	436.50000
11.91410	438.05000
11.92430	428.67000
11.93440	435.34000
11.94460	436.97000
11.95470	433.80000
11.96490	437.00000
11.97500	436.23000
11.98520	432.28000
11.99530	436.36000
12.00550	433.39000
12.01560	437.48000
12.02580	440.67000
12.03590	437.23000
12.04610	432.44000
12.05620	439.03000
12.06640	434.03000
12.07650	432.30000
12.08670	438.19000
12.09680	431.75000
12.10700	436.98000
12.11710	434.02000
12.12730	436.12000
12.13740	428.19000
12.14760	432.75000
12.15770	431.98000
12.16790	434.70000
12.17800	432.06000
12.18820	437.80000
12.19830	439.80000
12.20850	432.72000
12.21860	435.16000
12.22880	438.98000
12.23890	446.09000
12.24910	445.75000
12.25920	449.39000
12.26940	447.47000
12.27950	460.88000
12.28970	459.88000
12.29980	464.36000
12.31000	470.34000
12.32010	483.39000
12.33030	491.72000
12.34040	504.55000
12.35060	505.81000
12.36070	508.42000
12.37090	512.17000
12.38100	490.61000
12.39120	486.64000
12.40130	473.06000
12.41150	461.28000
12.42160	451.41000
12.43180	438.17000
12.44190	438.22000
12.45210	434.84000
12.46220	429.17000
12.47240	428.33000
12.48250	427.95000
12.49270	428.34000
12.50280	428.11000
12.51300	428.59000
12.52310	429.38000
12.53330	430.42000
12.54340	422.75000
12.55360	430.20000
12.56370	426.05000
12.57390	430.20000
12.58400	424.78000
12.59420	426.98000
12.60430	422.61000
12.61450	427.31000
12.62460	427.95000
12.63480	426.47000
12.64490	424.78000
12.65510	432.08000
12.66520	425.55000
12.67540	420.66000
12.68550	425.48000
12.69570	418.31000
12.70580	422.94000
12.71600	428.41000
12.72610	421.36000
12.73630	426.92000
12.74640	421.06000
12.75660	421.12000
12.76670	419.70000
12.77690	420.81000
12.78700	423.28000
12.79720	419.58000
12.80730	420.83000
12.81750	419.47000
12.82760	422.83000
12.83780	424.48000
12.84790	420.55000
12.85810	420.52000
12.86820	420.30000
12.87840	424.94000
12.88850	424.14000
12.89870	420.06000
12.90880	426.80000
12.91900	424.03000
12.92910	423.70000
12.93930	421.34000
12.94940	419.84000
12.95960	416.61000
12.96970	423.66000
12.97990	422.73000
12.99000	419.73000
13.00020	417.56000
13.01030	417.17000
13.02050	419.25000
13.03060	417.91000
13.04080	424.58000
13.05090	416.58000
13.06110	420.72000
13.07120	416.64000
13.08140	418.38000
13.09150	423.48000
13.10170	420.64000
13.11180	421.78000
13.12200	422.61000
13.13210	418.72000
13.14230	416.55000
13.15240	417.45000
13.16260	420.34000
13.17270	419.59000
13.18290	417.27000
13.19300	413.47000
13.20320	422.75000
13.21330	424.08000
13.22350	418.88000
13.23360	421.52000
13.24380	419.53000
13.25390	420.80000
13.26410	418.89000
13.27420	421.97000
13.28440	416.66000
13.29450	418.03000
13.30470	419.03000
13.31480	418.41000
13.32500	421.14000
13.33510	419.70000
13.34530	419.34000
13.35540	417.75000
13.36560	425.80000
13.37570	426.80000
13.38590	423.69000
13.39600	429.77000
13.40620	429.91000
13.41630	431.38000
13.42650	434.81000
13.43660	437.42000
13.44680	436.98000
13.45690	440.72000
13.46710	451.16000
13.47720	449.06000
13.48740	458.84000
13.49750	471.56000
13.50770	484.42000
13.51780	498.77000
13.52800	514.66000
13.53810	539.81000
13.54830	560.62000
13.55840	587.98000
13.56860	617.56000
13.57870	680.89000
13.58890	738.61000
13.59900	805.06000
13.60920	897.03000
13.61930	993.23000
13.62950	1070.42000
13.63960	1109.91000
13.64980	1121.45000
13.65990	1076.94000
13.67010	986.53000
13.68020	871.25000
13.69040	770.22000
13.70050	672.14000
13.71070	587.95000
13.72080	531.23000
13.73100	487.00000
13.74110	460.69000
13.75130	454.16000
13.76140	441.11000
13.77160	438.20000
13.78170	428.39000
13.79190	425.61000
13.80200	426.06000
13.81220	420.70000
13.82230	418.27000
13.83250	421.31000
13.84260	416.09000
13.85280	420.22000
13.86290	419.62000
13.87310	416.95000
13.88320	410.86000
13.89340	415.02000
13.90350	414.73000
13.91370	420.48000
13.92380	415.03000
13.93400	419.95000
13.94410	410.59000
13.95430	411.34000
13.96440	418.05000
13.97460	419.72000
13.98470	416.58000
13.99490	413.91000
14.00500	419.33000
14.01520	415.11000
14.02530	414.59000
14.03550	418.45000
14.04560	413.16000
14.05580	421.25000
14.06590	416.61000
14.07610	421.62000
14.08620	423.89000
14.09640	423.97000
14.10650	425.02000
14.11670	433.27000
14.12680	437.97000
14.13700	435.80000
14.14710	443.81000
14.15730	452.52000
14.16740	460.36000
14.17760	469.75000
14.18770	489.61000
14.19790	500.05000
14.20800	526.22000
14.21820	552.44000
14.22830	577.69000
14.23850	618.50000
14.24860	665.73000
14.25880	719.23000
14.26890	791.75000
14.27910	864.72000
14.28920	943.86000
14.29940	993.52000
14.30950	1031.58000
14.31970	1010.30000
14.32980	973.02000
14.34000	889.00000
14.35010	796.91000
14.36030	711.05000
14.37040	632.88000
14.38060	560.03000
14.39070	514.39000
14.40090	472.89000
14.41100	454.19000
14.42120	439.62000
14.43130	426.86000
14.44150	426.45000
14.45160	422.81000
14.46180	420.11000
14.47190	417.28000
14.48210	414.91000
14.49220	411.52000
14.50240	412.27000
14.51250	406.03000
14.52270	406.27000
14.53280	406.30000
14.54300	407.16000
14.55310	407.88000
14.56330	407.23000
14.57340	408.11000
14.58360	404.89000
14.59370	400.94000
14.60390	407.48000
14.61400	404.53000
14.62420	402.50000
14.63430	403.58000
14.64450	407.05000
14.65460	406.03000
14.66480	403.94000
14.67490	401.98000
14.68510	397.91000
14.69520	403.45000
14.70540	401.45000
14.71550	401.34000
14.72570	402.83000
14.73580	399.02000
14.74600	401.03000
14.75610	406.55000
14.76630	397.59000
14.77640	405.31000
14.78660	401.09000
14.79670	404.09000
14.80690	404.33000
14.81700	403.75000
14.82720	410.56000
14.83730	402.33000
14.84750	406.64000
14.85760	411.09000
14.86780	408.12000
14.87790	407.94000
14.88810	410.25000
14.89820	411.03000
14.90840	410.59000
14.91850	413.97000
14.92870	415.14000
14.93880	411.34000
14.94900	412.59000
14.95910	408.02000
14.96930	408.12000
14.97940	409.78000
14.98960	413.02000
14.99970	414.58000
15.00990	416.08000
15.02000	420.75000
15.03020	422.30000
15.04030	431.16000
15.05050	436.03000
15.06060	438.17000
15.07080	452.11000
15.08090	459.17000
15.09110	466.25000
15.10120	472.56000
15.11140	482.95000
15.12150	489.34000
15.13170	492.78000
15.14180	487.31000
15.15200	485.95000
15.16210	476.56000
15.17230	460.25000
15.18240	449.53000
15.19260	428.77000
15.20270	423.58000
15.21290	415.44000
15.22300	413.86000
15.23320	408.02000
15.24330	405.56000
15.25350	398.11000
15.26360	402.61000
15.27380	398.95000
15.28390	395.94000
15.29410	394.55000
15.30420	396.86000
15.31440	398.55000
15.32450	394.95000
15.33470	396.83000
15.34480	397.84000
15.35500	391.61000
15.36510	397.12000
15.37530	396.55000
15.38540	386.53000
15.39560	393.47000
15.40570	395.42000
15.41590	390.84000
15.42600	396.22000
15.43620	390.67000
15.44630	392.55000
15.45650	396.95000
15.46660	391.97000
15.47680	388.39000
15.48690	395.52000
15.49710	391.69000
15.50720	393.19000
15.51740	393.52000
15.52750	395.64000
15.53770	389.17000
15.54780	389.48000
15.55800	385.72000
15.56810	399.27000
15.57830	391.62000
15.58840	398.14000
15.59860	399.73000
15.60870	389.78000
15.61890	392.28000
15.62900	392.03000
15.63920	394.97000
15.64930	393.11000
15.65950	396.09000
15.66960	393.36000
15.67980	389.38000
15.68990	391.39000
15.70010	390.11000
15.71020	390.36000
15.72040	392.69000
15.73050	393.33000
15.74070	395.72000
15.75080	387.09000
15.76100	392.42000
15.77110	400.11000
15.78130	398.47000
15.79140	397.11000
15.80160	399.95000
15.81170	400.72000
15.82190	405.12000
15.83200	405.61000
15.84220	413.72000
15.85230	414.33000
15.86250	421.41000
15.87260	428.33000
15.88280	430.13000
15.89290	439.36000
15.90310	445.31000
15.91320	463.75000
15.92340	472.69000
15.93350	492.11000
15.94370	514.09000
15.95380	548.38000
15.96400	578.52000
15.97410	612.05000
15.98430	647.09000
15.99440	673.89000
16.00460	687.36000
16.01470	670.59000
16.02490	651.92000
16.03500	619.39000
16.04520	585.34000
16.05530	554.86000
16.06550	522.12000
16.07560	497.31000
16.08580	482.31000
16.09590	475.31000
16.10610	472.23000
16.11620	484.59000
16.12640	490.41000
16.13650	509.78000
16.14670	531.00000
16.15680	561.45000
16.16700	590.34000
16.17710	613.14000
16.18730	617.95000
16.19740	619.27000
16.20760	609.02000
16.21770	578.28000
16.22790	553.64000
16.23800	521.47000
16.24820	492.34000
16.25830	472.78000
16.26850	446.16000
16.27860	434.66000
16.28880	421.41000
16.29890	417.94000
16.30910	409.73000
16.31920	405.59000
16.32940	402.55000
16.33950	406.08000
16.34970	402.62000
16.35980	400.23000
16.37000	404.39000
16.38010	402.62000
16.39030	407.19000
16.40040	405.67000
16.41060	400.89000
16.42070	405.00000
16.43090	407.05000
16.44100	409.23000
16.45120	411.73000
16.46130	413.58000
16.47150	417.84000
16.48160	425.22000
16.49180	426.73000
16.50190	438.62000
16.51210	445.12000
16.52220	457.69000
16.53240	477.00000
16.54250	495.22000
16.55270	512.64000
16.56280	543.02000
16.57300	584.67000
16.58310	629.16000
16.59330	696.22000
16.60340	760.77000
16.61360	845.66000
16.62370	977.73000
16.63390	1112.08000
16.64400	1275.70000
16.65420	1504.61000
16.66430	1721.30000
16.67450	1907.06000
16.68460	2053.67000
16.69480	2034.06000
16.70490	1920.16000
16.71510	1740.42000
16.72520	1524.86000
16.73540	1315.77000
16.74550	1091.61000
16.75570	895.19000
16.76580	730.92000
16.77600	606.39000
16.78610	541.53000
16.79630	493.11000
16.80640	460.81000
16.81660	447.34000
16.82670	434.64000
16.83690	431.70000
16.84700	422.67000
16.85720	418.69000
16.86730	409.88000
16.87750	409.08000
16.88760	405.17000
16.89780	407.20000
16.90790	404.83000
16.91810	403.39000
16.92820	404.89000
16.93840	402.84000
16.94850	403.67000
16.95870	403.94000
16.96880	404.73000
16.97900	402.97000
16.98910	401.36000
16.99930	405.20000
17.00940	402.28000
17.01960	400.95000
17.02970	404.47000
17.03990	403.47000
17.05000	404.66000
17.06020	401.66000
17.07030	401.81000
17.08050	404.81000
17.09060	405.17000
17.10080	410.30000
17.11090	407.58000
17.12110	407.89000
17.13120	411.22000
17.14140	413.56000
17.15150	407.39000
17.16170	406.31000
17.17180	404.64000
17.18200	406.02000
17.19210	406.69000
17.20230	400.94000
17.21240	401.73000
17.22260	399.59000
17.23270	400.25000
17.24290	395.58000
17.25300	402.45000
17.26320	403.08000
17.27330	401.97000
17.28350	402.52000
17.29360	406.67000
17.30380	406.23000
17.31390	405.81000
17.32410	406.70000
17.33420	407.42000
17.34440	411.94000
17.35450	412.05000
17.36470	417.44000
17.37480	425.03000
17.38500	426.06000
17.39510	437.23000
17.40530	446.39000
17.41540	462.45000
17.42560	476.78000
17.43570	495.95000
17.44590	526.62000
17.45600	566.17000
17.46620	609.52000
17.47630	675.31000
17.48650	749.64000
17.49660	834.80000
17.50680	970.59000
17.51690	1134.02000
17.52710	1306.06000
17.53720	1572.02000
17.54740	1822.78000
17.55750	2065.30000
17.56770	2289.23000
17.57780	2418.53000
17.58800	2439.25000
17.59810	2359.25000
17.60830	2182.05000
17.61840	1935.42000
17.62860	1646.50000
17.63870	1390.50000
17.64890	1158.47000
17.65900	937.02000
17.66920	778.42000
17.67930	647.70000
17.68950	553.31000
17.69960	501.69000
17.70980	470.97000
17.71990	450.23000
17.73010	440.62000
17.74020	430.08000
17.75040	425.67000
17.76050	423.70000
17.77070	418.14000
17.78080	411.30000
17.79100	413.75000
17.80110	406.73000
17.81130	407.12000
17.82140	408.52000
17.83160	399.80000
17.84170	402.08000
17.85190	403.39000
17.86200	398.19000
17.87220	398.44000
17.88230	396.66000
17.89250	397.73000
17.90260	394.42000
17.91280	402.67000
17.92290	398.95000
17.93310	397.12000
17.94320	394.34000
17.95340	395.75000
17.96350	395.17000
17.97370	398.52000
17.98380	394.17000
17.99400	394.48000
18.00410	395.38000
18.01430	395.59000
18.02440	394.52000
18.03460	395.66000
18.04470	390.86000
18.05490	396.31000
18.06500	400.38000
18.07520	397.50000
18.08530	393.36000
18.09550	393.92000
18.10560	397.31000
18.11580	393.89000
18.12590	390.78000
18.13610	388.12000
18.14620	393.55000
18.15640	391.78000
18.16650	385.45000
18.17670	384.80000
18.18680	390.08000
18.19700	389.98000
18.20710	384.80000
18.21730	393.22000
18.22740	389.05000
18.23760	392.97000
18.24770	396.09000
18.25790	393.39000
18.26800	397.84000
18.27820	399.59000
18.28830	405.33000
18.29850	404.36000
18.30860	413.61000
18.31880	418.81000
18.32890	426.48000
18.33910	437.58000
18.34920	456.98000
18.35940	479.56000
18.36960	504.27000
18.37970	531.84000
18.38990	573.19000
18.40000	620.06000
18.41020	680.13000
18.42030	748.86000
18.43050	823.45000
18.44060	879.44000
18.45080	911.20000
18.46090	924.67000
18.47110	886.61000
18.48120	825.30000
18.49140	768.45000
18.50150	706.66000
18.51170	643.12000
18.52180	583.42000
18.53190	532.16000
18.54210	486.92000
18.55220	454.33000
18.56240	429.86000
18.57250	418.55000
18.58270	407.09000
18.59280	403.06000
18.60300	402.14000
18.61320	396.77000
18.62330	391.09000
18.63350	394.06000
18.64360	389.38000
18.65380	386.64000
18.66390	391.39000
18.67410	387.06000
18.68420	387.39000
18.69440	391.02000
18.70450	391.25000
18.71470	383.03000
18.72480	385.23000
18.73500	386.62000
18.74510	388.11000
18.75530	385.95000
18.76540	383.69000
18.77560	384.20000
18.78570	383.84000
18.79590	383.20000
18.80600	384.44000
18.81620	381.19000
18.82630	384.97000
18.83650	382.55000
18.84660	384.89000
18.85680	386.38000
18.86690	382.25000
18.87710	386.72000
18.88720	387.50000
18.89740	384.20000
18.90750	385.67000
18.91770	388.34000
18.92780	384.38000
18.93800	391.61000
18.94810	391.27000
18.95830	388.73000
18.96840	394.38000
18.97860	393.22000
18.98870	397.30000
18.99890	396.75000
19.00900	394.59000
19.01920	398.31000
19.02930	398.61000
19.03950	404.03000
19.04960	401.36000
19.05980	404.48000
19.06990	413.39000
19.08010	411.69000
19.09020	421.19000
19.10040	440.02000
19.11050	440.77000
19.12070	462.09000
19.13080	478.45000
19.14100	495.69000
19.15110	511.61000
19.16130	516.30000
19.17140	517.05000
19.18160	510.48000
19.19170	499.27000
19.20190	484.42000
19.21200	471.33000
19.22220	459.92000
19.23230	445.86000
19.24250	426.98000
19.25260	412.95000
19.26280	403.38000
19.27290	391.88000
19.28310	391.06000
19.29320	389.86000
19.30340	388.59000
19.31350	388.22000
19.32370	384.52000
19.33380	387.61000
19.34400	382.88000
19.35410	389.19000
19.36430	386.34000
19.37440	382.69000
19.38460	384.70000
19.39470	387.50000
19.40490	388.28000
19.41500	382.12000
19.42520	384.28000
19.43530	382.72000
19.44550	384.41000
19.45560	383.22000
19.46580	378.20000
19.47590	382.83000
19.48610	381.12000
19.49620	383.23000
19.50640	382.55000
19.51650	382.66000
19.52670	379.03000
19.53680	377.14000
19.54700	374.53000
19.55710	380.80000
19.56730	378.61000
19.57740	376.23000
19.58760	375.80000
19.59770	376.75000
19.60790	375.98000
19.61800	379.33000
19.62820	378.62000
19.63830	378.41000
19.64850	375.42000
19.65860	380.31000
19.66880	378.41000
19.67890	378.42000
19.68910	380.83000
19.69920	382.91000
19.70940	378.34000
19.71950	387.39000
19.72970	383.97000
19.73980	391.25000
19.75000	393.27000
19.76010	393.62000
19.77030	404.70000
19.78040	407.56000
19.79060	410.72000
19.80070	419.16000
19.81090	423.62000
19.82100	422.19000
19.83120	423.23000
19.84130	414.84000
19.85150	416.97000
19.86160	414.47000
19.87180	404.94000
19.88190	398.12000
19.89210	394.64000
19.90220	392.89000
19.91240	389.59000
19.92250	384.23000
19.93270	385.66000
19.94280	381.83000
19.95300	381.67000
19.96310	381.16000
19.97330	374.81000
19.98340	381.88000
19.99360	379.06000
20.00370	381.77000
20.01390	379.11000
20.02400	379.36000
20.03420	380.34000
20.04430	379.80000
20.05450	378.05000
20.06460	381.27000
20.07480	383.33000
20.08490	379.67000
20.09510	381.53000
20.10520	378.16000
20.11540	376.16000
20.12550	383.27000
20.13570	380.20000
20.14580	383.50000
20.15600	381.86000
20.16610	382.70000
20.17630	381.80000
20.18640	383.77000
20.19660	386.83000
20.20670	387.86000
20.21690	391.83000
20.22700	389.53000
20.23720	388.53000
20.24730	394.97000
20.25750	404.31000
20.26760	403.05000
20.27780	411.52000
20.28790	420.70000
20.29810	432.34000
20.30820	450.48000
20.31840	460.81000
20.32850	485.30000
20.33870	517.98000
20.34880	560.66000
20.35900	603.27000
20.36910	666.38000
20.37930	742.19000
20.38940	829.27000
20.39960	936.61000
20.40970	1035.56000
20.41990	1115.20000
20.43000	1171.02000
20.44020	1163.28000
20.45030	1122.16000
20.46050	1054.84000
20.47060	978.41000
20.48080	891.53000
20.49090	814.44000
20.50110	732.16000
20.51120	647.55000
20.52140	576.95000
20.53150	521.73000
20.54170	477.91000
20.55180	446.89000
20.56200	430.16000
20.57210	413.11000
20.58230	406.27000
20.59240	400.47000
20.60260	395.61000
20.61270	397.92000
20.62290	389.66000
20.63300	385.39000
20.64320	386.02000
20.65330	386.58000
20.66350	383.06000
20.67360	383.61000
20.68380	382.50000
20.69390	381.19000
20.70410	379.70000
20.71420	384.30000
20.72440	380.09000
20.73450	380.11000
20.74470	377.00000
20.75480	374.25000
20.76500	376.27000
20.77510	380.55000
20.78530	372.78000
20.79540	374.81000
20.80560	376.19000
20.81570	375.12000
20.82590	377.16000
20.83600	374.42000
20.84620	377.84000
20.85630	375.92000
20.86650	374.89000
20.87660	373.88000
20.88680	370.33000
20.89690	378.67000
20.90710	373.00000
20.91720	372.27000
20.92740	372.03000
20.93750	372.00000
20.94770	374.45000
20.95780	372.31000
20.96800	372.50000
20.97810	376.47000
20.98830	374.56000
20.99840	370.39000
21.00860	371.81000
21.01870	374.05000
21.02890	372.08000
21.03900	373.62000
21.04920	372.42000
21.05930	374.73000
21.06950	370.73000
21.07960	375.45000
21.08980	371.77000
21.09990	372.50000
21.11010	377.17000
21.12020	376.31000
21.13040	371.98000
21.14050	370.66000
21.15070	374.25000
21.16080	373.02000
21.17100	372.53000
21.18110	374.06000
21.19130	371.09000
21.20140	371.11000
21.21160	373.20000
21.22170	370.05000
21.23190	370.89000
21.24200	374.02000
21.25220	374.00000
21.26230	370.25000
21.27250	369.86000
21.28260	373.52000
21.29280	373.20000
21.30290	375.50000
21.31310	381.09000
21.32320	377.41000
21.33340	381.86000
21.34350	383.73000
21.35370	383.48000
21.36380	384.55000
21.37400	390.17000
21.38410	395.91000
21.39430	399.89000
21.40440	412.06000
21.41460	422.61000
21.42470	432.06000
21.43490	443.44000
21.44500	458.95000
21.45520	460.95000
21.46530	460.63000
21.47550	468.17000
21.48560	464.80000
21.49580	455.94000
21.50590	452.14000
21.51610	450.64000
21.52620	446.86000
21.53640	453.78000
21.54650	453.08000
21.55670	465.86000
21.56680	477.42000
21.57700	492.81000
21.58710	514.20000
21.59730	530.56000
21.60740	552.38000
21.61760	549.66000
21.62770	551.38000
21.63790	537.73000
21.64800	518.02000
21.65820	504.84000
21.66830	483.97000
21.67850	459.70000
21.68860	446.55000
21.69880	432.00000
21.70890	414.75000
21.71910	405.17000
21.72920	395.53000
21.73940	389.17000
21.74950	384.27000
21.75970	378.22000
21.76980	381.41000
21.78000	374.72000
21.79010	378.84000
21.80030	377.67000
21.81040	376.77000
21.82060	377.66000
21.83070	379.95000
21.84090	377.95000
21.85100	375.64000
21.86120	376.59000
21.87130	380.80000
21.88150	379.84000
21.89160	381.19000
21.90180	384.34000
21.91190	387.48000
21.92210	387.48000
21.93220	384.70000
21.94240	387.39000
21.95250	386.94000
21.96270	391.92000
21.97280	391.59000
21.98300	397.20000
21.99310	402.41000
22.00330	405.72000
22.01340	420.62000
22.02360	435.92000
22.03370	450.77000
22.04390	473.78000
22.05400	502.31000
22.06420	533.56000
22.07430	593.92000
22.08450	650.34000
22.09460	693.59000
22.10480	764.20000
22.11490	807.17000
22.12510	814.77000
22.13520	801.94000
22.14540	780.77000
22.15550	730.62000
22.16570	693.75000
22.17580	643.70000
22.18600	601.33000
22.19610	559.44000
22.20630	513.50000
22.21640	475.89000
22.22660	438.23000
22.23670	418.94000
22.24690	401.86000
22.25700	393.56000
22.26720	386.53000
22.27730	382.50000
22.28750	375.05000
22.29760	376.97000
22.30780	373.55000
22.31790	373.09000
22.32810	370.05000
22.33820	370.31000
22.34840	367.78000
22.35850	369.64000
22.36870	369.92000
22.37880	364.69000
22.38900	368.28000
22.39910	370.89000
22.40930	369.55000
22.41940	370.66000
22.42960	368.77000
22.43970	368.48000
22.44990	367.02000
22.46000	368.89000
22.47020	366.84000
22.48030	372.39000
22.49050	366.25000
22.50060	371.95000
22.51080	368.36000
22.52090	366.86000
22.53110	371.73000
22.54120	374.14000
22.55140	380.06000
22.56150	378.62000
22.57170	384.31000
22.58180	390.25000
22.59200	402.27000
22.60210	411.91000
22.61230	423.38000
22.62240	439.70000
22.63260	457.84000
22.64270	474.70000
22.65290	490.94000
22.66300	507.81000
22.67320	508.95000
22.68330	510.06000
22.69350	498.56000
22.70360	485.84000
22.71380	473.14000
22.72390	465.06000
22.73410	451.36000
22.74420	431.98000
22.75440	422.36000
22.76450	407.34000
22.77470	393.39000
22.78480	386.03000
22.79500	375.22000
22.80510	371.92000
22.81530	367.47000
22.82540	368.34000
22.83560	364.16000
22.84570	359.22000
22.85590	360.56000
22.86600	359.48000
22.87620	363.03000
22.88630	357.58000
22.89650	361.97000
22.90660	361.47000
22.91680	358.62000
22.92690	356.84000
22.93710	361.25000
22.94720	359.33000
22.95740	362.98000
22.96750	359.12000
22.97770	358.33000
22.98780	359.09000
22.99800	361.89000
23.00810	351.16000
23.01830	356.88000
23.02840	353.98000
23.03860	354.30000
23.04870	353.33000
23.05890	356.27000
23.06900	351.66000
23.07920	355.03000
23.08930	357.14000
23.09950	360.36000
23.10960	354.75000
23.11980	354.03000
23.12990	355.72000
23.14010	354.83000
23.15020	353.55000
23.16040	356.70000
23.17050	350.98000
23.18070	358.39000
23.19080	356.86000
23.20100	353.56000
23.21110	351.78000
23.22130	350.36000
23.23140	349.95000
23.24160	353.38000
23.25170	352.62000
23.26190	352.14000
23.27200	350.80000
23.28220	350.20000
23.29230	350.52000
23.30250	353.47000
23.31260	353.11000
23.32280	351.28000
23.33290	351.16000
23.34310	354.69000
23.35320	351.80000
23.36340	356.14000
23.37350	354.61000
23.38370	355.05000
23.39380	357.45000
23.40400	355.59000
23.41410	353.30000
23.42430	357.66000
23.43440	351.33000
23.44460	353.16000
23.45470	357.00000
23.46490	357.17000
23.47500	355.39000
23.48520	352.39000
23.49530	354.05000
23.50550	351.55000
23.51560	353.08000
23.52580	352.28000
23.53590	351.95000
23.54610	354.42000
23.55620	352.78000
23.56640	352.97000
23.57650	355.56000
23.58670	357.44000
23.59680	353.95000
23.60700	359.61000
23.61710	359.45000
23.62730	360.50000
23.63740	371.58000
23.64760	368.98000
23.65770	374.55000
23.66790	384.88000
23.67800	392.62000
23.68820	406.34000
23.69830	426.16000
23.70850	435.50000
23.71860	462.88000
23.72880	483.86000
23.73890	499.39000
23.74910	506.39000
23.75920	498.86000
23.76940	494.77000
23.77950	488.34000
23.78970	479.39000
23.79980	464.66000
23.81000	456.78000
23.82010	444.97000
23.83030	426.61000
23.84040	413.67000
23.85060	400.09000
23.86070	387.27000
23.87090	377.17000
23.88100	371.53000
23.89120	372.48000
23.90130	363.48000
23.91150	363.95000
23.92160	358.16000
23.93180	354.62000
23.94190	360.39000
23.95210	356.53000
23.96220	354.19000
23.97240	358.86000
23.98250	357.50000
23.99270	353.89000
24.00280	363.58000
24.01300	364.55000
24.02310	367.69000
24.03330	370.70000
24.04340	375.55000
24.05360	385.25000
24.06370	392.36000
24.07390	405.16000
24.08400	421.11000
24.09420	441.78000
24.10430	466.34000
24.11450	491.38000
24.12460	521.30000
24.13480	542.14000
24.14490	564.14000
24.15510	563.64000
24.16520	553.95000
24.17540	541.33000
24.18550	521.02000
24.19570	510.41000
24.20580	488.56000
24.21600	475.69000
24.22610	453.70000
24.23630	430.36000
24.24640	411.31000
24.25660	391.86000
24.26670	381.52000
24.27690	366.25000
24.28700	363.61000
24.29720	356.69000
24.30730	354.47000
24.31750	348.84000
24.32760	346.28000
24.33780	350.97000
24.34790	348.02000
24.35810	348.75000
24.36820	348.38000
24.37840	347.75000
24.38850	345.45000
24.39870	343.80000
24.40880	341.17000
24.41900	344.30000
24.42910	341.72000
24.43930	342.52000
24.44940	343.33000
24.45960	344.12000
24.46970	341.30000
24.47990	343.17000
24.49000	344.95000
24.50020	343.62000
24.51030	343.77000
24.52050	342.45000
24.53060	340.12000
24.54080	339.31000
24.55090	344.09000
24.56110	343.28000
24.57120	344.34000
24.58140	338.52000
24.59150	340.52000
24.60170	346.23000
24.61180	343.59000
24.62200	343.22000
24.63210	345.80000
24.64230	344.67000
24.65240	347.97000
24.66260	347.94000
24.67270	348.30000
24.68290	350.36000
24.69300	351.94000
24.70320	359.02000
24.71330	360.16000
24.72350	368.39000
24.73360	372.12000
24.74380	379.05000
24.75390	393.62000
24.76410	406.64000
24.77420	416.95000
24.78440	443.36000
24.79450	474.23000
24.80470	499.03000
24.81480	541.56000
24.82500	594.81000
24.83510	630.64000
24.84530	684.47000
24.85540	717.67000
24.86560	747.97000
24.87570	767.09000
24.88590	767.11000
24.89600	747.55000
24.90620	711.08000
24.91630	684.19000
24.92650	653.06000
24.93660	616.27000
24.94680	579.73000
24.95690	539.97000
24.96710	504.05000
24.97720	471.95000
24.98740	440.12000
24.99750	418.42000
25.00770	399.45000
25.01780	385.47000
25.02800	373.92000
25.03810	367.38000
25.04830	359.17000
25.05840	354.22000
25.06860	356.73000
25.07870	353.44000
25.08890	349.41000
25.09900	348.77000
25.10920	352.61000
25.11930	346.95000
25.12950	348.88000
25.13960	346.48000
25.14980	346.30000
25.15990	351.53000
25.17010	351.58000
25.18020	355.23000
25.19040	353.56000
25.20050	358.86000
25.21070	367.42000
25.22080	374.80000
25.23100	378.02000
25.24110	392.94000
25.25130	405.20000
25.26140	414.91000
25.27160	442.69000
25.28170	450.66000
25.29190	467.42000
25.30200	477.50000
25.31220	485.34000
25.32230	480.17000
25.33250	469.41000
25.34260	462.73000
25.35280	455.50000
25.36290	440.83000
25.37310	428.16000
25.38320	413.45000
25.39340	407.77000
25.40350	390.34000
25.41370	378.86000
25.42380	367.08000
25.43400	362.17000
25.44410	352.06000
25.45430	348.22000
25.46440	345.77000
25.47460	340.70000
25.48470	337.86000
25.49490	338.66000
25.50500	341.11000
25.51520	337.55000
25.52530	339.28000
25.53550	334.08000
25.54560	336.50000
25.55580	337.81000
25.56590	333.78000
25.57610	333.95000
25.58620	334.70000
25.59640	333.38000
25.60650	336.72000
25.61670	329.38000
25.62680	331.33000
25.63700	330.38000
25.64710	334.53000
25.65730	333.55000
25.66740	339.50000
25.67760	337.50000
25.68770	336.67000
25.69790	336.31000
25.70800	341.31000
25.71820	346.97000
25.72830	343.97000
25.73850	348.50000
25.74860	350.89000
25.75880	360.61000
25.76890	365.97000
25.77910	372.27000
25.78920	389.88000
25.79940	400.84000
25.80950	416.30000
25.81970	441.50000
25.82980	471.58000
25.84000	495.23000
25.85010	531.78000
25.86030	565.25000
25.87040	580.72000
25.88060	595.66000
25.89070	589.27000
25.90090	572.41000
25.91100	557.28000
25.92120	544.13000
25.93130	521.11000
25.94150	506.25000
25.95160	487.11000
25.96180	464.69000
25.97190	440.58000
25.98210	423.59000
25.99220	406.62000
26.00240	391.73000
26.01250	383.83000
26.02270	384.91000
26.03280	372.69000
26.04300	380.50000
26.05310	383.28000
26.06330	395.73000
26.07340	397.61000
26.08360	399.88000
26.09370	399.47000
26.10390	396.42000
26.11400	388.55000
26.12420	378.72000
26.13430	373.30000
26.14450	371.25000
26.15460	369.44000
26.16480	362.22000
26.17490	353.78000
26.18510	353.75000
26.19520	349.02000
26.20540	348.66000
26.21550	344.59000
26.22570	350.14000
26.23580	349.77000
26.24600	361.02000
26.25610	365.55000
26.26630	364.55000
26.27640	363.83000
26.28660	365.09000
26.29670	359.73000
26.30690	353.98000
26.31700	352.91000
26.32720	349.80000
26.33730	341.44000
26.34750	340.78000
26.35760	336.78000
26.36780	333.58000
26.37790	335.39000
26.38810	323.12000
26.39820	327.41000
26.40840	323.33000
26.41850	321.66000
26.42870	317.45000
26.43880	318.03000
26.44900	319.16000
26.45910	321.34000
26.46930	316.70000
26.47940	318.56000
26.48960	320.55000
26.49970	317.88000
26.50990	316.09000
26.52000	322.00000
26.53020	315.39000
26.54030	316.42000
26.55050	312.27000
26.56060	316.75000
26.57080	318.39000
26.58090	317.36000
26.59110	319.92000
26.60120	318.88000
26.61140	314.06000
26.62150	314.58000
26.63170	316.92000
26.64180	317.75000
26.65200	316.39000
26.66210	316.62000
26.67230	317.25000
26.68240	315.53000
26.69260	318.88000
26.70270	319.00000
26.71290	321.14000
26.72300	313.91000
26.73320	316.66000
26.74330	318.78000
26.75350	318.03000
26.76360	317.81000
26.77380	315.05000
26.78390	319.66000
26.79410	315.89000
26.80420	315.45000
26.81440	314.36000
26.82450	318.30000
26.83470	315.45000
26.84480	310.89000
26.85500	309.62000
26.86510	314.73000
26.87530	311.58000
26.88540	310.50000
26.89560	314.44000
26.90570	310.53000
26.91590	313.61000
26.92600	313.86000
26.93620	314.81000
26.94630	315.55000
26.95650	316.17000
26.96660	314.78000
26.97680	317.50000
26.98690	311.03000
26.99710	316.48000
27.00720	313.17000
27.01740	317.81000
27.02750	314.88000
27.03770	311.97000
27.04780	313.67000
27.05800	313.20000
27.06810	314.17000
27.07830	316.34000
27.08840	311.92000
27.09860	310.66000
27.10870	315.70000
27.11890	313.17000
27.12900	312.06000
27.13920	307.94000
27.14930	312.62000
27.15950	313.83000
27.16960	313.56000
27.17980	310.31000
27.18990	316.11000
27.20010	312.59000
27.21020	313.78000
27.22040	316.28000
27.23050	311.61000
27.24070	312.66000
27.25080	315.11000
27.26100	315.66000
27.27110	314.53000
27.28130	318.97000
27.29140	319.02000
27.30160	320.19000
27.31170	327.64000
27.32190	327.27000
27.33200	332.02000
27.34220	339.41000
27.35230	340.58000
27.36250	343.61000
27.37260	344.41000
27.38280	341.83000
27.39290	339.19000
27.40310	339.11000
27.41320	333.31000
27.42340	333.09000
27.43350	334.02000
27.44370	332.56000
27.45380	325.34000
27.46400	324.81000
27.47410	321.72000
27.48430	319.09000
27.49440	316.39000
27.50460	314.56000
27.51470	309.22000
27.52490	312.94000
27.53500	311.84000
27.54520	308.95000
27.55530	309.00000
27.56550	313.97000
27.57560	311.52000
27.58580	314.34000
27.59590	312.14000
27.60610	308.36000
27.61620	309.58000
27.62640	310.88000
27.63650	314.11000
27.64670	311.48000
27.65680	309.69000
27.66700	310.48000
27.67710	308.75000
27.68730	309.94000
27.69740	308.91000
27.70760	307.31000
27.71770	309.33000
27.72790	307.41000
27.73800	310.53000
27.74820	310.34000
27.75830	312.41000
27.76850	308.11000
27.77860	310.31000
27.78880	310.08000
27.79890	308.12000
27.80910	308.78000
27.81920	304.56000
27.82940	309.27000
27.83950	307.22000
27.84970	307.66000
27.85980	309.48000
27.87000	306.03000
27.88010	308.11000
27.89030	309.97000
27.90040	306.20000
27.91060	308.70000
27.92070	311.55000
27.93090	308.88000
27.94100	312.72000
27.95120	308.61000
27.96130	305.17000
27.97150	311.38000
27.98160	310.41000
27.99180	311.70000
28.00190	312.08000
28.01210	317.05000
28.02220	318.78000
28.03240	320.78000
28.04250	322.00000
28.05270	326.91000
28.06280	326.97000
28.07300	326.67000
28.08310	325.69000
28.09330	323.09000
28.10340	318.33000
28.11360	316.69000
28.12370	319.41000
28.13390	316.94000
28.14400	318.89000
28.15420	312.41000
28.16430	313.14000
28.17450	309.30000
28.18460	311.09000
28.19480	308.12000
28.20490	305.03000
28.21510	309.23000
28.22520	302.70000
28.23540	306.53000
28.24550	307.69000
28.25570	307.00000
28.26580	306.64000
28.27600	301.91000
28.28610	304.00000
28.29630	304.56000
28.30640	304.22000
28.31660	308.03000
28.32670	308.09000
28.33690	309.11000
28.34700	308.31000
28.35720	306.33000
28.36730	305.45000
28.37750	302.73000
28.38760	307.39000
28.39780	306.67000
28.40790	308.30000
28.41810	309.58000
28.42820	315.88000
28.43840	313.55000
28.44850	313.09000
28.45870	312.80000
28.46880	318.86000
28.47900	322.75000
28.48910	321.41000
28.49930	320.27000
28.50940	319.16000
28.51960	316.91000
28.52970	316.38000
28.53990	315.09000
28.55000	314.06000
28.56020	310.53000
28.57030	315.23000
28.58050	313.62000
28.59060	313.78000
28.60080	309.30000
28.61090	310.19000
28.62110	312.08000
28.63120	307.95000
28.64140	308.02000
28.65150	315.03000
28.66170	314.58000
28.67180	318.09000
28.68200	321.73000
28.69210	322.09000
28.70230	327.09000
28.71240	331.22000
28.72260	340.69000
28.73270	339.64000
28.74290	346.55000
28.75300	353.38000
28.76320	352.83000
28.77330	360.33000
28.78350	365.28000
28.79360	372.81000
28.80380	376.98000
28.81390	381.81000
28.82410	384.67000
28.83420	393.58000
28.84440	396.58000
28.85450	397.70000
28.86470	399.81000
28.87480	392.58000
28.88500	383.56000
28.89510	379.56000
28.90530	367.78000
28.91540	361.89000
28.92560	358.56000
28.93570	351.27000
28.94590	347.19000
28.95600	337.55000
28.96620	328.86000
28.97630	326.91000
28.98650	319.27000
28.99660	320.83000
29.00680	312.81000
29.01690	316.05000
29.02710	310.48000
29.03720	309.88000
29.04740	312.20000
29.05750	309.41000
29.06770	311.73000
29.07780	311.28000
29.08800	315.52000
29.09810	311.81000
29.10830	316.73000
29.11840	320.48000
29.12860	317.31000
29.13870	322.00000
29.14890	329.59000
29.15900	328.86000
29.16920	330.16000
29.17930	326.45000
29.18950	325.95000
29.19960	322.67000
29.20980	326.27000
29.21990	319.70000
29.23010	316.22000
29.24020	320.86000
29.25040	318.91000
29.26050	310.83000
29.27070	312.22000
29.28080	305.59000
29.29100	309.42000
29.30110	310.89000
29.31130	306.19000
29.32140	310.31000
29.33160	309.72000
29.34170	305.94000
29.35190	307.83000
29.36200	305.94000
29.37220	309.48000
29.38230	309.81000
29.39250	313.17000
29.40260	309.73000
29.41280	308.89000
29.42290	314.28000
29.43310	312.88000
29.44320	314.62000
29.45340	316.66000
29.46350	321.34000
29.47370	322.50000
29.48380	327.27000
29.49400	336.06000
29.50410	344.69000
29.51430	361.52000
29.52440	366.94000
29.53460	391.36000
29.54470	411.70000
29.55490	444.72000
29.56500	484.81000
29.57520	523.94000
29.58530	565.58000
29.59550	609.66000
29.60560	642.94000
29.61580	658.56000
29.62590	663.28000
29.63610	650.17000
29.64620	630.55000
29.65640	612.86000
29.66650	601.06000
29.67670	591.39000
29.68680	576.23000
29.69700	564.00000
29.70710	540.94000
29.71730	511.77000
29.72740	483.45000
29.73760	456.75000
29.74770	437.39000
29.75790	414.78000
29.76800	403.86000
29.77820	390.16000
29.78830	378.28000
29.79850	365.50000
29.80860	356.16000
29.81880	349.73000
29.82890	338.20000
29.83910	331.66000
29.84920	330.41000
29.85940	324.73000
29.86950	321.23000
29.87970	317.03000
29.88980	311.94000
29.90000	312.64000
29.91010	308.55000
29.92030	306.44000
29.93040	306.97000
29.94060	307.98000
29.95070	307.25000
29.96090	303.89000
29.97100	307.81000
29.98120	303.97000
29.99130	304.28000
30.00150	305.16000
30.01160	301.14000
30.02180	301.81000
30.03190	303.61000
30.04210	301.80000
30.05220	303.41000
30.06240	307.23000
30.07250	303.08000
30.08270	306.08000
30.09280	305.47000
30.10300	305.11000
30.11310	308.09000
30.12330	313.11000
30.13340	313.61000
30.14360	318.89000
30.15370	319.84000
30.16390	323.88000
30.17400	332.45000
30.18420	342.89000
30.19430	350.03000
30.20450	367.80000
30.21460	372.27000
30.22480	382.72000
30.23490	388.38000
30.24510	396.25000
30.25520	387.52000
30.26540	386.92000
30.27550	380.55000
30.28570	376.98000
30.29580	373.16000
30.30600	362.22000
30.31610	359.38000
30.32630	355.08000
30.33640	348.03000
30.34660	345.28000
30.35670	332.00000
30.36690	329.72000
30.37700	319.36000
30.38720	317.45000
30.39730	312.97000
30.40750	310.28000
30.41760	311.83000
30.42780	305.09000
30.43790	308.81000
30.44810	310.69000
30.45820	309.58000
30.46840	309.88000
30.47850	313.02000
30.48870	305.66000
30.49880	309.05000
30.50900	312.58000
30.51910	313.94000
30.52930	316.08000
30.53940	313.50000
30.54960	319.70000
30.55970	314.97000
30.56990	314.78000
30.58000	312.62000
30.59020	310.36000
30.60030	310.47000
30.61050	310.47000
30.62060	307.25000
30.63080	308.72000
30.64090	307.73000
30.65110	307.59000
30.66120	304.95000
30.67140	306.97000
30.68150	303.20000
30.69170	309.33000
30.70180	305.83000
30.71200	311.91000
30.72210	316.16000
30.73230	318.19000
30.74240	326.95000
30.75260	335.16000
30.76270	340.61000
30.77290	351.31000
30.78300	360.95000
30.79320	368.38000
30.80330	379.16000
30.81350	386.41000
30.82360	385.44000
30.83380	379.41000
30.84390	380.88000
30.85410	379.83000
30.86420	368.03000
30.87440	366.03000
30.88450	362.72000
30.89470	355.91000
30.90480	348.91000
30.91500	346.02000
30.92510	333.41000
30.93530	331.09000
30.94540	321.39000
30.95560	316.22000
30.96570	311.80000
30.97590	307.00000
30.98600	305.73000
30.99620	301.53000
31.00630	299.97000
31.01650	300.56000
31.02660	296.16000
31.03680	299.61000
31.04690	296.98000
31.05710	295.88000
31.06720	296.61000
31.07740	296.44000
31.08750	296.64000
31.09770	294.50000
31.10780	291.91000
31.11800	296.39000
31.12810	294.50000
31.13830	293.11000
31.14840	289.89000
31.15860	294.08000
31.16870	292.28000
31.17890	293.72000
31.18900	290.12000
31.19920	294.62000
31.20930	294.28000
31.21950	294.45000
31.22960	292.61000
31.23980	291.41000
31.24990	291.38000
31.26010	295.88000
31.27020	288.81000
31.28040	297.03000
31.29050	293.97000
31.30070	293.72000
31.31080	296.72000
31.32100	292.91000
31.33110	296.58000
31.34130	293.84000
31.35140	294.80000
31.36160	296.73000
31.37170	297.56000
31.38190	294.27000
31.39200	297.39000
31.40220	299.91000
31.41230	300.97000
31.42250	305.98000
31.43260	309.73000
31.44280	312.97000
31.45290	315.91000
31.46310	326.33000
31.47320	326.77000
31.48340	343.33000
31.49350	353.00000
31.50370	360.59000
31.51380	373.67000
31.52400	379.16000
31.53410	386.34000
31.54430	382.95000
31.55440	376.27000
31.56460	365.59000
31.57470	364.11000
31.58490	358.77000
31.59500	356.00000
31.60520	354.41000
31.61530	342.94000
31.62550	341.73000
31.63560	329.80000
31.64580	329.20000
31.65590	321.34000
31.66610	318.72000
31.67620	315.41000
31.68640	311.09000
31.69650	310.92000
31.70670	306.38000
31.71680	309.73000
31.72700	310.58000
31.73710	305.92000
31.74730	304.81000
31.75740	308.94000
31.76760	311.23000
31.77770	307.41000
31.78790	319.36000
31.79800	324.00000
31.80820	330.12000
31.81830	332.11000
31.82850	347.14000
31.83860	364.08000
31.84880	369.62000
31.85890	378.59000
31.86910	379.64000
31.87920	387.38000
31.88940	384.89000
31.89950	376.27000
31.90970	367.05000
31.91980	362.72000
31.93000	360.84000
31.94010	358.41000
31.95030	354.56000
31.96040	351.36000
31.97060	346.97000
31.98070	343.12000
31.99090	332.83000
32.00100	329.06000
32.01120	322.20000
32.02130	319.83000
32.03150	314.30000
32.04160	310.64000
32.05180	308.48000
32.06190	307.73000
32.07210	305.48000
32.08220	306.92000
32.09240	304.94000
32.10250	301.55000
32.11270	303.62000
32.12280	302.80000
32.13300	298.17000
32.14320	297.03000
32.15330	298.19000
32.16340	299.03000
32.17360	296.89000
32.18380	296.47000
32.19390	291.89000
32.20400	291.91000
32.21420	293.31000
32.22430	295.09000
32.23450	296.44000
32.24460	297.25000
32.25480	296.23000
32.26490	294.05000
32.27510	296.72000
32.28520	302.09000
32.29540	303.17000
32.30550	304.69000
32.31570	310.31000
32.32580	304.81000
32.33600	306.62000
32.34610	309.94000
32.35630	305.52000
32.36640	308.61000
32.37660	304.88000
32.38670	307.23000
32.39690	302.75000
32.40710	300.91000
32.41720	299.00000
32.42730	302.11000
32.43750	302.94000
32.44770	297.17000
32.45780	296.80000
32.46790	298.95000
32.47810	297.12000
32.48830	290.97000
32.49840	296.75000
32.50850	291.38000
32.51870	291.95000
32.52890	294.70000
32.53900	292.73000
32.54910	295.53000
32.55930	301.20000
32.56950	292.45000
32.57960	296.92000
32.58970	296.97000
32.59990	301.95000
32.61010	306.17000
32.62020	307.89000
32.63040	307.86000
32.64050	317.02000
32.65070	319.53000
32.66080	333.14000
32.67100	344.00000
32.68110	358.56000
32.69120	371.25000
32.70140	396.36000
32.71160	406.73000
32.72170	419.69000
32.73180	437.22000
32.74200	445.81000
32.75220	444.27000
32.76230	437.81000
32.77240	428.09000
32.78260	416.47000
32.79280	400.77000
32.80290	398.41000
32.81300	388.28000
32.82320	385.67000
32.83340	371.02000
32.84350	363.17000
32.85360	348.59000
32.86380	338.45000
32.87400	332.17000
32.88410	322.14000
32.89430	312.78000
32.90440	307.73000
32.91460	307.95000
32.92470	300.36000
32.93490	300.22000
32.94500	297.73000
32.95520	299.03000
32.96530	294.67000
32.97550	296.36000
32.98560	293.83000
32.99580	293.16000
33.00590	297.53000
33.01610	296.42000
33.02620	292.91000
33.03640	301.36000
33.04650	298.30000
33.05670	299.64000
33.06680	300.73000
33.07700	299.08000
33.08710	301.45000
33.09730	298.58000
33.10740	300.23000
33.11760	294.59000
33.12770	298.33000
33.13790	298.97000
33.14800	294.50000
33.15820	295.88000
33.16830	297.42000
33.17850	294.30000
33.18860	293.59000
33.19880	292.81000
33.20890	290.25000
33.21910	295.19000
33.22920	291.16000
33.23940	290.88000
33.24950	289.28000
33.25970	289.38000
33.26980	287.12000
33.28000	283.69000
33.29010	290.73000
33.30030	287.83000
33.31040	285.03000
33.32060	290.56000
33.33070	286.30000
33.34090	287.17000
33.35100	288.11000
33.36120	290.69000
33.37130	284.28000
33.38150	288.47000
33.39160	285.34000
33.40180	285.81000
33.41190	290.48000
33.42210	286.86000
33.43220	288.42000
33.44240	289.53000
33.45250	291.11000
33.46270	291.53000
33.47280	291.83000
33.48300	292.36000
33.49310	293.75000
33.50330	293.50000
33.51340	296.16000
33.52360	302.53000
33.53370	299.22000
33.54390	302.50000
33.55400	305.05000
33.56420	310.81000
33.57430	313.08000
33.58450	314.86000
33.59460	314.59000
33.60480	320.73000
33.61490	322.41000
33.62510	322.28000
33.63520	321.97000
33.64540	326.70000
33.65550	326.94000
33.66570	331.06000
33.67580	338.70000
33.68600	343.45000
33.69610	347.39000
33.70630	359.48000
33.71640	369.83000
33.72660	377.28000
33.73670	392.00000
33.74690	398.20000
33.75700	398.17000
33.76720	389.14000
33.77730	382.91000
33.78750	374.28000
33.79760	363.16000
33.80780	361.95000
33.81790	351.61000
33.82810	352.09000
33.83820	348.23000
33.84840	346.66000
33.85850	334.19000
33.86870	329.69000
33.87880	320.50000
33.88900	313.95000
33.89910	304.81000
33.90930	298.05000
33.91940	297.34000
33.92960	291.31000
33.93970	293.17000
33.94990	289.09000
33.96000	291.95000
33.97020	291.39000
33.98030	290.62000
33.99050	289.50000
34.00060	289.00000
34.01080	289.58000
34.02090	288.05000
34.03110	286.31000
34.04120	284.56000
34.05140	288.12000
34.06150	282.25000
34.07170	286.02000
34.08180	284.66000
34.09200	287.94000
34.10210	289.66000
34.11230	289.98000
34.12240	288.84000
34.13260	293.22000
34.14270	290.42000
34.15290	291.77000
34.16300	295.50000
34.17320	290.31000
34.18330	293.77000
34.19350	295.59000
34.20360	295.81000
34.21380	299.11000
34.22390	303.83000
34.23410	309.25000
34.24420	316.91000
34.25440	328.42000
34.26450	344.77000
34.27470	362.16000
34.28480	385.80000
34.29500	402.36000
34.30510	423.31000
34.31530	427.77000
34.32540	424.47000
34.33560	415.58000
34.34570	393.38000
34.35590	381.44000
34.36600	367.78000
34.37620	370.52000
34.38630	371.19000
34.39650	368.38000
34.40660	361.72000
34.41680	360.70000
34.42690	345.80000
34.43710	331.58000
34.44720	324.70000
34.45740	308.30000
34.46750	304.30000
34.47770	300.22000
34.48780	295.45000
34.49800	294.16000
34.50810	289.53000
34.51830	289.77000
34.52840	287.55000
34.53860	289.09000
34.54870	285.64000
34.55890	287.19000
34.56900	286.20000
34.57920	286.19000
34.58930	284.64000
34.59950	285.11000
34.60960	287.50000
34.61980	287.44000
34.62990	284.72000
34.64010	290.73000
34.65020	289.78000
34.66040	288.22000
34.67050	287.25000
34.68070	286.91000
34.69080	289.11000
34.70100	287.52000
34.71110	285.77000
34.72130	288.23000
34.73140	286.05000
34.74160	287.22000
34.75170	289.23000
34.76190	290.75000
34.77200	291.53000
34.78220	291.34000
34.79230	286.41000
34.80250	293.81000
34.81260	292.69000
34.82280	294.00000
34.83290	296.55000
34.84310	292.64000
34.85320	297.48000
34.86340	294.19000
34.87350	300.25000
34.88370	306.34000
34.89380	310.23000
34.90400	317.69000
34.91410	328.98000
34.92430	342.97000
34.93440	357.39000
34.94460	377.75000
34.95470	409.27000
34.96490	434.62000
34.97500	457.19000
34.98520	474.17000
34.99530	477.41000
35.00550	467.27000
35.01560	452.80000
35.02580	439.69000
35.03590	422.52000
35.04610	410.81000
35.05620	409.44000
35.06640	401.77000
35.07650	409.81000
35.08670	403.58000
35.09680	389.00000
35.10700	375.44000
35.11710	363.94000
35.12730	351.44000
35.13740	336.81000
35.14760	334.67000
35.15770	322.33000
35.16790	314.44000
35.17800	317.84000
35.18820	310.98000
35.19830	311.14000
35.20850	306.06000
35.21860	305.09000
35.22880	305.28000
35.23890	306.20000
35.24910	302.55000
35.25920	300.44000
35.26940	304.03000
35.27950	299.64000
35.28970	301.67000
35.29980	303.05000
35.31000	300.53000
35.32010	297.44000
35.33030	302.08000
35.34040	306.52000
35.35060	307.00000
35.36070	308.27000
35.37090	313.38000
35.38100	324.53000
35.39120	325.94000
35.40130	339.59000
35.41150	348.25000
35.42160	365.39000
35.43180	376.03000
35.44190	390.89000
35.45210	408.72000
35.46220	419.80000
35.47240	422.50000
35.48250	424.52000
35.49270	423.88000
35.50280	413.78000
35.51300	413.66000
35.52310	413.12000
35.53330	417.97000
35.54340	422.42000
35.55360	437.39000
35.56370	449.44000
35.57390	461.08000
35.58400	483.16000
35.59420	497.86000
35.60430	515.78000
35.61450	531.14000
35.62460	536.14000
35.63480	534.48000
35.64490	524.33000
35.65510	515.05000
35.66520	502.00000
35.67540	496.27000
35.68550	496.30000
35.69570	511.80000
35.70580	524.05000
35.71600	542.12000
35.72610	554.80000
35.73630	565.64000
35.74640	561.73000
35.75660	543.44000
35.76670	528.48000
35.77690	498.22000
35.78700	473.06000
35.79720	450.62000
35.80730	435.53000
35.81750	431.91000
35.82760	418.53000
35.83780	410.98000
35.84790	409.42000
35.85810	388.88000
35.86820	378.16000
35.87840	363.19000
35.88850	349.69000
35.89870	340.61000
35.90880	330.84000
35.91900	322.44000
35.92910	314.45000
35.93930	314.20000
35.94940	308.84000
35.95960	308.08000
35.96970	307.42000
35.97990	305.33000
35.99000	312.30000
36.00020	314.27000
36.01030	313.89000
36.02050	321.30000
36.03060	322.61000
36.04080	328.69000
36.05090	345.09000
36.06110	348.06000
36.07120	365.16000
36.08140	375.86000
36.09150	391.42000
36.10170	401.11000
36.11180	419.16000
36.12200	420.64000
36.13210	419.53000
36.14230	416.58000
36.15240	411.38000
36.16260	403.06000
36.17270	396.94000
36.18290	389.92000
36.19300	384.97000
36.20320	376.27000
36.21330	380.52000
36.22350	365.02000
36.23360	363.59000
36.24380	354.66000
36.25390	342.88000
36.26410	336.89000
36.27420	330.91000
36.28440	315.19000
36.29450	315.97000
36.30470	312.00000
36.31480	304.33000
36.32500	300.44000
36.33510	299.09000
36.34530	298.94000
36.35540	294.92000
36.36560	297.30000
36.37570	293.42000
36.38590	296.17000
36.39600	290.20000
36.40620	287.00000
36.41630	293.17000
36.42650	293.28000
36.43660	290.61000
36.44680	291.58000
36.45690	293.09000
36.46710	288.62000
36.47720	292.11000
36.48740	290.56000
36.49750	288.66000
36.50770	293.19000
36.51780	289.41000
36.52800	293.08000
36.53810	297.47000
36.54830	297.70000
36.55840	294.47000
36.56860	298.23000
36.57870	298.62000
36.58890	299.98000
36.59900	292.58000
36.60920	298.55000
36.61930	292.55000
36.62950	295.05000
36.63960	297.69000
36.64980	292.14000
36.65990	293.86000
36.67010	293.67000
36.68020	292.64000
36.69040	289.73000
36.70050	291.06000
36.71070	288.70000
36.72080	286.66000
36.73100	286.00000
36.74110	284.28000
36.75130	285.17000
36.76140	289.59000
36.77160	286.86000
36.78170	289.97000
36.79190	288.64000
36.80200	289.41000
36.81220	292.67000
36.82230	287.61000
36.83250	290.83000
36.84260	296.31000
36.85280	300.62000
36.86290	299.33000
36.87310	304.19000
36.88320	310.58000
36.89340	310.25000
36.90350	314.58000
36.91370	319.84000
36.92380	320.48000
36.93400	319.17000
36.94410	315.48000
36.95430	321.55000
36.96440	314.38000
36.97460	316.89000
36.98470	313.91000
36.99490	317.16000
37.00500	317.11000
37.01520	314.27000
37.02530	317.45000
37.03550	311.77000
37.04560	310.72000
37.05580	306.00000
37.06590	301.72000
37.07610	300.27000
37.08620	298.45000
37.09640	298.50000
37.10650	297.97000
37.11670	293.27000
37.12680	294.94000
37.13700	293.69000
37.14710	291.53000
37.15730	293.20000
37.16740	290.59000
37.17760	289.17000
37.18770	288.66000
37.19790	290.34000
37.20800	289.69000
37.21820	291.08000
37.22830	290.98000
37.23850	286.17000
37.24860	289.89000
37.25880	292.80000
37.26890	290.19000
37.27910	290.22000
37.28920	291.86000
37.29940	292.19000
37.30950	294.81000
37.31970	285.31000
37.32980	290.06000
37.34000	291.06000
37.35010	288.31000
37.36030	290.31000
37.37040	292.08000
37.38060	291.66000
37.39070	290.91000
37.40090	295.17000
37.41100	293.08000
37.42120	300.23000
37.43130	296.16000
37.44150	299.56000
37.45160	297.44000
37.46180	300.77000
37.47190	300.58000
37.48210	301.67000
37.49220	302.94000
37.50240	303.86000
37.51250	311.08000
37.52270	310.20000
37.53280	317.14000
37.54300	324.91000
37.55310	327.19000
37.56330	334.00000
37.57340	343.50000
37.58360	347.77000
37.59370	357.30000
37.60390	368.69000
37.61400	374.72000
37.62420	383.41000
37.63430	399.39000
37.64450	415.55000
37.65460	424.25000
37.66480	446.41000
37.67490	460.12000
37.68510	465.89000
37.69520	476.73000
37.70540	482.06000
37.71550	473.62000
37.72570	470.69000
37.73580	465.95000
37.74600	446.97000
37.75610	439.48000
37.76630	430.50000
37.77640	419.75000
37.78660	409.34000
37.79670	401.78000
37.80690	393.80000
37.81700	380.27000
37.82720	368.39000
37.83730	359.06000
37.84750	347.45000
37.85760	338.02000
37.86780	327.36000
37.87790	315.11000
37.88810	313.34000
37.89820	309.41000
37.90840	305.67000
37.91850	305.36000
37.92870	302.42000
37.93880	302.81000
37.94900	300.81000
37.95910	306.39000
37.96930	304.41000
37.97940	309.38000
37.98960	308.27000
37.99970	310.16000
38.00990	315.22000
38.02000	309.38000
38.03020	312.58000
38.04030	306.42000
38.05050	303.55000
38.06060	303.50000
38.07080	299.84000
38.08090	303.20000
38.09110	298.88000
38.10120	300.88000
38.11140	296.97000
38.12150	296.62000
38.13170	292.88000
38.14180	293.47000
38.15200	289.41000
38.16210	287.17000
38.17230	285.50000
38.18240	283.11000
38.19260	288.12000
38.20270	282.00000
38.21290	280.05000
38.22300	284.25000
38.23320	278.33000
38.24330	285.06000
38.25350	282.56000
38.26360	279.78000
38.27380	276.25000
38.28390	286.11000
38.29410	280.78000
38.30420	278.56000
38.31440	280.69000
38.32450	280.34000
38.33470	283.88000
38.34480	284.55000
38.35500	278.55000
38.36510	284.70000
38.37530	284.83000
38.38540	280.06000
38.39560	282.20000
38.40570	283.33000
38.41590	281.92000
38.42600	281.09000
38.43620	282.95000
38.44630	285.61000
38.45650	281.89000
38.46660	279.67000
38.47680	281.00000
38.48690	285.16000
38.49710	280.34000
38.50720	281.92000
38.51740	281.72000
38.52750	282.25000
38.53770	281.73000
38.54780	280.14000
38.55800	281.64000
38.56810	283.12000
38.57830	282.25000
38.58840	280.23000
38.59860	282.81000
38.60870	283.47000
38.61890	282.00000
38.62900	281.67000
38.63920	281.58000
38.64930	282.52000
38.65950	280.81000
38.66960	283.05000
38.67980	282.61000
38.68990	282.64000
38.70010	283.97000
38.71020	285.89000
38.72040	283.39000
38.73050	286.17000
38.74070	283.39000
38.75080	285.27000
38.76100	285.47000
38.77110	288.86000
38.78130	292.38000
38.79140	292.28000
38.80160	297.83000
38.81170	295.16000
38.82190	298.69000
38.83200	303.12000
38.84220	310.56000
38.85230	314.30000
38.86250	316.62000
38.87260	324.73000
38.88280	331.53000
38.89290	337.45000
38.90310	331.97000
38.91320	340.22000
38.92340	342.53000
38.93350	344.48000
38.94370	339.67000
38.95380	346.80000
38.96400	344.25000
38.97410	347.28000
38.98430	354.50000
38.99440	355.00000
39.00460	364.19000
39.01470	365.39000
39.02490	360.59000
39.03500	364.48000
39.04520	369.59000
39.05530	363.19000
39.06550	368.06000
39.07560	372.80000
39.08580	374.47000
39.09590	382.56000
39.10610	396.17000
39.11620	407.62000
39.12640	415.84000
39.13650	432.41000
39.14670	454.03000
39.15680	469.92000
39.16700	488.28000
39.17710	503.22000
39.18730	518.98000
39.19740	521.67000
39.20760	514.83000
39.21770	509.83000
39.22790	500.88000
39.23800	478.66000
39.24820	464.75000
39.25830	457.67000
39.26850	447.36000
39.27860	435.94000
39.28880	436.08000
39.29890	422.81000
39.30910	413.42000
39.31920	404.80000
39.32940	386.83000
39.33950	368.27000
39.34970	360.92000
39.35980	342.25000
39.37000	331.95000
39.38010	334.55000
39.39030	319.56000
39.40040	317.05000
39.41060	316.97000
39.42070	314.97000
39.43090	317.23000
39.44100	318.58000
39.45120	317.41000
39.46130	329.25000
39.47150	337.52000
39.48160	346.12000
39.49180	353.69000
39.50190	370.95000
39.51210	380.50000
39.52220	380.94000
39.53240	388.11000
39.54250	382.91000
39.55270	377.81000
39.56280	370.91000
39.57300	365.39000
39.58310	359.59000
39.59330	352.58000
39.60340	350.80000
39.61360	349.73000
39.62370	346.05000
39.63390	341.88000
39.64400	337.41000
39.65420	328.30000
39.66430	322.55000
39.67450	315.16000
39.68460	312.48000
39.69480	303.58000
39.70490	302.73000
39.71510	297.05000
39.72520	291.91000
39.73540	284.61000
39.74550	286.98000
39.75570	282.80000
39.76580	282.47000
39.77600	283.52000
39.78610	281.73000
39.79630	280.11000
39.80640	283.73000
39.81660	283.00000
39.82670	281.08000
39.83690	281.03000
39.84700	280.47000
39.85720	277.52000
39.86730	278.69000
39.87750	279.11000
39.88760	277.41000
39.89780	279.06000
39.90790	279.38000
39.91810	281.55000
39.92820	275.88000
39.93840	279.55000
39.94850	277.45000
39.95870	278.92000
39.96880	279.75000
39.97900	277.59000
39.98910	277.81000
39.99930	276.66000
