7.99000	3570.10000
8.01000	3649.30000
8.03000	3620.20000
8.05000	3581.70000
8.07000	3563.50000
8.09000	3575.60000
8.11000	3496.50000
8.13000	3457.60000
8.15000	3483.20000
8.17000	3582.90000
8.19000	3597.40000
8.21000	3574.80000
8.23000	3565.20000
8.25000	3619.90000
8.27000	3509.50000
8.29000	3529.60000
8.31000	3558.30000
8.33000	3507.90000
8.35000	3436.30000
8.37000	3533.90000
8.39000	3616.60000
8.41000	3602.30000
8.43000	3513.10000
8.45000	3537.50000
8.47000	3598.60000
8.49000	3651.10000
8.51000	3620.70000
8.53000	3588.90000
8.55000	3654.00000
8.57000	3768.80000
8.59000	3811.50000
8.61000	3776.70000
8.63000	3810.30000
8.65000	3866.60000
8.67000	3877.90000
8.69000	3838.30000
8.71000	3820.20000
8.73000	3799.30000
8.75000	3767.20000
8.77000	3883.00000
8.79000	3879.50000
8.81000	3827.10000
8.83000	3784.80000
8.85000	3896.80000
8.87000	3956.30000
8.89000	3972.40000
8.91000	3966.00000
8.93000	3998.80000
8.95000	4066.00000
8.97000	4145.20000
8.99000	4195.70000
9.01000	4141.70000
9.03000	4294.20000
9.05000	4380.20000
9.07000	4457.50000
9.09000	4628.80000
9.11000	4673.10000
9.13000	4709.80000
9.15000	4741.30000
9.17000	4772.00000
9.19000	4845.10000
9.21000	4872.50000
9.23000	4856.20000
9.25000	4851.50000
9.27000	5220.80000
9.29000	5491.90000
9.31000	6047.70000
9.33000	6944.10000
9.35000	7922.80000
9.37000	9422.50000
9.39000	11259.70000
9.41000	13600.60000
9.43000	16893.00000
9.45000	21622.00000
9.47000	27592.80000
9.49000	35308.30000
9.51000	45450.50000
9.53000	54769.30000
9.55000	56294.50000
9.57000	49719.90000
9.59000	35506.50000
9.61000	22224.20000
9.63000	13963.70000
9.65000	9329.70000
9.67000	7307.10000
9.69000	6378.70000
9.71000	5682.40000
9.73000	5062.90000
9.75000	4513.40000
9.77000	4223.30000
9.79000	3969.50000
9.81000	3839.50000
9.83000	3787.80000
9.85000	3664.40000
9.87000	3590.60000
9.89000	3552.00000
9.91000	3551.60000
9.93000	3595.00000
9.95000	3478.50000
9.97000	3497.60000
9.99000	3530.40000
10.01000	3458.60000
10.03000	3422.10000
10.05000	3373.40000
10.07000	3342.60000
10.09000	3336.50000
10.11000	3259.50000
10.13000	3298.60000
10.15000	3289.60000
10.17000	3213.10000
10.19000	3251.10000
10.21000	3248.00000
10.23000	3275.50000
10.25000	3326.90000
10.27000	3344.40000
10.29000	3305.90000
10.31000	3289.40000
10.33000	3272.80000
10.35000	3208.10000
10.37000	3255.40000
10.39000	3363.30000
10.41000	3379.30000
10.43000	3168.80000
10.45000	3230.50000
10.47000	3215.30000
10.49000	3214.40000
10.51000	3273.20000
10.53000	3264.90000
10.55000	3299.70000
10.57000	3291.10000
10.59000	3231.90000
10.61000	3250.90000
10.63000	3276.30000
10.65000	3335.30000
10.67000	3384.10000
10.69000	3285.10000
10.71000	3380.40000
10.73000	3409.80000
10.75000	3386.00000
10.77000	3386.00000
10.79000	3369.90000
10.81000	3358.10000
10.83000	3369.80000
10.85000	3420.60000
10.87000	3353.60000
10.89000	3307.60000
10.91000	3281.40000
10.93000	3279.80000
10.95000	3363.60000
10.97000	3404.10000
10.99000	3415.50000
11.01000	3416.00000
11.03000	3465.50000
11.05000	3441.80000
11.07000	3494.50000
11.09000	3602.20000
11.11000	3588.50000
11.13000	3584.30000
11.15000	3554.00000
11.17000	3502.90000
11.19000	3449.60000
11.21000	3594.00000
11.23000	3615.00000
11.25000	3593.10000
11.27000	3640.10000
11.29000	3736.90000
11.31000	3902.20000
11.33000	4058.10000
11.35000	4151.10000
11.37000	4234.90000
11.39000	4486.40000
11.41000	4661.80000
11.43000	4688.60000
11.45000	4790.70000
11.47000	5180.20000
11.49000	5794.20000
11.51000	6588.30000
11.53000	7479.40000
11.55000	8455.10000
11.57000	9066.70000
11.59000	9181.60000
11.61000	8678.90000
11.63000	7761.40000
11.65000	7130.10000
11.67000	6960.10000
11.69000	7393.30000
11.71000	8699.50000
11.73000	10773.20000
11.75000	13567.10000
11.77000	17099.80000
11.79000	22357.90000
11.81000	28446.10000
11.83000	35778.70000
11.85000	44169.40000
11.87000	51267.50000
11.89000	53987.70000
11.91000	51306.40000
11.93000	43414.40000
11.95000	31996.60000
11.97000	22346.70000
11.99000	15063.00000
12.01000	10152.00000
12.03000	7423.20000
12.05000	6033.10000
12.07000	5171.70000
12.09000	4670.80000
12.11000	4384.50000
12.13000	4083.70000
12.15000	3895.60000
12.17000	3782.20000
12.19000	3706.80000
12.21000	3630.60000
12.23000	3558.40000
12.25000	3499.30000
12.27000	3453.50000
12.29000	3389.60000
12.31000	3385.00000
12.33000	3375.10000
12.35000	3337.80000
12.37000	3269.30000
12.39000	3251.40000
12.41000	3225.20000
12.43000	3215.70000
12.45000	3302.50000
12.47000	3189.20000
12.49000	3139.90000
12.51000	3144.20000
12.53000	3154.90000
12.55000	3236.10000
12.57000	3291.20000
12.59000	3317.70000
12.61000	3330.40000
12.63000	3612.90000
12.65000	3867.50000
12.67000	4110.10000
12.69000	4299.10000
12.71000	4069.10000
12.73000	3794.90000
12.75000	3512.20000
12.77000	3269.60000
12.79000	3207.90000
12.81000	3090.80000
12.83000	3134.80000
12.85000	3275.30000
12.87000	3259.30000
12.89000	3495.50000
12.91000	3786.60000
12.93000	4203.70000
12.95000	4876.20000
12.97000	5839.90000
12.99000	7117.10000
13.01000	8493.70000
13.03000	9765.60000
13.05000	10962.80000
13.07000	11271.70000
13.09000	10589.40000
13.11000	8940.40000
13.13000	6980.00000
13.15000	5404.30000
13.17000	4353.60000
13.19000	3794.60000
13.21000	3362.80000
13.23000	3209.20000
13.25000	3080.00000
13.27000	2934.00000
13.29000	2807.60000
13.31000	2737.20000
13.33000	2677.40000
13.35000	2608.80000
13.37000	2509.00000
13.39000	2531.10000
13.41000	2499.00000
13.43000	2430.50000
13.45000	2354.70000
13.47000	2410.30000
13.49000	2396.50000
13.51000	2388.00000
13.53000	2421.70000
13.55000	2396.60000
13.57000	2370.30000
13.59000	2362.40000
13.61000	2368.10000
13.63000	2329.20000
13.65000	2320.40000
13.67000	2325.00000
13.69000	2345.70000
13.71000	2400.50000
13.73000	2390.20000
13.75000	2357.10000
13.77000	2338.60000
13.79000	2388.10000
13.81000	2378.30000
13.83000	2337.50000
13.85000	2309.40000
13.87000	2336.90000
13.89000	2330.80000
13.91000	2330.60000
13.93000	2318.10000
13.95000	2289.20000
13.97000	2328.10000
13.99000	2320.00000
14.01000	2282.30000
14.03000	2246.60000
14.05000	2334.20000
14.07000	2306.00000
14.09000	2287.70000
14.11000	2300.50000
14.13000	2312.70000
14.15000	2274.60000
14.17000	2284.20000
14.19000	2323.40000
14.21000	2336.40000
14.23000	2353.00000
14.25000	2303.00000
14.27000	2239.80000
14.29000	2227.80000
14.31000	2288.00000
14.33000	2337.50000
14.35000	2371.80000
14.37000	2388.20000
14.39000	2391.30000
14.41000	2407.10000
14.43000	2450.10000
14.45000	2508.70000
14.47000	2484.30000
14.49000	2607.80000
14.51000	2784.90000
14.53000	2986.90000
14.55000	3205.50000
14.57000	3348.00000
14.59000	3438.40000
14.61000	3387.00000
14.63000	3017.60000
14.65000	2796.40000
14.67000	2608.40000
14.69000	2437.20000
14.71000	2271.80000
14.73000	2239.10000
14.75000	2170.50000
14.77000	2161.60000
14.79000	2262.20000
14.81000	2158.60000
14.83000	2198.40000
14.85000	2270.50000
14.87000	2321.20000
14.89000	2353.90000
14.91000	2283.80000
14.93000	2275.50000
14.95000	2321.00000
14.97000	2230.30000
14.99000	2184.40000
15.01000	2202.50000
15.03000	2219.10000
15.05000	2095.00000
15.07000	2111.20000
15.09000	2106.30000
15.11000	2113.60000
15.13000	2189.70000
15.15000	2051.10000
15.17000	2053.90000
15.19000	2091.60000
15.21000	2079.50000
15.23000	2106.20000
15.25000	2091.50000
15.27000	2073.00000
15.29000	2069.40000
15.31000	2072.40000
15.33000	2032.50000
15.35000	2046.80000
15.37000	2119.40000
15.39000	2155.20000
15.41000	2118.40000
15.43000	2064.60000
15.45000	2020.40000
15.47000	2021.90000
15.49000	2034.00000
15.51000	2072.20000
15.53000	2108.20000
15.55000	2102.10000
15.57000	2123.10000
15.59000	2132.60000
15.61000	2162.90000
15.63000	2234.80000
15.65000	2209.60000
15.67000	2218.10000
15.69000	2236.10000
15.71000	2248.80000
15.73000	2247.30000
15.75000	2176.60000
15.77000	2119.20000
15.79000	2112.50000
15.81000	2191.70000
15.83000	2144.90000
15.85000	2125.60000
15.87000	2131.90000
15.89000	2088.50000
15.91000	2045.10000
15.93000	2061.20000
15.95000	2096.40000
15.97000	2084.20000
15.99000	2135.50000
16.01000	2113.40000
16.03000	2083.60000
16.05000	2105.90000
16.07000	2080.10000
16.09000	2048.60000
16.11000	2063.10000
16.13000	2133.10000
16.15000	2094.20000
16.17000	2153.90000
16.19000	2201.20000
16.21000	2199.60000
16.23000	2166.00000
16.25000	2225.00000
16.27000	2242.80000
16.29000	2234.30000
16.31000	2307.40000
16.33000	2302.90000
16.35000	2362.60000
16.37000	2438.10000
16.39000	2431.20000
16.41000	2444.30000
16.43000	2445.00000
16.45000	2457.00000
16.47000	2501.80000
16.49000	2494.10000
16.51000	2492.50000
16.53000	2427.10000
16.55000	2283.30000
16.57000	2319.10000
16.59000	2284.20000
16.61000	2249.30000
16.63000	2234.00000
16.65000	2201.20000
16.67000	2151.20000
16.69000	2136.90000
16.71000	2161.70000
16.73000	2202.00000
16.75000	2166.20000
16.77000	2175.80000
16.79000	2202.60000
16.81000	2176.00000
16.83000	2180.90000
16.85000	2229.50000
16.87000	2253.70000
16.89000	2186.80000
16.91000	2221.10000
16.93000	2260.80000
16.95000	2273.30000
16.97000	2248.10000
16.99000	2296.90000
17.01000	2420.80000
17.03000	2485.00000
17.05000	2453.70000
17.07000	2430.80000
17.09000	2575.40000
17.11000	2692.70000
17.13000	2801.90000
17.15000	3096.60000
17.17000	3277.70000
17.19000	3471.30000
17.21000	3691.40000
17.23000	3932.00000
17.25000	3725.70000
17.27000	3444.70000
17.29000	3165.70000
17.31000	2953.70000
17.33000	2868.40000
17.35000	2774.00000
17.37000	2722.60000
17.39000	2754.70000
17.41000	2907.70000
17.43000	3107.90000
17.45000	3245.90000
17.47000	3326.90000
17.49000	3639.90000
17.51000	3637.30000
17.53000	3498.30000
17.55000	3291.20000
17.57000	3074.90000
17.59000	3086.40000
17.61000	3090.10000
17.63000	3113.80000
17.65000	3275.30000
17.67000	3170.20000
17.69000	3069.10000
17.71000	2971.20000
17.73000	2856.90000
17.75000	2844.70000
17.77000	2813.00000
17.79000	2795.50000
17.81000	2814.70000
17.83000	2824.60000
17.85000	2855.70000
17.87000	2885.70000
17.89000	2910.50000
17.91000	2969.20000
17.93000	2993.70000
17.95000	3062.90000
17.97000	3185.40000
17.99000	3314.10000
18.01000	3458.80000
18.03000	3688.20000
18.05000	4049.90000
18.07000	4616.60000
18.09000	5644.40000
18.11000	7396.40000
18.13000	10179.00000
18.15000	14318.30000
18.17000	21943.10000
18.19000	33573.80000
18.21000	49565.10000
18.23000	69964.00000
18.25000	92782.20000
18.27000	103156.00000
18.29000	99048.40000
18.31000	80742.30000
18.33000	56652.90000
18.35000	35471.30000
18.37000	20094.00000
18.39000	11132.90000
18.41000	7532.90000
18.43000	5724.50000
18.45000	4713.80000
18.47000	4209.50000
18.49000	3971.90000
18.51000	3702.40000
18.53000	3599.90000
18.55000	3574.30000
18.57000	3482.90000
18.59000	3528.70000
18.61000	3630.60000
18.63000	3773.20000
18.65000	3937.60000
18.67000	4027.40000
18.69000	3938.10000
18.71000	3758.80000
18.73000	3538.00000
18.75000	3270.00000
18.77000	3075.50000
18.79000	2960.60000
18.81000	2916.40000
18.83000	2901.10000
18.85000	2818.50000
18.87000	2821.80000
18.89000	2861.30000
18.91000	2755.40000
18.93000	2758.90000
18.95000	2758.40000
18.97000	2758.30000
18.99000	2779.60000
19.01000	2780.00000
19.03000	2812.10000
19.05000	2931.20000
19.07000	3172.80000
19.09000	3262.70000
19.11000	3494.70000
19.13000	3857.60000
19.15000	4325.60000
19.17000	4757.40000
19.19000	4873.90000
19.21000	4752.20000
19.23000	4438.60000
19.25000	4009.80000
19.27000	3691.20000
19.29000	3329.60000
19.31000	2971.80000
19.33000	2811.10000
19.35000	2763.70000
19.37000	2738.50000
19.39000	2701.80000
19.41000	2617.30000
19.43000	2705.40000
19.45000	2720.90000
19.47000	2691.00000
19.49000	2657.90000
19.51000	2830.70000
19.53000	3048.10000
19.55000	3289.20000
19.57000	3579.50000
19.59000	4248.90000
19.61000	4930.90000
19.63000	5351.40000
19.65000	5378.00000
19.67000	4896.70000
19.69000	4257.50000
19.71000	3655.80000
19.73000	3161.40000
19.75000	2840.00000
19.77000	2718.80000
19.79000	2640.70000
19.81000	2585.10000
19.83000	2549.30000
19.85000	2548.70000
19.87000	2544.00000
19.89000	2535.90000
19.91000	2529.20000
19.93000	2613.70000
19.95000	2619.00000
19.97000	2601.80000
19.99000	2594.60000
20.01000	2543.60000
20.03000	2649.20000
20.05000	2711.00000
20.07000	2696.20000
20.09000	2847.00000
20.11000	2786.20000
20.13000	2752.50000
20.15000	2780.00000
20.17000	2799.00000
20.19000	2790.10000
20.21000	2855.90000
20.23000	2943.60000
20.25000	2938.20000
20.27000	3131.00000
20.29000	3347.50000
20.31000	3550.50000
20.33000	3715.80000
20.35000	4233.70000
20.37000	4917.30000
20.39000	5698.20000
20.41000	6477.60000
20.43000	6729.70000
20.45000	6379.50000
20.47000	5760.40000
20.49000	5037.00000
20.51000	4295.20000
20.53000	3783.00000
20.55000	3375.00000
20.57000	3053.40000
20.59000	2865.30000
20.61000	2820.40000
20.63000	2843.10000
20.65000	2861.60000
20.67000	2764.10000
20.69000	2738.80000
20.71000	2725.70000
20.73000	2728.30000
20.75000	2753.60000
20.77000	2711.00000
20.79000	2722.90000
20.81000	2766.80000
20.83000	2823.40000
20.85000	2872.10000
20.87000	2828.10000
20.89000	2797.80000
20.91000	2819.20000
20.93000	2820.70000
20.95000	2826.00000
20.97000	2822.10000
20.99000	2810.30000
21.01000	2806.50000
21.03000	2844.10000
21.05000	2846.20000
21.07000	2833.60000
21.09000	2871.70000
21.11000	2914.80000
21.13000	2914.30000
21.15000	2907.90000
21.17000	2946.00000
21.19000	2981.80000
21.21000	3047.40000
21.23000	3051.40000
21.25000	2937.00000
21.27000	2937.00000
21.29000	2930.70000
21.31000	2891.50000
21.33000	2834.20000
21.35000	2933.90000
21.37000	2877.80000
21.39000	2869.50000
21.41000	2938.40000
21.43000	2968.10000
21.45000	2966.00000
21.47000	2998.60000
21.49000	3056.70000
21.51000	3096.30000
21.53000	3158.50000
21.55000	3233.80000
21.57000	3291.50000
21.59000	3293.00000
21.61000	3236.40000
21.63000	3202.00000
21.65000	3185.10000
21.67000	3180.00000
21.69000	3179.20000
21.71000	3171.70000
21.73000	3190.00000
21.75000	3233.10000
21.77000	3172.20000
21.79000	3094.80000
21.81000	3115.70000
21.83000	3224.30000
21.85000	3237.20000
21.87000	3226.50000
21.89000	3154.80000
21.91000	3074.60000
21.93000	3119.50000
21.95000	3255.10000
21.97000	3333.30000
21.99000	3423.10000
22.01000	3639.40000
22.03000	3716.40000
22.05000	3859.40000
22.07000	3899.30000
22.09000	3694.90000
22.11000	3534.20000
22.13000	3469.30000
22.15000	3377.20000
22.17000	3212.70000
22.19000	3171.60000
22.21000	3226.90000
22.23000	3274.10000
22.25000	3288.40000
22.27000	3321.20000
22.29000	3439.70000
22.31000	3635.10000
22.33000	3901.10000
22.35000	4227.90000
22.37000	4849.70000
22.39000	5341.50000
22.41000	5789.50000
22.43000	6388.90000
22.45000	6580.70000
22.47000	6857.20000
22.49000	7150.00000
22.51000	7385.70000
22.53000	7714.80000
22.55000	8373.40000
22.57000	9207.00000
22.59000	10151.90000
22.61000	11486.20000
22.63000	12388.50000
22.65000	12684.70000
22.67000	12271.90000
22.69000	10995.50000
22.71000	9419.30000
22.73000	7906.60000
22.75000	6558.30000
22.77000	5424.30000
22.79000	4752.90000
22.81000	4218.80000
22.83000	3827.40000
22.85000	3646.10000
22.87000	3437.60000
22.89000	3356.50000
22.91000	3359.10000
22.93000	3391.10000
22.95000	3393.30000
22.97000	3423.90000
22.99000	3451.70000
23.01000	3472.30000
23.03000	3634.50000
23.05000	3782.60000
23.07000	3981.40000
23.09000	4232.10000
23.11000	4414.20000
23.13000	4622.30000
23.15000	4883.30000
23.17000	5202.40000
23.19000	5575.50000
23.21000	5652.90000
23.23000	5869.30000
23.25000	6084.60000
23.27000	5965.00000
23.29000	6111.00000
23.31000	5998.50000
23.33000	5768.20000
23.35000	5599.80000
23.37000	5428.40000
23.39000	5397.40000
23.41000	5546.50000
23.43000	5921.10000
23.45000	6725.30000
23.47000	7768.40000
23.49000	9053.40000
23.51000	10471.00000
23.53000	11452.70000
23.55000	11629.60000
23.57000	11127.30000
23.59000	10098.50000
23.61000	8895.20000
23.63000	7717.60000
23.65000	6658.40000
23.67000	5751.30000
23.69000	5032.40000
23.71000	4743.60000
23.73000	4592.20000
23.75000	4551.50000
23.77000	4603.60000
23.79000	4467.30000
23.81000	4517.30000
23.83000	4544.40000
23.85000	4424.30000
23.87000	4554.50000
23.89000	4759.20000
23.91000	5045.00000
23.93000	5415.00000
23.95000	5868.90000
23.97000	6570.50000
23.99000	7514.50000
24.01000	8751.90000
24.03000	10450.30000
24.05000	13467.00000
24.07000	17493.90000
24.09000	22838.70000
24.11000	30191.90000
24.13000	38929.00000
24.15000	48057.00000
24.17000	56322.50000
24.19000	62307.30000
24.21000	61921.10000
24.23000	58603.40000
24.25000	52928.20000
24.27000	45465.50000
24.29000	36937.90000
24.31000	29522.10000
24.33000	23183.10000
24.35000	17957.30000
24.37000	14168.30000
24.39000	11231.40000
24.41000	9024.10000
24.43000	7453.90000
24.45000	6332.00000
24.47000	5635.70000
24.49000	5045.00000
24.51000	4575.30000
24.53000	4372.70000
24.55000	4165.10000
24.57000	3979.80000
24.59000	3858.70000
24.61000	3851.10000
24.63000	3599.80000
24.65000	3578.10000
24.67000	3563.10000
24.69000	3389.50000
24.71000	3508.30000
24.73000	3408.60000
24.75000	3361.50000
24.77000	3452.40000
24.79000	3282.60000
24.81000	3244.70000
24.83000	3241.30000
24.85000	3233.70000
24.87000	3197.90000
24.89000	3226.50000
24.91000	3280.00000
24.93000	3337.20000
24.95000	3367.70000
24.97000	3407.30000
24.99000	3470.50000
25.01000	3520.70000
25.03000	3506.20000
25.05000	3674.80000
25.07000	3768.90000
25.09000	3837.80000
25.11000	3917.00000
25.13000	3741.80000
25.15000	3708.40000
25.17000	3645.50000
25.19000	3478.90000
25.21000	3384.50000
25.23000	3223.50000
25.25000	3081.60000
25.27000	3005.50000
25.29000	3061.80000
25.31000	3079.80000
25.33000	3008.70000
25.35000	2913.90000
25.37000	2974.90000
25.39000	3005.10000
25.41000	3012.30000
25.43000	3029.80000
25.45000	3105.20000
25.47000	3264.70000
25.49000	3346.30000
25.51000	3472.00000
25.53000	3751.00000
25.55000	3936.80000
25.57000	4035.40000
25.59000	4084.70000
25.61000	4092.90000
25.63000	3939.00000
25.65000	3871.90000
25.67000	3728.90000
25.69000	3493.20000
25.71000	3356.10000
25.73000	3414.90000
25.75000	3485.40000
25.77000	3546.00000
25.79000	3645.70000
25.81000	3777.30000
25.83000	3857.30000
25.85000	3886.70000
25.87000	3882.10000
25.89000	3980.10000
25.91000	4067.90000
25.93000	4223.60000
25.95000	4531.40000
25.97000	5097.30000
25.99000	5632.60000
26.01000	6275.80000
26.03000	7053.80000
26.05000	7396.50000
26.07000	7236.90000
26.09000	6863.10000
26.11000	6383.30000
26.13000	5761.80000
26.15000	5165.90000
26.17000	4586.10000
26.19000	4067.80000
26.21000	3741.10000
26.23000	3495.10000
26.25000	3310.90000
26.27000	3205.00000
26.29000	3208.80000
26.31000	3172.50000
26.33000	3185.60000
26.35000	3192.70000
26.37000	3135.90000
26.39000	3275.20000
26.41000	3332.70000
26.43000	3375.20000
26.45000	3470.10000
26.47000	3827.30000
26.49000	4368.80000
26.51000	4988.10000
26.53000	5701.10000
26.55000	6818.30000
26.57000	8091.00000
26.59000	9315.00000
26.61000	10343.20000
26.63000	10899.90000
26.65000	10974.60000
26.67000	10718.60000
26.69000	10252.00000
26.71000	9752.40000
26.73000	9905.50000
26.75000	10273.40000
26.77000	10392.40000
26.79000	9773.80000
26.81000	8514.90000
26.83000	7346.50000
26.85000	6250.50000
26.87000	5211.20000
26.89000	4214.30000
26.91000	3580.30000
26.93000	3206.90000
26.95000	3035.60000
26.97000	3002.90000
26.99000	2950.10000
27.01000	2993.90000
27.03000	3096.60000
27.05000	3037.90000
27.07000	3135.80000
27.09000	3243.70000
27.11000	3302.40000
27.13000	3241.50000
27.15000	3287.50000
27.17000	3187.10000
27.19000	3074.10000
27.21000	3127.50000
27.23000	2995.80000
27.25000	2981.30000
27.27000	2965.90000
27.29000	2869.70000
27.31000	2880.40000
27.33000	2834.30000
27.35000	2806.30000
27.37000	2826.20000
27.39000	2852.10000
27.41000	2909.00000
27.43000	3052.80000
27.45000	3298.90000
27.47000	3641.60000
27.49000	4062.10000
27.51000	4662.10000
27.53000	5289.50000
27.55000	5598.70000
27.57000	5627.50000
27.59000	5406.70000
27.61000	5004.40000
27.63000	4509.40000
27.65000	3999.20000
27.67000	3593.30000
27.69000	3334.30000
27.71000	3245.90000
27.73000	3207.80000
27.75000	3165.70000
27.77000	3171.80000
27.79000	3258.30000
27.81000	3457.00000
27.83000	3715.80000
27.85000	4110.40000
27.87000	4643.60000
27.89000	5236.80000
27.91000	5950.70000
27.93000	6773.70000
27.95000	7520.80000
27.97000	7791.90000
27.99000	7592.00000
28.01000	7271.80000
28.03000	6875.60000
28.05000	6424.00000
28.07000	5673.30000
28.09000	5082.20000
28.11000	4660.50000
28.13000	4404.30000
28.15000	4262.60000
28.17000	4128.20000
28.19000	4039.80000
28.21000	4007.10000
28.23000	3943.90000
28.25000	3772.90000
28.27000	3636.60000
28.29000	3540.90000
28.31000	3316.30000
28.33000	3250.10000
28.35000	3155.00000
28.37000	3052.10000
28.39000	3078.80000
28.41000	3130.60000
28.43000	3304.80000
28.45000	3533.90000
28.47000	3705.30000
28.49000	3907.20000
28.51000	4035.30000
28.53000	4017.30000
28.55000	3803.00000
28.57000	3675.80000
28.59000	3465.10000
28.61000	3250.30000
28.63000	3091.00000
28.65000	3081.10000
28.67000	3062.80000
28.69000	3109.00000
28.71000	3285.40000
28.73000	3753.80000
28.75000	4399.10000
28.77000	5383.80000
28.79000	6705.70000
28.81000	8272.30000
28.83000	9251.20000
28.85000	9599.40000
28.87000	9410.70000
28.89000	8844.10000
28.91000	8243.50000
28.93000	7299.20000
28.95000	6254.40000
28.97000	5368.40000
28.99000	4762.90000
29.01000	4267.30000
29.03000	3899.10000
29.05000	3661.40000
29.07000	3490.80000
29.09000	3315.40000
29.11000	3121.70000
29.13000	2945.40000
29.15000	2974.40000
29.17000	3039.70000
29.19000	3070.00000
29.21000	3086.90000
29.23000	3194.30000
29.25000	3445.70000
29.27000	3708.60000
29.29000	3995.80000
29.31000	4356.10000
29.33000	4685.60000
29.35000	4980.70000
29.37000	5127.20000
29.39000	5014.70000
29.41000	4913.40000
29.43000	4857.50000
29.45000	4797.30000
29.47000	4721.40000
29.49000	4858.50000
29.51000	5007.30000
29.53000	5188.20000
29.55000	5346.10000
29.57000	5166.40000
29.59000	5011.30000
29.61000	4799.70000
29.63000	4513.40000
29.65000	4159.20000
29.67000	3793.60000
29.69000	3468.80000
29.71000	3184.10000
29.73000	2925.20000
29.75000	2766.40000
29.77000	2681.80000
29.79000	2626.60000
29.81000	2551.80000
29.83000	2468.10000
29.85000	2454.70000
29.87000	2508.40000
29.89000	2611.10000
29.91000	2599.70000
29.93000	2619.60000
29.95000	2659.20000
29.97000	2724.00000
29.99000	2871.80000
30.01000	2962.50000
30.03000	3046.80000
30.05000	3153.70000
30.07000	3330.40000
30.09000	3441.20000
30.11000	3527.10000
30.13000	3572.60000
30.15000	3536.00000
30.17000	3464.90000
30.19000	3339.40000
30.21000	3200.50000
30.23000	3098.40000
30.25000	2995.60000
30.27000	2874.90000
30.29000	2786.60000
30.31000	2763.40000
30.33000	2724.60000
30.35000	2756.30000
30.37000	2734.70000
30.39000	2644.50000
30.41000	2750.30000
30.43000	2817.70000
30.45000	2851.60000
30.47000	2867.50000
30.49000	2912.40000
30.51000	2925.30000
30.53000	2956.80000
30.55000	2977.70000
30.57000	2912.20000
30.59000	2816.80000
30.61000	2777.60000
30.63000	2724.00000
30.65000	2559.50000
30.67000	2608.40000
30.69000	2549.50000
30.71000	2489.80000
30.73000	2505.40000
30.75000	2391.20000
30.77000	2377.90000
30.79000	2390.70000
30.81000	2377.10000
30.83000	2251.40000
30.85000	2286.50000
30.87000	2306.40000
30.89000	2265.10000
30.91000	2198.80000
30.93000	2230.90000
30.95000	2232.60000
30.97000	2200.00000
30.99000	2174.80000
31.01000	2279.70000
31.03000	2256.60000
31.05000	2209.20000
31.07000	2305.90000
31.09000	2343.90000
31.11000	2306.10000
31.13000	2258.20000
31.15000	2257.40000
31.17000	2286.40000
31.19000	2252.50000
31.21000	2239.00000
31.23000	2274.40000
31.25000	2232.50000
31.27000	2295.70000
31.29000	2295.20000
31.31000	2214.70000
31.33000	2213.20000
31.35000	2306.50000
31.37000	2363.10000
31.39000	2359.00000
31.41000	2298.90000
31.43000	2281.40000
31.45000	2351.20000
31.47000	2429.40000
31.49000	2396.70000
31.51000	2524.40000
31.53000	2577.70000
31.55000	2640.40000
31.57000	2794.40000
31.59000	3024.40000
31.61000	3275.50000
31.63000	3536.00000
31.65000	3808.00000
31.67000	4161.40000
31.69000	4234.80000
31.71000	4327.90000
31.73000	4531.20000
31.75000	4765.80000
31.77000	5059.20000
31.79000	5257.20000
31.81000	5256.00000
31.83000	4880.50000
31.85000	4576.50000
31.87000	4215.30000
31.89000	3823.00000
31.91000	3461.30000
31.93000	3055.90000
31.95000	2744.50000
31.97000	2545.60000
31.99000	2468.80000
32.01000	2462.70000
32.03000	2467.60000
32.05000	2500.50000
32.07000	2565.10000
32.09000	2598.60000
32.11000	2659.50000
32.13000	2768.30000
32.15000	2940.70000
32.17000	3211.10000
32.19000	3506.40000
32.21000	3849.60000
32.23000	4235.20000
32.25000	4635.80000
32.27000	4894.90000
32.29000	4950.10000
32.31000	4827.50000
32.33000	4583.00000
32.35000	4287.20000
32.37000	3977.00000
32.39000	3668.70000
32.41000	3379.10000
32.43000	3177.30000
32.45000	3063.80000
32.47000	3046.10000
32.49000	3116.40000
32.51000	3156.80000
32.53000	3395.30000
32.55000	3515.10000
32.57000	3447.90000
32.59000	3508.80000
32.61000	3416.90000
32.63000	3344.50000
32.65000	3329.00000
32.67000	3353.40000
32.69000	3403.00000
32.71000	3459.90000
32.73000	3550.50000
32.75000	3724.10000
32.77000	3874.50000
32.79000	3862.50000
32.81000	3790.20000
32.83000	3776.70000
32.85000	3632.00000
32.87000	3654.80000
32.89000	3711.40000
32.91000	3724.40000
32.93000	3912.50000
32.95000	3982.60000
32.97000	4053.10000
32.99000	4138.80000
33.01000	4035.20000
33.03000	4066.00000
33.05000	4065.80000
33.07000	4006.40000
33.09000	3937.90000
33.11000	3858.50000
33.13000	3886.80000
33.15000	3988.10000
33.17000	4065.80000
33.19000	4320.80000
33.21000	4656.20000
33.23000	5030.50000
33.25000	5401.50000
33.27000	5890.40000
33.29000	5904.10000
33.31000	5690.70000
33.33000	5438.70000
33.35000	5052.60000
33.37000	4545.70000
33.39000	4064.30000
33.41000	3667.70000
33.43000	3293.00000
33.45000	3038.80000
33.47000	2835.60000
33.49000	2665.40000
33.51000	2535.90000
33.53000	2455.90000
33.55000	2398.20000
33.57000	2353.30000
33.59000	2310.70000
33.61000	2393.70000
33.63000	2427.50000
33.65000	2416.80000
33.67000	2384.00000
33.69000	2359.70000
33.71000	2349.90000
33.73000	2332.70000
33.75000	2294.50000
33.77000	2302.90000
33.79000	2330.60000
33.81000	2396.90000
33.83000	2493.00000
33.85000	2501.40000
33.87000	2580.50000
33.89000	2636.20000
33.91000	2657.30000
33.93000	2708.30000
33.95000	2687.20000
33.97000	2634.90000
33.99000	2597.20000
34.01000	2655.90000
34.03000	2582.10000
34.05000	2549.10000
34.07000	2567.60000
34.09000	2632.40000
34.11000	2868.30000
34.13000	3013.60000
34.15000	3164.50000
34.17000	3405.50000
34.19000	3707.80000
34.21000	3907.90000
34.23000	3984.80000
34.25000	3946.30000
34.27000	3921.90000
34.29000	3879.90000
34.31000	3799.40000
34.33000	3680.30000
34.35000	3549.30000
34.37000	3544.80000
34.39000	3572.80000
34.41000	3597.00000
34.43000	3575.70000
34.45000	3545.20000
34.47000	3412.20000
34.49000	3303.20000
34.51000	3409.10000
34.53000	3378.10000
34.55000	3286.50000
34.57000	3246.10000
34.59000	3344.10000
34.61000	3300.70000
34.63000	3385.70000
34.65000	3525.80000
34.67000	3670.30000
34.69000	3760.20000
34.71000	3714.60000
34.73000	3696.00000
34.75000	3734.40000
34.77000	3712.30000
34.79000	3822.50000
34.81000	3814.70000
34.83000	3707.60000
34.85000	3674.90000
34.87000	3592.80000
34.89000	3509.20000
34.91000	3406.10000
34.93000	3249.20000
34.95000	3036.00000
34.97000	2879.00000
34.99000	2792.30000
35.01000	2776.50000
35.03000	2615.80000
35.05000	2508.90000
35.07000	2376.60000
35.09000	2204.60000
35.11000	2294.40000
35.13000	2393.80000
35.15000	2514.80000
35.17000	2634.80000
35.19000	2633.20000
35.21000	2702.30000
35.23000	2839.50000
35.25000	3014.60000
35.27000	3150.90000
35.29000	3499.30000
35.31000	3697.40000
35.33000	3779.00000
35.35000	3868.80000
35.37000	3734.60000
35.39000	3570.30000
35.41000	3408.60000
35.43000	3273.30000
35.45000	3092.80000
35.47000	2917.80000
35.49000	2793.00000
35.51000	2733.80000
35.53000	2604.30000
35.55000	2581.50000
35.57000	2594.80000
35.59000	2606.40000
35.61000	2575.20000
35.63000	2678.70000
35.65000	2803.80000
35.67000	2949.30000
35.69000	3190.80000
35.71000	3419.20000
35.73000	3690.60000
35.75000	3940.10000
35.77000	4044.50000
35.79000	4012.60000
35.81000	3991.60000
35.83000	3931.40000
35.85000	3770.60000
35.87000	3514.70000
35.89000	3292.00000
35.91000	3104.50000
35.93000	2953.50000
35.95000	2845.40000
35.97000	2811.30000
35.99000	2844.90000
36.01000	2925.70000
36.03000	2959.20000
36.05000	3072.60000
36.07000	3222.00000
36.09000	3385.60000
36.11000	3533.30000
36.13000	3489.90000
36.15000	3641.60000
36.17000	3864.50000
36.19000	3827.90000
36.21000	3881.60000
36.23000	3963.00000
36.25000	4018.20000
36.27000	3991.10000
36.29000	4007.90000
36.31000	3838.60000
36.33000	3669.10000
36.35000	3628.50000
36.37000	3564.60000
36.39000	3448.70000
36.41000	3286.50000
36.43000	3114.70000
36.45000	3127.60000
36.47000	3151.80000
36.49000	3097.70000
36.51000	2983.30000
36.53000	2948.30000
36.55000	2841.60000
36.57000	2771.60000
36.59000	2731.00000
36.61000	2671.60000
36.63000	2673.00000
36.65000	2598.70000
36.67000	2514.00000
36.69000	2511.00000
36.71000	2442.40000
36.73000	2401.60000
36.75000	2363.80000
36.77000	2315.20000
36.79000	2351.00000
36.81000	2403.90000
36.83000	2398.20000
36.85000	2312.00000
36.87000	2246.50000
36.89000	2346.80000
36.91000	2400.00000
36.93000	2381.90000
36.95000	2436.00000
36.97000	2501.30000
36.99000	2531.80000
37.01000	2549.90000
37.03000	2619.20000
37.05000	2648.10000
37.07000	2693.30000
37.09000	2747.20000
37.11000	2793.60000
37.13000	2948.10000
37.15000	3140.70000
37.17000	3380.20000
37.19000	3658.40000
37.21000	3722.40000
37.23000	3617.90000
37.25000	3454.40000
37.27000	3300.10000
37.29000	3213.30000
37.31000	3136.20000
37.33000	3037.10000
37.35000	2936.10000
37.37000	2948.30000
37.39000	2827.90000
37.41000	2794.90000
37.43000	2841.80000
37.45000	2857.80000
37.47000	2890.60000
37.49000	2885.90000
37.51000	2912.20000
37.53000	3071.40000
37.55000	3059.80000
37.57000	3136.70000
37.59000	3282.50000
37.61000	3468.30000
37.63000	3587.10000
37.65000	3716.50000
37.67000	3879.10000
37.69000	4044.10000
37.71000	3884.20000
37.73000	3876.90000
37.75000	3854.60000
37.77000	3770.60000
37.79000	3677.60000
37.81000	3609.40000
37.83000	3547.90000
37.85000	3466.20000
37.87000	3308.50000
37.89000	3245.60000
37.91000	3143.90000
37.93000	3046.60000
37.95000	3038.20000
37.97000	2945.90000
37.99000	2906.40000
38.01000	2870.30000
38.03000	2787.40000
38.05000	2686.90000
38.07000	2657.30000
38.09000	2661.00000
38.11000	2671.10000
38.13000	2662.00000
38.15000	2719.70000
38.17000	2783.30000
38.19000	2845.60000
38.21000	2975.80000
38.23000	3135.60000
38.25000	3260.40000
38.27000	3309.70000
38.29000	3216.80000
38.31000	3132.10000
38.33000	3095.30000
38.35000	3059.40000
38.37000	2942.90000
38.39000	2794.70000
38.41000	2689.70000
38.43000	2612.90000
38.45000	2545.70000
38.47000	2498.50000
38.49000	2539.40000
38.51000	2572.80000
38.53000	2545.20000
38.55000	2547.50000
38.57000	2572.80000
38.59000	2641.40000
38.61000	2755.10000
38.63000	2883.10000
38.65000	2946.00000
38.67000	3038.20000
38.69000	3196.90000
38.71000	3462.70000
38.73000	3772.20000
38.75000	4076.50000
38.77000	4314.90000
38.79000	4395.60000
38.81000	4438.40000
38.83000	4422.00000
38.85000	4372.30000
38.87000	4316.60000
38.89000	4140.70000
38.91000	4043.30000
38.93000	3944.10000
38.95000	3787.30000
38.97000	3578.60000
38.99000	3424.90000
39.01000	3334.10000
39.03000	3286.50000
39.05000	3162.40000
39.07000	3122.70000
39.09000	3052.40000
39.11000	2948.60000
39.13000	2892.30000
39.15000	2779.00000
39.17000	2725.80000
39.19000	2721.00000
39.21000	2713.40000
39.23000	2655.10000
39.25000	2684.90000
39.27000	2753.80000
39.29000	2796.70000
39.31000	2861.40000
39.33000	2865.10000
39.35000	2896.10000
39.37000	2999.20000
39.39000	2918.50000
39.41000	2954.50000
39.43000	3021.80000
39.45000	3075.80000
39.47000	3089.50000
39.49000	3100.70000
39.51000	3090.20000
39.53000	3053.10000
39.55000	2991.40000
39.57000	2890.80000
39.59000	2831.20000
39.61000	2792.70000
39.63000	2712.70000
39.65000	2805.50000
39.67000	2750.70000
39.69000	2655.20000
39.71000	2674.90000
39.73000	2607.10000
39.75000	2544.50000
39.77000	2554.60000
39.79000	2675.60000
39.81000	2717.50000
39.83000	2743.40000
39.85000	2861.50000
39.87000	3087.20000
39.89000	3185.40000
39.91000	3374.50000
39.93000	3425.40000
39.95000	3322.50000
39.97000	3249.40000
39.99000	3182.90000
40.01000	3245.50000
40.03000	3365.10000
40.05000	3349.10000
40.07000	3322.40000
40.09000	3331.80000
40.11000	3393.70000
40.13000	3523.20000
40.15000	3682.90000
40.17000	3839.20000
40.19000	3936.40000
40.21000	3936.20000
40.23000	3958.30000
40.25000	3974.70000
40.27000	3966.40000
40.29000	3922.00000
40.31000	3835.10000
40.33000	3717.20000
40.35000	3631.00000
40.37000	3567.90000
40.39000	3420.20000
40.41000	3365.10000
40.43000	3269.00000
40.45000	3155.40000
40.47000	3131.80000
40.49000	3139.20000
40.51000	3198.90000
40.53000	3281.60000
40.55000	3344.10000
40.57000	3428.30000
40.59000	3545.60000
40.61000	3675.60000
40.63000	3801.20000
40.65000	3957.30000
40.67000	4040.30000
40.69000	4066.90000
40.71000	4051.70000
40.73000	4030.40000
40.75000	3931.70000
40.77000	3783.90000
40.79000	3643.40000
40.81000	3693.70000
40.83000	3563.60000
40.85000	3453.30000
40.87000	3360.20000
40.89000	3182.00000
40.91000	3241.60000
40.93000	3223.00000
40.95000	3215.80000
40.97000	3397.80000
40.99000	3605.10000
41.01000	4050.60000
41.03000	4717.50000
41.05000	5586.70000
41.07000	6849.40000
41.09000	8090.00000
41.11000	8866.70000
41.13000	8946.10000
41.15000	8602.60000
41.17000	8145.50000
41.19000	7860.60000
41.21000	7733.70000
41.23000	7243.30000
41.25000	6543.30000
41.27000	5926.80000
41.29000	5451.10000
41.31000	5097.70000
41.33000	4788.60000
41.35000	4471.20000
41.37000	4208.70000
41.39000	4108.20000
41.41000	3916.90000
41.43000	3857.00000
41.45000	3816.80000
41.47000	3676.00000
41.49000	3437.60000
41.51000	3376.50000
41.53000	3356.20000
41.55000	3291.40000
41.57000	3218.30000
41.59000	3165.90000
41.61000	3156.90000
41.63000	3185.00000
41.65000	3178.10000
41.67000	3182.70000
41.69000	3138.80000
41.71000	3082.50000
41.73000	3151.10000
41.75000	3076.50000
41.77000	3105.00000
41.79000	3181.40000
41.81000	3160.80000
41.83000	3135.90000
41.85000	3131.40000
41.87000	3116.20000
41.89000	3060.80000
41.91000	3196.40000
41.93000	3279.70000
41.95000	3419.50000
41.97000	3679.50000
41.99000	3943.10000
42.01000	4389.80000
42.03000	4587.00000
42.05000	4407.80000
42.07000	4154.20000
42.09000	3951.80000
42.11000	3808.20000
42.13000	3709.20000
42.15000	3607.20000
42.17000	3431.90000
42.19000	3231.70000
42.21000	3046.80000
42.23000	2936.40000
42.25000	2889.00000
42.27000	2830.20000
42.29000	2828.90000
42.31000	2960.60000
42.33000	2848.70000
42.35000	2888.00000
42.37000	2977.60000
42.39000	3056.60000
42.41000	3296.50000
42.43000	3403.80000
42.45000	3430.80000
42.47000	3436.30000
42.49000	3610.00000
42.51000	4017.50000
42.53000	4510.80000
42.55000	5003.20000
42.57000	5352.80000
42.59000	5242.20000
42.61000	4906.20000
42.63000	4488.30000
42.65000	4192.80000
42.67000	4081.20000
42.69000	3959.60000
42.71000	3773.60000
42.73000	3475.60000
42.75000	3129.90000
42.77000	2947.20000
42.79000	2830.10000
42.81000	2709.00000
42.83000	2709.00000
42.85000	2730.20000
42.87000	2711.90000
42.89000	2656.00000
42.91000	2751.20000
43.23000	3629.50000
43.25000	3708.70000
43.27000	3960.00000
43.29000	4274.70000
43.31000	4580.90000
43.33000	4785.10000
43.35000	4905.20000
43.37000	4853.10000
43.39000	4627.40000
43.41000	4326.60000
43.43000	4283.40000
43.45000	4183.60000
43.47000	4004.70000
43.49000	3823.40000
43.51000	3626.60000
43.53000	3403.40000
43.55000	3185.30000
43.57000	3016.20000
43.59000	2986.90000
43.61000	2933.90000
43.63000	2862.60000
43.65000	2785.20000
43.67000	2789.00000
43.69000	2759.80000
43.71000	2734.40000
43.73000	2736.30000
43.75000	2785.00000
43.77000	2768.30000
43.79000	2741.10000
43.81000	2726.80000
43.83000	2743.60000
43.85000	2757.10000
43.87000	2764.20000
43.89000	2809.00000
43.91000	2995.60000
43.93000	2925.70000
43.95000	2998.10000
43.97000	3137.10000
43.99000	3175.20000
44.01000	3065.00000
44.59000	3047.60000
44.61000	3087.40000
44.63000	3109.10000
44.65000	3139.10000
44.67000	3251.10000
44.69000	3322.10000
44.71000	3380.90000
44.73000	3444.70000
44.75000	3541.40000
44.77000	3745.80000
44.79000	3893.20000
44.81000	3973.00000
44.83000	4001.90000
44.85000	4129.00000
44.87000	4211.60000
44.89000	4281.70000
44.91000	4375.90000
44.93000	4325.60000
44.95000	4255.90000
44.97000	4170.90000
44.99000	4075.00000
45.01000	3979.00000
45.03000	3912.40000
45.05000	3838.80000
45.07000	3732.30000
45.09000	3540.40000
45.11000	3421.90000
45.13000	3338.80000
45.15000	3271.60000
45.17000	3191.60000
45.19000	3142.20000
45.21000	3029.50000
45.23000	2904.90000
45.25000	2882.10000
45.27000	2870.10000
45.29000	2789.00000
45.31000	2722.20000
45.33000	2763.10000
45.35000	2627.50000
45.37000	2660.70000
45.39000	2697.80000
45.41000	2635.00000
45.43000	2661.70000
45.45000	2670.90000
45.47000	2651.10000
45.49000	2605.80000
45.51000	2582.20000
45.53000	2564.20000
45.55000	2550.60000
45.57000	2552.30000
45.59000	2604.90000
45.61000	2638.60000
45.63000	2655.50000
45.65000	2672.20000
45.67000	2719.40000
45.69000	2747.20000
45.71000	2797.40000
45.73000	2851.20000
45.75000	2883.50000
45.77000	2963.40000
45.79000	2996.40000
45.81000	3011.20000
45.83000	3027.30000
45.85000	3002.20000
45.87000	3000.60000
45.89000	3022.80000
45.91000	3050.90000
45.93000	2979.30000
45.95000	2986.50000
45.97000	2968.40000
45.99000	2913.40000
46.01000	2883.70000
46.03000	2809.30000
46.05000	2847.20000
46.07000	2944.80000
46.09000	2944.00000
46.11000	2849.20000
46.13000	2756.40000
46.15000	2732.20000
46.17000	2848.70000
46.19000	2735.10000
46.21000	2704.20000
46.23000	2699.70000
46.25000	2677.70000
46.27000	2707.40000
46.29000	2650.90000
46.31000	2573.00000
46.33000	2508.50000
46.35000	2462.00000
46.37000	2435.20000
46.39000	2455.90000
46.41000	2493.40000
46.43000	2406.60000
46.45000	2340.90000
46.47000	2325.70000
46.49000	2340.80000
46.51000	2331.70000
46.53000	2308.40000
46.55000	2330.40000
46.57000	2381.20000
46.59000	2431.40000
46.61000	2400.40000
46.63000	2432.20000
46.65000	2464.30000
46.67000	2449.60000
46.69000	2561.50000
46.71000	2545.60000
46.73000	2545.80000
46.75000	2628.60000
46.77000	2697.10000
46.79000	2738.30000
46.81000	2700.60000
46.83000	2633.80000
46.85000	2796.00000
46.87000	2677.80000
46.89000	2654.10000
46.91000	2723.90000
46.93000	2714.70000
46.95000	2795.20000
46.97000	2777.80000
46.99000	2703.10000
47.01000	2655.90000
47.03000	2712.50000
47.05000	2776.70000
47.07000	2777.60000
47.09000	2663.90000
47.11000	2686.00000
47.13000	2666.50000
47.15000	2687.40000
47.17000	2781.10000
47.19000	2821.50000
47.21000	2836.60000
47.23000	2871.10000
47.25000	2921.10000
47.27000	2903.60000
47.29000	2952.80000
47.31000	2964.20000
47.33000	2942.20000
47.35000	2952.10000
47.37000	3031.40000
47.39000	3021.80000
47.41000	2971.60000
47.43000	2980.70000
47.45000	3017.30000
47.47000	3081.20000
47.49000	3130.70000
47.51000	3128.80000
47.53000	3183.60000
47.55000	3161.20000
47.57000	3136.80000
47.59000	3154.40000
47.61000	3180.30000
47.63000	3169.90000
47.65000	3157.20000
47.67000	3157.10000
47.69000	3176.90000
47.71000	3155.00000
47.73000	3096.30000
47.75000	3057.40000
47.77000	3184.60000
47.79000	3050.60000
47.81000	3035.20000
47.83000	3062.80000
47.85000	2935.70000
47.87000	2878.20000
47.89000	2794.10000
47.91000	2733.90000
47.93000	2750.30000
47.95000	2719.80000
47.97000	2752.20000
47.99000	2754.50000
48.01000	2687.00000
48.03000	2769.30000
48.05000	2758.00000
48.07000	2746.10000
48.09000	2763.90000
48.11000	2770.00000
48.13000	2762.80000
48.15000	2734.20000
48.17000	2706.70000
48.19000	2748.60000
48.21000	2810.20000
48.23000	2827.30000
48.25000	2868.30000
48.27000	3067.00000
48.29000	2958.20000
48.31000	2945.80000
48.33000	3029.40000
48.35000	3179.80000
48.37000	3167.60000
48.39000	3100.80000
48.41000	3108.10000
48.43000	3250.30000
48.45000	3188.60000
48.47000	3086.20000
48.49000	3017.50000
48.51000	3018.70000
48.53000	3104.00000
48.55000	3093.90000
48.57000	3026.40000
48.59000	2985.60000
48.61000	3195.00000
48.63000	3261.50000
48.65000	3285.10000
48.67000	3236.80000
48.69000	3035.80000
48.71000	2948.60000
48.73000	2904.00000
48.75000	2905.80000
48.77000	2960.50000
48.79000	2891.90000
48.81000	2869.40000
48.83000	2838.40000
48.85000	2758.60000
48.87000	2650.50000
48.89000	2639.00000
48.91000	2647.00000
48.93000	2634.30000
48.95000	2582.50000
48.97000	2593.50000
48.99000	2538.20000
49.01000	2448.10000
49.03000	2548.70000
49.05000	2510.20000
49.07000	2466.50000
49.09000	2443.90000
49.11000	2451.50000
49.13000	2534.20000
49.15000	2545.10000
49.17000	2554.30000
49.19000	2660.90000
49.21000	2621.40000
49.23000	2620.00000
49.25000	2614.70000
49.27000	2581.20000
49.29000	2668.80000
49.31000	2740.50000
49.33000	2763.80000
49.35000	2749.40000
49.37000	2868.20000
49.39000	2988.80000
49.41000	3022.10000
49.43000	2978.10000
49.45000	2989.50000
49.47000	3060.50000
49.49000	3156.90000
49.51000	3245.70000
49.53000	3269.30000
49.55000	3334.00000
49.57000	3426.20000
49.59000	3496.40000
49.61000	3481.10000
49.63000	3458.40000
49.65000	3400.90000
49.67000	3323.20000
49.69000	3242.30000
49.71000	3229.40000
49.73000	3182.70000
49.75000	3130.20000
49.77000	3088.50000
49.79000	3066.40000
49.81000	2979.80000
50.59000	2809.90000
50.61000	2793.90000
50.63000	2813.70000
50.65000	2741.70000
50.67000	2685.70000
50.69000	2685.60000
50.71000	2734.40000
50.73000	2719.50000
50.75000	2692.50000
50.77000	2667.00000
50.79000	2648.70000
50.81000	2724.80000
50.83000	2784.30000
50.85000	2865.10000
50.87000	3048.60000
50.89000	3177.00000
50.91000	3128.10000
50.93000	3032.50000
50.95000	3023.50000
50.97000	2849.80000
50.99000	2865.70000
51.01000	2947.50000
51.03000	3001.40000
51.05000	2926.00000
51.07000	2799.40000
51.09000	2712.10000
51.11000	2686.40000
51.13000	2648.30000
51.15000	2670.60000
51.17000	2708.90000
51.19000	2743.10000
51.21000	2748.40000
51.99000	3104.80000
52.01000	3028.20000
52.03000	2985.30000
52.05000	2961.00000
52.07000	3006.90000
52.09000	3022.80000
52.11000	3020.30000
52.13000	3053.00000
52.15000	3173.10000
52.17000	3282.50000
52.19000	3345.30000
52.21000	3327.00000
52.23000	3364.30000
52.25000	3391.70000
52.27000	3360.90000
52.29000	3250.20000
52.31000	3285.20000
52.33000	3217.60000
52.35000	3159.70000
52.37000	3144.90000
52.39000	3029.90000
52.41000	2984.00000
52.43000	2965.20000
52.45000	2947.40000
52.47000	2884.20000
52.49000	2925.70000
52.51000	2912.80000
52.53000	2854.30000
52.55000	2826.90000
52.57000	2849.80000
52.59000	2861.40000
52.61000	2852.10000
52.63000	2816.30000
52.65000	2772.90000
52.67000	2899.70000
52.69000	3014.80000
52.71000	2970.00000
52.73000	2914.40000
52.75000	2916.90000
52.77000	2923.80000
52.79000	2905.50000
52.81000	2857.50000
52.83000	2880.30000
52.85000	2880.90000
52.87000	2852.90000
52.89000	2886.40000
52.91000	2838.50000
52.93000	2838.20000
52.95000	2854.30000
52.97000	2762.10000
52.99000	2814.70000
53.01000	2854.90000
53.03000	2885.30000
53.05000	2930.30000
53.07000	2877.80000
53.09000	2875.80000
53.11000	2924.50000
53.13000	3010.70000
53.15000	2936.00000
53.17000	2956.10000
53.19000	2975.60000
53.21000	2955.80000
53.23000	3020.60000
53.25000	3017.10000
53.27000	2985.90000
53.29000	2957.30000
53.31000	2995.40000
53.33000	2961.30000
53.35000	2999.70000
53.37000	3088.60000
53.39000	3104.60000
53.41000	3245.30000
53.43000	3351.30000
53.45000	3375.30000
53.47000	3272.50000
53.49000	3221.70000
53.51000	3120.80000
53.53000	3067.30000
53.55000	3147.90000
53.57000	3144.80000
53.59000	3160.00000
53.61000	3158.30000
53.63000	3120.80000
53.65000	3067.50000
53.67000	3010.00000
53.69000	2949.60000
53.71000	2915.80000
53.73000	3034.60000
53.75000	2933.30000
53.77000	2894.10000
53.79000	2944.30000
53.81000	2991.60000
53.83000	3076.70000
53.85000	3164.00000
53.87000	3195.50000
53.89000	3086.60000
53.91000	3091.10000
53.93000	3068.10000
53.95000	3053.70000
53.97000	3084.30000
53.99000	2987.60000
54.01000	2888.10000
54.03000	2821.00000
54.05000	2806.60000
54.07000	2824.90000
54.09000	2856.80000
54.11000	2816.80000
54.13000	2699.10000
54.15000	2639.70000
54.17000	2696.30000
54.19000	2716.10000
54.21000	2698.90000
54.23000	2746.20000
54.25000	2697.70000
54.27000	2755.40000
54.29000	2831.10000
54.31000	2732.10000
54.33000	2650.60000
54.35000	2693.80000
54.37000	2738.60000
54.39000	2652.60000
54.41000	2685.40000
54.43000	2714.40000
54.45000	2697.10000
54.47000	2621.20000
54.49000	2660.80000
54.51000	2664.70000
54.53000	2676.90000
54.55000	2695.30000
54.57000	2612.30000
54.59000	2594.80000
54.61000	2585.50000
54.63000	2576.60000
54.65000	2589.60000
54.67000	2644.50000
54.69000	2595.00000
54.71000	2529.90000
54.73000	2647.10000
54.75000	2732.60000
54.77000	2713.50000
54.79000	2701.70000
54.81000	2824.90000
54.83000	2724.40000
54.85000	2774.80000
54.87000	2845.40000
54.89000	2837.30000
54.91000	2744.40000
54.93000	2720.80000
54.95000	2714.60000
54.97000	2703.40000
54.99000	2698.80000
55.01000	2678.60000
55.03000	2639.20000
55.05000	2613.90000
55.07000	2711.40000
55.09000	2798.80000
55.11000	2840.80000
55.13000	2844.10000
55.15000	2832.70000
55.17000	2870.00000
55.19000	2915.60000
55.21000	2941.10000
55.23000	2915.90000
55.25000	2875.50000
55.27000	2939.70000
55.29000	2983.50000
55.31000	2917.60000
55.33000	2880.30000
55.35000	2925.90000
55.37000	2967.30000
55.39000	2961.70000
55.41000	2910.60000
55.43000	2907.80000
55.45000	2915.00000
55.47000	2945.00000
55.49000	3079.80000
55.51000	2997.40000
55.53000	2952.50000
55.55000	2946.70000
55.57000	2892.60000
55.59000	2854.90000
55.61000	2852.30000
55.63000	2884.40000
55.65000	2947.60000
55.67000	2907.90000
55.69000	2898.10000
55.71000	2899.00000
55.73000	2894.20000
55.75000	2898.00000
55.77000	2877.50000
55.79000	2861.00000
55.81000	2859.70000
55.83000	2848.30000
55.85000	2885.10000
55.87000	2866.40000
55.89000	2790.40000
55.91000	2776.00000
55.93000	2810.80000
55.95000	2847.60000
55.97000	2878.00000
55.99000	2903.10000
56.01000	2816.30000
56.03000	2748.30000
56.05000	2743.50000
56.07000	2845.50000
56.09000	2825.20000
56.11000	2809.80000
56.13000	2800.90000
56.15000	2800.00000
56.17000	2843.40000
56.19000	2807.00000
56.21000	2817.00000
56.23000	2924.80000
56.25000	2978.90000
56.27000	2927.70000
56.29000	2913.00000
56.31000	2950.80000
56.33000	2908.20000
56.35000	2836.90000
56.37000	2843.70000
56.39000	2899.30000
56.41000	2883.30000
56.43000	2886.90000
56.45000	2890.40000
56.47000	2899.50000
56.49000	2925.40000
56.51000	2920.80000
56.53000	2966.50000
56.55000	3014.60000
56.57000	3018.00000
56.59000	2990.50000
56.61000	3028.80000
56.63000	3072.00000
56.65000	3087.10000
56.67000	3108.40000
56.69000	3080.10000
56.71000	3058.70000
56.73000	3054.90000
56.75000	3022.90000
56.77000	2949.60000
56.79000	2946.20000
56.81000	2984.60000
56.83000	2932.80000
56.85000	2929.40000
56.87000	2951.70000
56.89000	2995.80000
56.91000	3059.00000
56.93000	2970.30000
56.95000	2986.40000
56.97000	3030.60000
56.99000	3021.50000
57.01000	3141.10000
57.03000	3162.40000
57.05000	3132.90000
57.07000	3088.10000
57.09000	3067.60000
57.11000	3047.60000
57.13000	3040.50000
57.15000	3048.40000
57.17000	3057.50000
57.19000	3038.60000
57.21000	3025.40000
57.23000	3011.80000
57.25000	2959.30000
57.27000	2958.80000
57.29000	2940.50000
57.31000	2958.10000
57.33000	3115.70000
57.35000	3048.90000
57.37000	2997.40000
57.39000	2959.00000
57.41000	2922.90000
57.43000	3015.10000
57.45000	3003.20000
57.47000	2959.50000
57.49000	2932.30000
57.51000	2899.60000
57.53000	2951.20000
57.55000	3010.40000
57.57000	3030.80000
57.59000	2945.50000
57.61000	2994.20000
57.63000	2982.60000
57.65000	2928.80000
57.67000	3030.90000
57.69000	3027.80000
57.71000	3000.30000
57.73000	2959.10000
57.75000	2902.70000
57.77000	2937.00000
57.79000	2930.60000
57.81000	2924.40000
57.83000	2970.60000
57.85000	2940.90000
57.87000	2890.40000
57.89000	2849.30000
57.91000	2831.60000
57.93000	2744.00000
57.95000	2794.80000
57.97000	2867.80000
57.99000	2899.50000
58.01000	2836.30000
58.03000	2858.20000
58.05000	2879.90000
58.07000	2861.30000
58.09000	2750.10000
58.11000	2819.70000
58.13000	2860.90000
58.15000	2867.90000
58.17000	2890.70000
58.19000	2875.50000
58.21000	2882.00000
58.23000	2885.10000
58.25000	2851.30000
58.27000	2914.50000
58.29000	2990.90000
58.31000	3039.10000
58.33000	3035.20000
58.35000	3084.70000
58.37000	3142.30000
58.39000	3128.80000
58.41000	3030.90000
58.43000	2998.10000
58.45000	2966.60000
58.47000	3001.60000
58.49000	3075.20000
58.51000	3028.00000
58.53000	3041.30000
58.55000	2971.50000
58.57000	2867.60000
58.59000	2878.30000
58.61000	2950.20000
58.63000	2975.70000
58.65000	2969.20000
58.67000	2960.00000
58.69000	2906.90000
58.71000	2910.30000
58.73000	2900.60000
58.75000	2832.40000
58.77000	2910.90000
58.79000	2927.60000
58.81000	2931.90000
58.83000	2941.90000
58.85000	2906.80000
58.87000	2832.60000
58.89000	2819.60000
58.91000	2886.70000
58.93000	2985.70000
58.95000	2961.40000
58.97000	2948.70000
58.99000	2969.70000
59.01000	3018.40000
59.03000	3017.80000
59.05000	3015.50000
59.07000	3051.60000
59.09000	3173.50000
59.11000	3117.90000
59.13000	3092.80000
59.15000	3078.20000
59.17000	3055.20000
59.19000	3059.80000
59.21000	3055.40000
59.23000	3007.60000
59.25000	2924.40000
59.27000	3001.30000
59.29000	2930.90000
59.31000	2859.50000
59.33000	2843.90000
59.35000	2907.90000
59.37000	2866.10000
59.39000	2811.70000
59.41000	2794.10000
59.43000	2885.50000
59.45000	2819.60000
59.47000	2804.10000
59.49000	2813.90000
59.51000	2782.70000
59.53000	2797.70000
59.55000	2773.60000
59.57000	2776.40000
59.59000	2859.50000
59.61000	2795.50000
59.63000	2848.30000
59.65000	2868.10000
59.67000	2797.50000
59.69000	2891.90000
59.71000	2818.40000
59.73000	2800.50000
59.75000	2886.40000
59.77000	2932.10000
59.79000	2935.80000
59.81000	2921.80000
59.83000	2912.80000
59.85000	2952.40000
59.87000	2971.90000
59.89000	2987.20000
59.91000	2989.00000
59.93000	2960.80000
59.95000	2962.20000
59.97000	2958.50000
59.99000	2982.30000
60.01000	3063.80000
60.03000	3120.10000
60.05000	3108.60000
60.07000	3059.10000
60.09000	2996.80000
60.11000	2972.40000
60.13000	3021.60000
60.15000	3040.50000
60.17000	3017.70000
60.19000	3087.80000
60.21000	3130.40000
60.23000	3172.90000
60.25000	3209.80000
60.27000	3209.10000
60.29000	3171.90000
60.31000	3170.20000
60.33000	3190.50000
60.35000	3195.80000
60.37000	3199.70000
60.39000	3235.60000
60.41000	3254.10000
60.43000	3202.90000
60.45000	3110.00000
60.47000	3138.10000
60.49000	3154.20000
60.51000	3081.30000
60.53000	3061.50000
60.55000	3158.60000
60.57000	3144.60000
60.59000	2988.50000
60.61000	3012.90000
60.63000	3018.90000
60.65000	2995.90000
60.67000	2950.10000
60.69000	2906.70000
60.71000	2999.20000
60.73000	2992.00000
60.75000	2934.90000
60.77000	2972.30000
60.79000	3004.50000
60.81000	2963.80000
60.83000	2943.40000
60.85000	3046.60000
60.87000	3018.40000
60.89000	2969.90000
60.91000	2932.00000
60.93000	2925.20000
60.95000	2927.50000
60.97000	2906.50000
60.99000	2942.30000
61.01000	3041.70000
61.03000	3047.10000
61.05000	3066.80000
61.07000	3059.00000
61.09000	3050.30000
61.11000	3158.50000
61.13000	3137.30000
61.15000	3212.30000
61.17000	3310.60000
61.19000	3231.40000
61.21000	3116.20000
61.23000	3106.20000
61.25000	3126.90000
61.27000	3079.90000
61.29000	3062.40000
61.31000	3065.40000
61.33000	3063.20000
61.35000	3043.80000
61.37000	3116.20000
61.39000	3076.00000
61.41000	3056.50000
61.43000	3083.40000
61.45000	2930.40000
61.47000	3038.50000
61.49000	3083.00000
61.51000	3025.60000
61.53000	3055.30000
61.55000	2994.30000
61.57000	2988.60000
61.59000	3019.40000
61.61000	3001.20000
61.63000	2992.90000
61.65000	3030.80000
61.67000	3048.10000
61.69000	2958.20000
61.71000	2979.30000
61.73000	2951.60000
61.75000	2931.90000
61.77000	2958.90000
61.79000	2905.60000
61.81000	2889.20000
61.83000	2928.50000
61.85000	3009.80000
61.87000	2983.20000
61.89000	2970.60000
61.91000	3014.50000
61.93000	3095.10000
61.95000	3095.90000
61.97000	3057.00000
61.99000	3081.30000
62.01000	3126.00000
62.03000	3059.80000
62.05000	3075.50000
62.07000	3102.70000
62.09000	3121.20000
62.11000	3112.10000
62.13000	3133.80000
62.15000	3178.10000
62.17000	3213.00000
62.19000	3216.00000
62.21000	3276.20000
62.23000	3302.70000
62.25000	3335.90000
62.27000	3381.00000
62.29000	3317.80000
62.31000	3224.20000
62.33000	3197.80000
62.35000	3241.00000
62.37000	3234.90000
62.39000	3200.00000
62.41000	3190.30000
62.43000	3202.70000
62.45000	3205.80000
62.47000	3180.80000
62.49000	3159.80000
62.51000	3111.10000
62.53000	2985.40000
62.55000	3057.70000
62.57000	3069.30000
62.59000	3047.10000
62.61000	3028.90000
62.63000	3172.10000
62.65000	3126.10000
62.67000	3057.40000
62.69000	3053.70000
62.71000	3031.70000
62.73000	3097.30000
62.75000	3120.40000
62.77000	3067.30000
62.79000	2995.70000
62.81000	3001.20000
62.83000	3046.80000
62.85000	3097.10000
62.87000	3084.10000
62.89000	3074.00000
62.91000	3113.70000
62.93000	3130.80000
62.95000	3007.40000
62.97000	3026.20000
62.99000	3047.10000
63.01000	3069.80000
63.03000	3096.60000
63.05000	3083.60000
63.07000	3099.20000
63.09000	3084.60000
63.11000	3023.70000
63.13000	3094.50000
63.15000	3071.30000
63.17000	3085.60000
63.19000	3144.10000
63.21000	3048.20000
63.23000	3036.20000
63.25000	3053.30000
63.27000	3072.50000
63.29000	3056.60000
63.31000	3066.00000
63.33000	3072.30000
63.35000	3076.30000
63.37000	3084.70000
63.39000	3090.10000
63.41000	3082.10000
63.43000	3037.80000
63.45000	2939.10000
63.47000	2941.30000
63.49000	2969.60000
63.51000	2989.40000
63.53000	2979.80000
63.55000	2965.30000
63.57000	2972.60000
63.59000	2999.90000
63.61000	3041.70000
63.63000	3073.70000
63.65000	3034.60000
63.67000	2986.40000
63.69000	2964.00000
63.71000	3021.90000
63.73000	2994.60000
63.75000	3024.20000
63.77000	3072.00000
63.79000	3038.50000
63.81000	3101.80000
63.83000	3122.10000
63.85000	3105.50000
63.87000	3068.80000
63.89000	3116.80000
63.91000	3081.20000
63.93000	3048.40000
63.95000	3072.60000
63.97000	3068.10000
63.99000	3107.20000
64.01000	3076.90000
64.03000	2968.90000
64.05000	3004.70000
64.07000	3027.30000
64.09000	3028.40000
64.11000	3013.00000
64.13000	3003.10000
64.15000	3030.30000
64.17000	2999.10000
64.19000	2960.20000
64.21000	3034.10000
64.23000	3054.60000
64.25000	3044.10000
64.27000	3020.90000
64.29000	3005.10000
64.31000	3016.50000
64.33000	3002.00000
64.35000	2998.80000
64.37000	3033.00000
64.39000	3076.40000
64.41000	3028.90000
64.43000	3032.90000
64.45000	3127.30000
64.47000	3144.80000
64.49000	3088.30000
64.51000	3106.50000
64.53000	3194.70000
64.55000	3198.50000
64.57000	3210.40000
64.59000	3193.60000
64.61000	3131.50000
64.63000	3002.00000
64.65000	3097.60000
64.67000	3159.50000
64.69000	3128.70000
64.71000	2958.10000
64.73000	2994.50000
64.75000	3028.00000
64.77000	3031.80000
64.79000	2990.50000
64.81000	2982.90000
64.83000	2946.30000
64.85000	2942.20000
64.87000	2988.90000
64.89000	3004.90000
64.91000	2906.50000
64.93000	2927.50000
64.95000	3036.90000
64.97000	2871.60000
64.99000	2946.00000
65.01000	3002.20000
65.03000	3001.80000
65.05000	2959.90000
65.07000	2990.30000
65.09000	3035.00000
65.11000	3059.80000
65.13000	3026.30000
65.15000	2963.40000
65.17000	3050.90000
65.19000	3114.80000
65.21000	3020.30000
65.23000	3065.30000
65.25000	3059.00000
65.27000	3032.00000
65.29000	3002.40000
65.31000	2979.60000
65.33000	3035.30000
65.35000	3032.10000
65.37000	2951.20000
65.39000	2894.90000
65.41000	2877.20000
65.43000	2878.30000
65.45000	2890.60000
65.47000	2905.80000
65.49000	2895.80000
65.51000	2905.40000
65.53000	2942.90000
65.55000	3013.80000
65.57000	2941.70000
65.59000	2922.10000
65.61000	2915.30000
65.63000	2884.60000
65.65000	2898.30000
65.67000	2959.80000
65.69000	2978.70000
65.71000	2928.70000
65.73000	3011.70000
65.75000	2946.40000
65.77000	2953.20000
65.79000	3054.60000
65.81000	3021.80000
65.83000	2982.60000
65.85000	2968.10000
65.87000	2982.30000
65.89000	3018.80000
65.91000	2994.20000
65.93000	2997.50000
65.95000	3010.80000
65.97000	2992.50000
65.99000	3068.40000
66.01000	3109.60000
66.03000	3080.00000
66.05000	2960.00000
66.07000	3017.90000
66.09000	3106.60000
66.11000	3123.70000
66.13000	3037.10000
66.15000	3111.80000
66.17000	3057.10000
66.19000	3020.40000
66.21000	3027.90000
66.23000	2944.10000
66.25000	2992.70000
66.27000	2968.00000
66.29000	2910.70000
66.31000	3047.00000
66.33000	3051.70000
66.35000	3054.30000
66.37000	3047.20000
66.39000	2993.80000
66.41000	3131.70000
66.43000	3039.40000
66.45000	2910.80000
66.47000	2957.90000
66.49000	3028.70000
66.51000	3014.20000
66.53000	3017.30000
66.55000	3076.20000
66.57000	2907.20000
66.59000	2952.10000
66.61000	3024.10000
66.63000	3051.90000
66.65000	3064.90000
66.67000	3081.60000
66.69000	3108.70000
66.71000	3120.00000
66.73000	3038.50000
66.75000	3088.00000
66.77000	3063.50000
66.79000	3003.50000
66.81000	3020.30000
66.83000	3010.10000
66.85000	3041.30000
66.87000	3089.10000
66.89000	3120.80000
66.91000	3051.50000
66.93000	3020.80000
66.95000	3012.60000
66.97000	3014.10000
66.99000	3015.60000
67.01000	3005.50000
67.03000	3020.80000
67.05000	3063.90000
67.07000	3063.10000
67.09000	3054.80000
67.11000	3026.50000
67.13000	3013.40000
67.15000	3129.90000
67.17000	3194.40000
67.19000	3162.10000
67.21000	3093.80000
67.23000	3112.10000
67.25000	3037.90000
67.27000	3065.60000
67.29000	3109.80000
67.31000	3059.10000
67.33000	2961.60000
67.35000	2988.80000
67.37000	3084.30000
67.39000	3179.80000
67.41000	2978.00000
67.43000	3023.60000
67.45000	3073.00000
67.47000	3026.60000
67.49000	2970.20000
67.51000	3037.30000
67.53000	3104.00000
67.55000	3108.60000
67.57000	2966.20000
67.59000	2903.50000
67.61000	2959.50000
67.63000	3064.70000
67.65000	3071.60000
67.67000	3096.30000
67.69000	3089.80000
67.71000	3069.60000
67.73000	3062.00000
67.75000	3033.80000
67.77000	3052.80000
67.79000	3075.40000
67.81000	3070.90000
67.83000	3102.20000
67.85000	3087.80000
67.87000	3071.00000
67.89000	3078.40000
67.91000	3138.60000
67.93000	3095.10000
67.95000	3050.00000
67.97000	3033.00000
67.99000	3038.30000
68.01000	3082.80000
68.03000	3119.00000
68.05000	3137.10000
68.07000	3133.30000
68.09000	3146.50000
68.11000	3138.30000
68.13000	3113.00000
68.15000	3080.20000
68.17000	3067.10000
68.19000	3116.80000
68.21000	3125.70000
68.23000	3023.30000
68.25000	3104.00000
68.27000	3176.90000
68.29000	3197.10000
68.31000	3152.50000
68.33000	3122.10000
68.35000	3077.50000
68.37000	3032.50000
68.39000	3002.80000
68.41000	3030.20000
68.43000	3108.20000
68.45000	3132.40000
68.47000	3112.40000
68.49000	3113.90000
68.51000	3116.80000
68.53000	3153.30000
68.55000	3167.70000
68.57000	3079.40000
68.59000	3169.40000
68.61000	3136.60000
68.63000	3102.50000
68.65000	3169.40000
68.67000	3090.20000
68.69000	3063.40000
68.71000	3061.90000
68.73000	3064.80000
68.75000	3034.30000
68.77000	3081.70000
68.79000	3110.10000
68.81000	3096.30000
68.83000	3086.40000
68.85000	2984.90000
68.87000	3020.40000
68.89000	3132.00000
68.91000	3062.00000
68.93000	2990.50000
68.95000	3012.00000
68.97000	3059.30000
68.99000	3019.00000
69.01000	3011.30000
69.03000	3031.20000
69.05000	3021.60000
69.07000	2936.40000
69.09000	2975.30000
69.11000	3004.70000
69.13000	2991.90000
69.15000	2938.90000
69.17000	3030.30000
69.19000	2937.10000
69.21000	2949.70000
69.23000	3089.90000
69.25000	2975.70000
69.27000	2925.80000
69.29000	2992.70000
69.31000	3088.60000
69.33000	2959.10000
69.35000	2949.80000
69.37000	2980.80000
69.39000	3022.30000
69.41000	3041.40000
69.43000	3051.60000
69.45000	3004.20000
69.47000	2974.00000
69.49000	3032.80000
69.51000	2991.70000
69.53000	2986.50000
69.55000	2998.10000
69.57000	3013.40000
69.59000	3029.40000
69.61000	3020.00000
69.63000	3021.20000
69.65000	3032.90000
69.67000	2985.70000
69.69000	2958.20000
69.71000	2951.00000
69.73000	2952.80000
69.75000	2933.00000
69.77000	3089.00000
69.79000	3065.30000
69.81000	2958.90000
69.83000	3009.90000
69.85000	2997.40000
69.87000	3007.20000
69.89000	2996.90000
69.91000	2922.10000
69.93000	3031.10000
69.95000	3011.90000
69.97000	2966.80000
69.99000	2957.10000
70.01000	2871.80000
70.03000	2945.50000
70.05000	3006.10000
70.07000	3009.20000
70.09000	3109.80000
70.11000	3076.50000
70.13000	3050.50000
70.15000	3036.70000
70.17000	2941.50000
70.19000	2912.70000
70.21000	2964.60000
70.23000	3037.80000
70.25000	3021.80000
70.27000	2992.80000
70.29000	3067.40000
70.31000	3130.80000
70.33000	3048.50000
70.35000	3095.00000
70.37000	3078.70000
70.39000	3046.70000
70.41000	3032.90000
70.43000	3017.70000
70.45000	2994.90000
70.47000	2992.90000
70.49000	3017.40000
70.51000	3028.10000
70.53000	3059.40000
70.55000	3082.00000
70.57000	3081.10000
70.59000	3035.40000
70.61000	2993.80000
70.63000	3025.30000
70.65000	3084.60000
70.67000	3063.20000
70.69000	3118.00000
70.71000	3153.40000
70.73000	3157.70000
70.75000	3124.90000
70.77000	3083.80000
70.79000	3098.30000
70.81000	3095.20000
70.83000	3035.70000
70.85000	3188.00000
70.87000	3231.10000
70.89000	3183.70000
70.91000	3082.90000
70.93000	3098.10000
70.95000	3123.30000
70.97000	3155.60000
70.99000	3180.10000
71.01000	3148.10000
71.03000	3177.90000
71.05000	3198.00000
71.07000	3205.00000
71.09000	3217.20000
71.11000	3210.90000
71.13000	3174.90000
71.15000	3153.50000
71.17000	3203.70000
71.19000	3257.80000
71.21000	3280.70000
71.23000	3257.10000
71.25000	3187.20000
71.27000	3262.60000
71.29000	3225.50000
71.31000	3181.70000
71.33000	3177.20000
71.35000	3144.40000
71.37000	3114.10000
71.39000	3105.00000
71.41000	3123.20000
71.43000	3169.70000
71.45000	3143.80000
71.47000	3106.90000
71.49000	3104.70000
71.51000	3212.90000
71.53000	3097.70000
71.55000	3108.50000
71.57000	3162.50000
71.59000	3103.80000
71.61000	3067.70000
71.63000	3076.00000
71.65000	3086.00000
71.67000	3060.40000
71.69000	3026.10000
71.71000	3110.30000
71.73000	3163.80000
71.75000	3125.00000
71.77000	3162.30000
71.79000	3170.00000
71.81000	3180.60000
71.83000	3182.30000
71.85000	3083.30000
71.87000	3097.70000
71.89000	3079.50000
71.91000	3071.90000
71.93000	3245.50000
71.95000	3277.50000
71.97000	3200.00000
71.99000	3108.40000
72.01000	3137.30000
72.03000	3153.60000
72.05000	3117.00000
72.07000	3087.20000
72.09000	3120.50000
72.11000	3185.20000
72.13000	3159.40000
72.15000	3127.50000
72.17000	3135.60000
72.19000	3141.70000
72.21000	3197.50000
72.23000	3223.20000
72.25000	3192.90000
72.27000	3123.60000
72.29000	3100.70000
72.31000	3083.00000
72.33000	3078.60000
72.35000	3131.20000
72.37000	3129.80000
72.39000	3123.40000
72.41000	3125.00000
72.43000	3146.30000
72.45000	3077.60000
72.47000	3074.00000
72.49000	3115.40000
72.51000	3171.50000
72.53000	3122.00000
72.55000	3098.20000
72.57000	3076.50000
72.59000	3056.70000
72.61000	3174.80000
72.63000	3154.20000
72.65000	3132.30000
72.67000	3151.20000
72.69000	3152.80000
72.71000	3112.10000
72.73000	3132.60000
72.75000	3184.20000
72.77000	3119.50000
72.79000	3177.40000
72.81000	3186.00000
72.83000	3155.60000
72.85000	3139.60000
72.87000	3147.80000
72.89000	3162.80000
72.91000	3162.50000
72.93000	3128.40000
72.95000	3241.90000
72.97000	3218.30000
72.99000	3176.90000
73.01000	3194.90000
73.03000	3218.60000
73.05000	3205.30000
73.07000	3219.10000
73.09000	3266.60000
73.11000	3243.00000
73.13000	3146.00000
73.15000	3167.20000
73.17000	3276.80000
73.19000	3246.30000
73.21000	3255.20000
73.23000	3231.10000
73.25000	3198.50000
73.27000	3219.00000
73.29000	3245.40000
73.31000	3235.00000
73.33000	3215.50000
73.35000	3221.30000
73.37000	3321.10000
73.39000	3347.30000
73.41000	3339.30000
73.43000	3325.20000
73.45000	3287.10000
73.47000	3262.40000
73.49000	3274.90000
73.51000	3321.40000
73.53000	3324.50000
73.55000	3369.40000
74.13000	3462.80000
74.15000	3426.70000
74.17000	3343.20000
74.19000	3214.50000
74.21000	3349.00000
74.23000	3402.40000
74.25000	3415.40000
74.27000	3421.10000
74.29000	3370.10000
74.31000	3354.20000
74.33000	3354.60000
74.35000	3360.30000
74.37000	3362.60000
74.39000	3361.80000
74.41000	3361.00000
74.43000	3367.50000
74.45000	3404.10000
74.47000	3339.80000
74.49000	3352.80000
74.51000	3406.90000
74.53000	3352.00000
74.55000	3395.30000
74.57000	3360.30000
74.59000	3287.90000
74.61000	3254.40000
74.63000	3358.60000
74.65000	3315.40000
74.67000	3260.50000
74.69000	3308.50000
74.71000	3297.80000
74.73000	3253.00000
74.75000	3203.30000
74.77000	3181.30000
74.79000	3303.20000
74.81000	3287.40000
74.83000	3245.50000
74.85000	3220.00000
74.87000	3226.10000
74.89000	3295.60000
74.91000	3286.40000
74.93000	3212.80000
74.95000	3173.20000
74.97000	3202.20000
74.99000	3221.50000
75.01000	3230.90000
75.03000	3240.80000
75.05000	3261.90000
75.07000	3266.00000
75.09000	3276.40000
75.11000	3310.10000
75.13000	3238.50000
75.15000	3255.50000
75.17000	3241.20000
75.19000	3154.50000
75.21000	3238.20000
75.23000	3205.60000
75.25000	3198.80000
75.27000	3246.00000
75.29000	3246.00000
75.31000	3276.40000
75.33000	3314.60000
75.35000	3358.90000
75.37000	3416.80000
75.39000	3370.00000
75.41000	3295.20000
75.43000	3270.20000
75.45000	3401.20000
75.47000	3393.90000
75.49000	3371.50000
75.51000	3350.90000
75.53000	3346.80000
75.55000	3402.40000
75.57000	3369.80000
75.59000	3352.50000
75.61000	3400.10000
75.63000	3368.90000
75.65000	3329.30000
75.67000	3310.20000
75.69000	3322.50000
75.71000	3365.20000
75.73000	3386.70000
75.75000	3401.00000
75.77000	3400.70000
75.79000	3357.30000
75.81000	3342.00000
75.83000	3318.20000
75.85000	3339.00000
75.87000	3499.00000
75.89000	3493.30000
75.91000	3470.20000
75.93000	3488.90000
75.95000	3601.20000
75.97000	3698.00000
75.99000	3804.40000
76.01000	3831.40000
76.03000	3730.30000
76.05000	3614.50000
76.07000	3557.50000
76.09000	3509.50000
76.11000	3475.50000
76.13000	3582.10000
76.15000	3544.90000
76.17000	3516.60000
76.19000	3540.40000
76.21000	3629.50000
76.23000	3599.60000
76.25000	3581.40000
76.27000	3578.10000
76.29000	3563.70000
76.31000	3503.40000
76.33000	3446.30000
76.35000	3412.50000
76.37000	3420.20000
76.39000	3435.50000
76.41000	3369.50000
76.43000	3321.30000
76.45000	3358.40000
76.47000	3429.20000
76.49000	3341.50000
76.51000	3293.40000
76.53000	3353.90000
76.55000	3411.80000
76.57000	3386.90000
76.59000	3409.90000
76.61000	3464.30000
76.63000	3389.60000
76.65000	3337.20000
76.67000	3333.80000
76.69000	3326.90000
76.71000	3210.40000
76.73000	3306.20000
76.75000	3325.30000
76.77000	3314.20000
76.79000	3349.00000
76.81000	3355.90000
76.83000	3337.90000
76.85000	3320.90000
76.87000	3324.70000
76.89000	3350.60000
76.91000	3321.40000
76.93000	3327.30000
76.95000	3399.50000
76.97000	3465.70000
76.99000	3398.50000
77.01000	3376.40000
77.03000	3409.60000
77.05000	3360.10000
77.07000	3324.00000
77.09000	3345.40000
77.11000	3395.30000
77.13000	3400.70000
77.15000	3344.60000
77.17000	3320.60000
77.19000	3329.20000
77.21000	3361.90000
77.23000	3412.90000
77.25000	3405.50000
77.27000	3378.60000
77.29000	3362.20000
77.31000	3314.20000
77.33000	3355.40000
77.35000	3411.20000
77.37000	3430.90000
77.39000	3338.00000
77.41000	3334.10000
77.43000	3347.10000
77.45000	3355.20000
77.47000	3362.10000
77.49000	3394.70000
77.51000	3361.20000
77.53000	3307.50000
77.55000	3367.70000
77.57000	3367.10000
77.59000	3376.20000
77.61000	3369.90000
77.63000	3306.70000
77.65000	3350.50000
77.67000	3358.80000
77.69000	3340.00000
77.71000	3309.40000
77.73000	3378.00000
77.75000	3325.20000
77.77000	3304.20000
77.79000	3383.50000
77.81000	3450.50000
77.83000	3393.50000
77.85000	3359.10000
77.87000	3371.20000
77.89000	3331.60000
77.91000	3363.30000
77.93000	3356.80000
77.95000	3333.70000
77.97000	3392.30000
77.99000	3330.40000
78.01000	3327.90000
78.03000	3367.20000
78.05000	3398.40000
78.07000	3399.00000
78.09000	3435.60000
78.11000	3445.10000
78.13000	3376.30000
78.15000	3406.70000
78.17000	3339.50000
78.19000	3291.70000
78.21000	3322.50000
78.23000	3356.80000
78.25000	3412.70000
78.27000	3438.80000
78.29000	3426.90000
78.31000	3420.00000
78.33000	3380.10000
78.35000	3401.60000
78.37000	3460.80000
78.39000	3450.90000
78.41000	3494.40000
78.43000	3461.60000
78.45000	3405.30000
78.47000	3427.40000
78.49000	3345.80000
78.51000	3333.10000
78.53000	3369.30000
78.55000	3425.30000
78.57000	3403.20000
78.59000	3399.70000
78.61000	3412.20000
78.63000	3431.40000
78.65000	3393.30000
78.67000	3391.50000
78.69000	3399.20000
78.71000	3412.90000
78.73000	3463.90000
78.75000	3504.70000
78.77000	3482.30000
78.79000	3413.40000
78.81000	3373.80000
78.83000	3387.90000
78.85000	3426.10000
78.87000	3441.50000
78.89000	3363.80000
78.91000	3405.10000
78.93000	3398.20000
78.95000	3393.50000
78.97000	3446.50000
78.99000	3425.10000
79.01000	3460.70000
79.03000	3461.10000
79.05000	3382.00000
79.07000	3394.20000
79.09000	3418.20000
79.11000	3431.60000
79.13000	3429.10000
79.15000	3429.90000
79.17000	3452.90000
79.19000	3430.70000
79.21000	3391.20000
79.23000	3459.80000
79.25000	3409.80000
79.27000	3389.20000
79.29000	3405.20000
79.31000	3435.60000
79.33000	3379.50000
79.35000	3387.40000
79.37000	3418.50000
79.39000	3420.00000
79.41000	3420.80000
79.43000	3367.40000
79.45000	3340.00000
79.47000	3385.90000
79.49000	3398.10000
79.51000	3421.40000
79.53000	3420.90000
79.55000	3395.10000
79.57000	3417.10000
79.59000	3410.30000
79.61000	3415.70000
79.63000	3432.90000
79.65000	3427.60000
79.67000	3364.90000
79.69000	3375.20000
79.71000	3445.40000
79.73000	3516.30000
79.75000	3483.20000
79.77000	3402.80000
79.79000	3359.10000
79.81000	3442.90000
79.83000	3431.50000
79.85000	3449.70000
79.87000	3446.00000
79.89000	3390.50000
79.91000	3397.30000
79.93000	3448.50000
79.95000	3471.50000
79.97000	3451.70000
79.99000	3503.50000
80.01000	3455.80000
80.03000	3459.40000
80.05000	3515.60000
80.07000	3487.40000
80.09000	3420.50000
80.11000	3406.20000
80.13000	3422.50000
80.15000	3396.60000
80.17000	3420.00000
80.19000	3448.60000
80.21000	3460.40000
80.23000	3433.00000
80.25000	3455.80000
80.27000	3412.80000
80.29000	3394.00000
80.31000	3459.40000
80.33000	3416.00000
80.35000	3453.40000
80.37000	3457.90000
80.39000	3397.30000
80.41000	3432.30000
80.43000	3460.50000
80.45000	3423.10000
80.47000	3369.30000
80.49000	3535.30000
80.51000	3529.20000
80.53000	3455.30000
80.55000	3385.70000
80.57000	3433.70000
80.59000	3417.90000
80.61000	3430.20000
80.63000	3489.60000
80.65000	3609.90000
80.67000	3505.30000
80.69000	3446.70000
80.71000	3436.50000
80.73000	3470.40000
80.75000	3497.00000
80.77000	3557.50000
80.79000	3572.10000
80.81000	3517.60000
80.83000	3532.10000
80.85000	3538.70000
80.87000	3527.60000
80.89000	3503.10000
80.91000	3492.50000
80.93000	3511.30000
80.95000	3545.80000
80.97000	3562.90000
80.99000	3494.40000
81.01000	3548.70000
81.03000	3563.80000
81.05000	3540.70000
81.07000	3502.70000
81.09000	3591.80000
81.11000	3541.40000
81.13000	3492.80000
81.15000	3568.30000
81.17000	3529.50000
81.19000	3507.30000
81.21000	3540.90000
81.23000	3626.20000
81.25000	3560.70000
81.27000	3512.60000
81.29000	3564.70000
81.31000	3678.40000
81.33000	3577.80000
81.35000	3514.30000
81.37000	3494.20000
81.39000	3525.40000
81.41000	3624.40000
81.43000	3665.00000
81.45000	3600.40000
81.47000	3512.30000
81.49000	3530.50000
81.51000	3512.50000
81.53000	3493.40000
81.55000	3478.30000
81.57000	3472.50000
81.59000	3514.40000
81.61000	3616.20000
81.63000	3645.40000
81.65000	3547.10000
81.67000	3547.80000
81.69000	3557.50000
81.71000	3527.80000
81.73000	3485.20000
81.75000	3626.90000
81.77000	3641.90000
81.79000	3589.10000
81.81000	3511.50000
81.83000	3486.40000
81.85000	3506.70000
81.87000	3487.70000
81.89000	3453.70000
81.91000	3459.80000
81.93000	3456.30000
81.95000	3508.20000
81.97000	3547.30000
81.99000	3504.70000
82.01000	3494.80000
82.03000	3556.10000
82.05000	3593.20000
82.07000	3559.10000
82.09000	3606.40000
82.11000	3586.90000
82.13000	3581.10000
82.15000	3597.80000
82.17000	3522.40000
82.19000	3514.50000
82.21000	3585.00000
82.23000	3664.90000
82.25000	3554.40000
82.27000	3571.70000
82.29000	3544.10000
82.31000	3487.00000
82.33000	3464.90000
82.35000	3566.80000
82.37000	3645.70000
82.39000	3664.80000
82.41000	3594.50000
82.43000	3514.60000
82.45000	3521.10000
82.47000	3570.90000
82.49000	3624.40000
82.51000	3591.70000
82.53000	3581.10000
82.55000	3595.60000
82.57000	3639.90000
82.59000	3732.10000
82.61000	3671.20000
82.63000	3656.50000
82.65000	3683.90000
82.67000	3584.20000
82.69000	3624.40000
82.71000	3610.90000
82.73000	3568.40000
82.75000	3592.80000
82.77000	3530.40000
82.79000	3525.90000
82.81000	3560.50000
82.83000	3602.50000
82.85000	3655.10000
82.87000	3655.60000
82.89000	3635.30000
82.91000	3620.30000
82.93000	3638.60000
82.95000	3588.80000
82.97000	3541.20000
82.99000	3542.90000
83.01000	3671.70000
83.03000	3662.00000
83.05000	3618.90000
83.07000	3586.10000
83.09000	3607.40000
83.11000	3649.50000
83.13000	3665.10000
83.15000	3665.60000
83.17000	3687.70000
83.19000	3672.50000
83.21000	3674.60000
83.23000	3695.00000
83.25000	3729.90000
83.27000	3652.20000
83.29000	3591.30000
83.31000	3589.20000
83.33000	3659.30000
83.35000	3535.90000
83.37000	3620.80000
83.39000	3711.30000
83.41000	3701.10000
83.43000	3564.00000
83.45000	3603.40000
83.47000	3641.70000
83.49000	3638.40000
83.51000	3640.70000
83.53000	3633.70000
83.55000	3667.00000
83.57000	3703.90000
83.59000	3650.60000
83.61000	3612.90000
83.63000	3648.00000
83.65000	3680.40000
83.67000	3606.50000
83.69000	3620.40000
83.71000	3684.50000
83.73000	3709.30000
83.75000	3628.60000
83.77000	3601.90000
83.79000	3631.10000
83.81000	3684.40000
83.83000	3727.90000
83.85000	3648.70000
83.87000	3648.30000
83.89000	3665.80000
83.91000	3666.20000
83.93000	3593.00000
83.95000	3606.00000
83.97000	3648.10000
83.99000	3679.40000
84.01000	3634.40000
84.03000	3596.50000
84.05000	3648.00000
84.07000	3715.80000
84.09000	3688.40000
84.11000	3655.80000
84.13000	3626.10000
84.15000	3631.70000
84.17000	3698.50000
84.19000	3775.40000
84.21000	3757.50000
84.23000	3685.80000
84.25000	3605.60000
84.27000	3677.20000
84.29000	3757.90000
84.31000	3727.50000
84.33000	3619.20000
84.35000	3734.20000
84.37000	3662.50000
84.39000	3671.00000
84.41000	3736.10000
84.43000	3670.60000
84.45000	3707.50000
84.47000	3746.60000
84.49000	3761.80000
84.51000	3729.80000
84.53000	3637.60000
84.55000	3613.10000
84.57000	3654.40000
84.59000	3745.90000
84.61000	3662.90000
84.63000	3697.30000
84.65000	3688.00000
84.67000	3574.00000
84.69000	3666.20000
84.71000	3698.60000
84.73000	3739.00000
84.75000	3791.90000
84.77000	3766.00000
84.79000	3734.90000
84.81000	3746.80000
84.83000	3769.10000
84.85000	3692.20000
84.87000	3707.10000
84.89000	3716.50000
84.91000	3714.90000
84.93000	3711.10000
84.95000	3667.50000
