7.00000	1676.00000
7.01987	1663.00000
7.03975	1655.00000
7.05962	1646.00000
7.07950	1641.00000
7.09937	1641.00000
7.11924	1640.00000
7.13912	1646.00000
7.15899	1652.00000
7.17887	1655.00000
7.19874	1662.00000
7.21861	1660.00000
7.23849	1664.00000
7.25836	1662.00000
7.27824	1658.00000
7.29811	1655.00000
7.31798	1653.00000
7.33786	1647.00000
7.35773	1640.00000
7.37761	1639.00000
7.39748	1632.00000
7.41735	1627.00000
7.43723	1621.00000
7.45710	1617.00000
7.47698	1609.00000
7.49685	1603.00000
7.51672	1590.00000
7.53660	1584.00000
7.55647	1576.00000
7.57635	1564.00000
7.59622	1566.00000
7.61609	1563.00000
7.63597	1567.00000
7.65584	1570.00000
7.67572	1576.00000
7.69559	1580.00000
7.71546	1581.00000
7.73534	1578.00000
7.75521	1577.00000
7.77509	1568.00000
7.79496	1560.00000
7.81483	1555.00000
7.83471	1549.00000
7.85458	1548.00000
7.87446	1550.00000
7.89433	1555.00000
7.91420	1560.00000
7.93408	1567.00000
7.95395	1574.00000
7.97383	1574.00000
7.99370	1579.00000
8.01357	1579.00000
8.03345	1581.00000
8.05332	1585.00000
8.07320	1601.00000
8.09307	1610.00000
8.11294	1636.00000
8.13282	1662.00000
8.15269	1689.00000
8.17257	1723.00000
8.19244	1758.00000
8.21231	1785.00000
8.23219	1812.00000
8.25206	1831.00000
8.27194	1834.00000
8.29181	1821.00000
8.31168	1802.00000
8.33156	1767.00000
8.35143	1724.00000
8.37131	1686.00000
8.39118	1652.00000
8.41105	1621.00000
8.43093	1601.00000
8.45080	1590.00000
8.47068	1580.00000
8.49055	1573.00000
8.51042	1569.00000
8.53030	1563.00000
8.55017	1561.00000
8.57005	1557.00000
8.58992	1555.00000
8.60979	1562.00000
8.62967	1562.00000
8.64954	1564.00000
8.66942	1570.00000
8.68929	1571.00000
8.70916	1567.00000
8.72904	1566.00000
8.74891	1566.00000
8.76879	1561.00000
8.78866	1561.00000
8.80853	1562.00000
8.82841	1566.00000
8.84828	1567.00000
8.86816	1568.00000
8.88803	1574.00000
8.90790	1572.00000
8.92778	1577.00000
8.94765	1577.00000
8.96753	1577.00000
8.98740	1579.00000
9.00727	1579.00000
9.02715	1579.00000
9.04702	1576.00000
9.06690	1576.00000
9.08677	1577.00000
9.10664	1577.00000
9.12652	1581.00000
9.14639	1589.00000
9.16627	1599.00000
9.18614	1608.00000
9.20601	1614.00000
9.22589	1621.00000
9.24576	1625.00000
9.26564	1620.00000
9.28551	1618.00000
9.30538	1623.00000
9.32526	1618.00000
9.34513	1624.00000
9.36501	1632.00000
9.38488	1637.00000
9.40475	1644.00000
9.42463	1653.00000
9.44450	1662.00000
9.46438	1662.00000
9.48425	1673.00000
9.50412	1678.00000
9.52400	1680.00000
9.54387	1693.00000
9.56375	1693.00000
9.58362	1704.00000
9.60349	1716.00000
9.62337	1722.00000
9.64324	1733.00000
9.66312	1744.00000
9.68299	1751.00000
9.70286	1760.00000
9.72274	1767.00000
9.74261	1772.00000
9.76249	1781.00000
9.78236	1789.00000
9.80223	1796.00000
9.82211	1808.00000
9.84198	1818.00000
9.86186	1829.00000
9.88173	1847.00000
9.90160	1858.00000
9.92148	1872.00000
9.94135	1889.00000
9.96123	1904.00000
9.98110	1913.00000
10.00097	1926.00000
10.02085	1937.00000
10.04072	1949.00000
10.06060	1953.00000
10.08047	1965.00000
10.10034	1974.00000
10.12022	1980.00000
10.14009	1989.00000
10.15997	1997.00000
10.17984	2005.00000
10.19971	2015.00000
10.21959	2022.00000
10.23946	2031.00000
10.25934	2040.00000
10.27921	2056.00000
10.29908	2061.00000
10.31896	2086.00000
10.33883	2097.00000
10.35871	2128.00000
10.37858	2152.00000
10.39845	2181.00000
10.41833	2215.00000
10.43820	2254.00000
10.45808	2300.00000
10.47795	2345.00000
10.49782	2403.00000
10.51770	2477.00000
10.53757	2552.00000
10.55745	2650.00000
10.57732	2779.00000
10.59719	2923.00000
10.61707	3115.00000
10.63694	3343.00000
10.65682	3609.00000
10.67669	3908.00000
10.69656	4218.00000
10.71644	4515.00000
10.73631	4767.00000
10.75619	4917.00000
10.77606	4976.00000
10.79593	4904.00000
10.81581	4706.00000
10.83568	4428.00000
10.85556	4092.00000
10.87543	3749.00000
10.89530	3425.00000
10.91518	3153.00000
10.93505	2945.00000
10.95493	2791.00000
10.97480	2678.00000
10.99467	2609.00000
11.01455	2562.00000
11.03442	2524.00000
11.05430	2504.00000
11.07417	2492.00000
11.09404	2482.00000
11.11392	2481.00000
11.13379	2488.00000
11.15367	2485.00000
11.17354	2497.00000
11.19341	2501.00000
11.21329	2502.00000
11.23316	2508.00000
11.25304	2516.00000
11.27291	2513.00000
11.29278	2519.00000
11.31266	2526.00000
11.33253	2529.00000
11.35241	2525.00000
11.37228	2530.00000
11.39215	2530.00000
11.41203	2526.00000
11.43190	2530.00000
11.45178	2531.00000
11.47165	2541.00000
11.49152	2548.00000
11.51140	2559.00000
11.53127	2568.00000
11.55115	2576.00000
11.57102	2578.00000
11.59089	2578.00000
11.61077	2576.00000
11.63064	2568.00000
11.65052	2571.00000
11.67039	2567.00000
11.69026	2576.00000
11.71014	2583.00000
11.73001	2595.00000
11.74989	2617.00000
11.76976	2624.00000
11.78963	2641.00000
11.80951	2659.00000
11.82938	2653.00000
11.84926	2664.00000
11.86913	2659.00000
11.88900	2647.00000
11.90888	2650.00000
11.92875	2641.00000
11.94863	2636.00000
11.96850	2647.00000
11.98837	2647.00000
12.00825	2654.00000
12.02812	2662.00000
12.04800	2669.00000
12.06787	2675.00000
12.08774	2688.00000
12.10762	2691.00000
12.12749	2714.00000
12.14737	2729.00000
12.16724	2753.00000
12.18711	2787.00000
12.20699	2823.00000
12.22686	2875.00000
12.24674	2929.00000
12.26661	3000.00000
12.28648	3081.00000
12.30636	3163.00000
12.32623	3250.00000
12.34611	3330.00000
12.36598	3386.00000
12.38585	3411.00000
12.40573	3415.00000
12.42560	3378.00000
12.44548	3314.00000
12.46535	3247.00000
12.48522	3179.00000
12.50510	3125.00000
12.52497	3104.00000
12.54485	3110.00000
12.56472	3151.00000
12.58459	3232.00000
12.60447	3339.00000
12.62434	3496.00000
12.64422	3696.00000
12.66409	3947.00000
12.68396	4270.00000
12.70384	4667.00000
12.72371	5152.00000
12.74359	5738.00000
12.76346	6416.00000
12.78333	7173.00000
12.80321	7978.00000
12.82308	8761.00000
12.84296	9452.00000
12.86283	9960.00000
12.88270	10212.00000
12.90258	10152.00000
12.92245	9791.00000
12.94233	9127.00000
12.96220	8294.00000
12.98207	7350.00000
13.00195	6397.00000
13.02182	5549.00000
13.04170	4827.00000
13.06157	4260.00000
13.08144	3843.00000
13.10132	3540.00000
13.12119	3343.00000
13.14107	3191.00000
13.16094	3091.00000
13.18081	3013.00000
13.20069	2949.00000
13.22056	2899.00000
13.24044	2852.00000
13.26031	2817.00000
13.28018	2784.00000
13.30006	2761.00000
13.31993	2735.00000
13.33981	2722.00000
13.35968	2709.00000
13.37955	2698.00000
13.39943	2695.00000
13.41930	2693.00000
13.43918	2693.00000
13.45905	2697.00000
13.47892	2703.00000
13.49880	2702.00000
13.51867	2705.00000
13.53855	2715.00000
13.55842	2713.00000
13.57829	2717.00000
13.59817	2730.00000
13.61804	2738.00000
13.63792	2750.00000
13.65779	2764.00000
13.67766	2790.00000
13.69754	2813.00000
13.71741	2851.00000
13.73729	2900.00000
13.75716	2957.00000
13.77703	3035.00000
13.79691	3128.00000
13.81678	3242.00000
13.83666	3381.00000
13.85653	3557.00000
13.87640	3767.00000
13.89628	4022.00000
13.91615	4338.00000
13.93603	4704.00000
13.95590	5124.00000
13.97577	5601.00000
13.99565	6104.00000
14.01552	6599.00000
14.03540	7049.00000
14.05527	7408.00000
14.07514	7609.00000
14.09502	7617.00000
14.11489	7443.00000
14.13477	7083.00000
14.15464	6568.00000
14.17451	5992.00000
14.19439	5392.00000
14.21426	4823.00000
14.23414	4336.00000
14.25401	3942.00000
14.27388	3629.00000
14.29376	3396.00000
14.31363	3231.00000
14.33351	3093.00000
14.35338	2996.00000
14.37325	2912.00000
14.39313	2844.00000
14.41300	2785.00000
14.43288	2734.00000
14.45275	2696.00000
14.47262	2658.00000
14.49250	2632.00000
14.51237	2611.00000
14.53225	2594.00000
14.55212	2584.00000
14.57199	2577.00000
14.59187	2568.00000
14.61174	2574.00000
14.63162	2569.00000
14.65149	2575.00000
14.67136	2579.00000
14.69124	2583.00000
14.71111	2587.00000
14.73099	2585.00000
14.75086	2579.00000
14.77073	2580.00000
14.79061	2565.00000
14.81048	2562.00000
14.83036	2561.00000
14.85023	2555.00000
14.87010	2560.00000
14.88998	2564.00000
14.90985	2568.00000
14.92973	2571.00000
14.94960	2575.00000
14.96947	2572.00000
14.98935	2574.00000
15.00922	2568.00000
15.02910	2565.00000
15.04897	2564.00000
15.06884	2558.00000
15.08872	2559.00000
15.10859	2556.00000
15.12847	2559.00000
15.14834	2553.00000
15.16821	2558.00000
15.18809	2563.00000
15.20796	2566.00000
15.22784	2580.00000
15.24771	2597.00000
15.26758	2609.00000
15.28746	2624.00000
15.30733	2633.00000
15.32721	2641.00000
15.34708	2639.00000
15.36695	2637.00000
15.38683	2635.00000
15.40670	2640.00000
15.42658	2640.00000
15.44645	2651.00000
15.46632	2674.00000
15.48620	2695.00000
15.50607	2729.00000
15.52595	2767.00000
15.54582	2821.00000
15.56569	2880.00000
15.58557	2953.00000
15.60544	3055.00000
15.62532	3168.00000
15.64519	3311.00000
15.66506	3487.00000
15.68494	3685.00000
15.70481	3908.00000
15.72469	4162.00000
15.74456	4406.00000
15.76443	4658.00000
15.78431	4856.00000
15.80418	5006.00000
15.82406	5075.00000
15.84393	5028.00000
15.86380	4908.00000
15.88368	4697.00000
15.90355	4423.00000
15.92343	4136.00000
15.94330	3853.00000
15.96317	3603.00000
15.98305	3402.00000
16.00292	3253.00000
16.02280	3150.00000
16.04267	3089.00000
16.06254	3057.00000
16.08242	3044.00000
16.10229	3054.00000
16.12217	3074.00000
16.14204	3119.00000
16.16191	3172.00000
16.18179	3244.00000
16.20166	3339.00000
16.22154	3427.00000
16.24141	3515.00000
16.26128	3602.00000
16.28116	3655.00000
16.30103	3677.00000
16.32091	3690.00000
16.34078	3656.00000
16.36065	3620.00000
16.38053	3584.00000
16.40040	3550.00000
16.42028	3530.00000
16.44015	3540.00000
16.46002	3560.00000
16.47990	3576.00000
16.49977	3593.00000
16.51965	3590.00000
16.53952	3540.00000
16.55939	3468.00000
16.57927	3368.00000
16.59914	3237.00000
16.61902	3119.00000
16.63889	2992.00000
16.65876	2892.00000
16.67864	2813.00000
16.69851	2744.00000
16.71839	2695.00000
16.73826	2666.00000
16.75813	2635.00000
16.77801	2610.00000
16.79788	2603.00000
16.81776	2591.00000
16.83763	2591.00000
16.85750	2592.00000
16.87738	2601.00000
16.89725	2606.00000
16.91713	2612.00000
16.93700	2614.00000
16.95687	2613.00000
16.97675	2610.00000
16.99662	2607.00000
17.01650	2606.00000
17.03637	2609.00000
17.05624	2609.00000
17.07612	2616.00000
17.09599	2625.00000
17.11587	2627.00000
17.13574	2633.00000
17.15561	2634.00000
17.17549	2641.00000
17.19536	2644.00000
17.21524	2648.00000
17.23511	2661.00000
17.25498	2669.00000
17.27486	2679.00000
17.29473	2692.00000
17.31461	2698.00000
17.33448	2707.00000
17.35435	2711.00000
17.37423	2719.00000
17.39410	2724.00000
17.41398	2730.00000
17.43385	2745.00000
17.45372	2753.00000
17.47360	2769.00000
17.49347	2788.00000
17.51335	2813.00000
17.53322	2836.00000
17.55309	2877.00000
17.57297	2915.00000
17.59284	2963.00000
17.61272	3027.00000
17.63259	3089.00000
17.65246	3171.00000
17.67234	3267.00000
17.69221	3374.00000
17.71209	3502.00000
17.73196	3660.00000
17.75183	3827.00000
17.77171	4036.00000
17.79158	4269.00000
17.81146	4525.00000
17.83133	4825.00000
17.85120	5143.00000
17.87108	5476.00000
17.89095	5819.00000
17.91083	6124.00000
17.93070	6387.00000
17.95057	6559.00000
17.97045	6615.00000
17.99032	6554.00000
18.01020	6367.00000
18.03007	6068.00000
18.04994	5704.00000
18.06982	5294.00000
18.08969	4882.00000
18.10957	4510.00000
18.12944	4175.00000
18.14931	3899.00000
18.16919	3693.00000
18.18906	3515.00000
18.20894	3397.00000
18.22881	3299.00000
18.24868	3225.00000
18.26856	3178.00000
18.28843	3134.00000
18.30831	3113.00000
18.32818	3103.00000
18.34805	3092.00000
18.36793	3101.00000
18.38780	3115.00000
18.40768	3129.00000
18.42755	3157.00000
18.44742	3193.00000
18.46730	3237.00000
18.48717	3288.00000
18.50705	3362.00000
18.52692	3448.00000
18.54679	3551.00000
18.56667	3677.00000
18.58654	3823.00000
18.60642	3986.00000
18.62629	4152.00000
18.64616	4320.00000
18.66604	4494.00000
18.68591	4629.00000
18.70579	4757.00000
18.72566	4864.00000
18.74553	4951.00000
18.76541	5034.00000
18.78528	5133.00000
18.80516	5269.00000
18.82503	5459.00000
18.84490	5733.00000
18.86478	6100.00000
18.88465	6606.00000
18.90453	7252.00000
18.92440	8059.00000
18.94427	9064.00000
18.96415	10260.00000
18.98402	11654.00000
19.00390	13203.00000
19.02377	14854.00000
19.04364	16486.00000
19.06352	17966.00000
19.08339	19123.00000
19.10327	19819.00000
19.12314	19974.00000
19.14301	19497.00000
19.16289	18532.00000
19.18276	17132.00000
19.20264	15511.00000
19.22251	13837.00000
19.24238	12257.00000
19.26226	10886.00000
19.28213	9729.00000
19.30201	8802.00000
19.32188	8044.00000
19.34175	7420.00000
19.36163	6857.00000
19.38150	6369.00000
19.40138	5916.00000
19.42125	5501.00000
19.44112	5143.00000
19.46100	4835.00000
19.48087	4575.00000
19.50075	4370.00000
19.52062	4217.00000
19.54049	4098.00000
19.56037	4016.00000
19.58024	3979.00000
19.60012	3953.00000
19.61999	3963.00000
19.63986	4008.00000
19.65974	4080.00000
19.67961	4190.00000
19.69949	4353.00000
19.71936	4561.00000
19.73923	4839.00000
19.75911	5172.00000
19.77898	5597.00000
19.79886	6090.00000
19.81873	6674.00000
19.83860	7325.00000
19.85848	8018.00000
19.87835	8710.00000
19.89823	9333.00000
19.91810	9818.00000
19.93797	10102.00000
19.95785	10137.00000
19.97772	9909.00000
19.99760	9465.00000
20.01747	8846.00000
20.03734	8162.00000
20.05722	7481.00000
20.07709	6910.00000
20.09697	6479.00000
20.11684	6222.00000
20.13671	6141.00000
20.15659	6211.00000
20.17646	6418.00000
20.19634	6724.00000
20.21621	7104.00000
20.23608	7573.00000
20.25596	8051.00000
20.27583	8557.00000
20.29571	9055.00000
20.31558	9455.00000
20.33545	9760.00000
20.35533	9928.00000
20.37520	9873.00000
20.39508	9678.00000
20.41495	9296.00000
20.43482	8804.00000
20.45470	8269.00000
20.47457	7748.00000
20.49445	7299.00000
20.51432	6987.00000
20.53419	6837.00000
20.55407	6819.00000
20.57394	6963.00000
20.59382	7212.00000
20.61369	7502.00000
20.63356	7783.00000
20.65344	8002.00000
20.67331	8071.00000
20.69319	7984.00000
20.71306	7697.00000
20.73293	7257.00000
20.75281	6699.00000
20.77268	6075.00000
20.79256	5460.00000
20.81243	4905.00000
20.83230	4444.00000
20.85218	4073.00000
20.87205	3810.00000
20.89193	3621.00000
20.91180	3485.00000
20.93167	3399.00000
20.95155	3324.00000
20.97142	3267.00000
20.99130	3233.00000
21.01117	3197.00000
21.03104	3175.00000
21.05092	3170.00000
21.07079	3176.00000
21.09067	3184.00000
21.11054	3215.00000
21.13041	3247.00000
21.15029	3287.00000
21.17016	3346.00000
21.19004	3411.00000
21.20991	3486.00000
21.22978	3586.00000
21.24966	3708.00000
21.26953	3847.00000
21.28941	4026.00000
21.30928	4255.00000
21.32915	4533.00000
21.34903	4869.00000
21.36890	5296.00000
21.38878	5800.00000
21.40865	6401.00000
21.42852	7114.00000
21.44840	7936.00000
21.46827	8853.00000
21.48815	9841.00000
21.50802	10854.00000
21.52789	11779.00000
21.54777	12558.00000
21.56764	13053.00000
21.58752	13196.00000
21.60739	12963.00000
21.62726	12320.00000
21.64714	11384.00000
21.66701	10230.00000
21.68689	8986.00000
21.70676	7780.00000
21.72663	6702.00000
21.74651	5786.00000
21.76638	5082.00000
21.78626	4538.00000
21.80613	4148.00000
21.82600	3866.00000
21.84588	3658.00000
21.86575	3494.00000
21.88563	3370.00000
21.90550	3267.00000
21.92537	3176.00000
21.94525	3108.00000
21.96512	3050.00000
21.98500	3010.00000
22.00487	2976.00000
22.02474	2960.00000
22.04462	2954.00000
22.06449	2951.00000
22.08437	2969.00000
22.10424	2986.00000
22.12411	3013.00000
22.14399	3049.00000
22.16386	3093.00000
22.18374	3145.00000
22.20361	3205.00000
22.22348	3283.00000
22.24336	3368.00000
22.26323	3464.00000
22.28311	3568.00000
22.30298	3675.00000
22.32285	3775.00000
22.34273	3870.00000
22.36260	3950.00000
22.38248	4007.00000
22.40235	4042.00000
22.42222	4070.00000
22.44210	4074.00000
22.46197	4070.00000
22.48185	4087.00000
22.50172	4106.00000
22.52159	4135.00000
22.54147	4191.00000
22.56134	4253.00000
22.58122	4312.00000
22.60109	4365.00000
22.62096	4406.00000
22.64084	4414.00000
22.66071	4398.00000
22.68059	4355.00000
22.70046	4276.00000
22.72033	4184.00000
22.74021	4066.00000
22.76008	3931.00000
22.77996	3802.00000
22.79983	3666.00000
22.81970	3522.00000
22.83958	3405.00000
22.85945	3286.00000
22.87933	3177.00000
22.89920	3097.00000
22.91907	3020.00000
22.93895	2970.00000
22.95882	2923.00000
22.97870	2892.00000
22.99857	2874.00000
23.01844	2844.00000
23.03832	2828.00000
23.05819	2813.00000
23.07807	2791.00000
23.09794	2772.00000
23.11781	2753.00000
23.13769	2739.00000
23.15756	2717.00000
23.17744	2701.00000
23.19731	2685.00000
23.21718	2675.00000
23.23706	2670.00000
23.25693	2668.00000
23.27681	2683.00000
23.29668	2705.00000
23.31655	2730.00000
23.33643	2769.00000
23.35630	2812.00000
23.37618	2857.00000
23.39605	2905.00000
23.41592	2956.00000
23.43580	3001.00000
23.45567	3048.00000
23.47555	3091.00000
23.49542	3118.00000
23.51529	3137.00000
23.53517	3148.00000
23.55504	3127.00000
23.57492	3107.00000
23.59479	3063.00000
23.61466	3016.00000
23.63454	2970.00000
23.65441	2927.00000
23.67429	2888.00000
23.69416	2874.00000
23.71403	2860.00000
23.73391	2856.00000
23.75378	2867.00000
23.77366	2875.00000
23.79353	2883.00000
23.81340	2894.00000
23.83328	2899.00000
23.85315	2901.00000
23.87303	2894.00000
23.89290	2881.00000
23.91277	2867.00000
23.93265	2839.00000
23.95252	2807.00000
23.97240	2776.00000
23.99227	2744.00000
24.01214	2705.00000
24.03202	2666.00000
24.05189	2642.00000
24.07177	2603.00000
24.09164	2573.00000
24.11151	2548.00000
24.13139	2522.00000
24.15126	2496.00000
24.17114	2482.00000
24.19101	2466.00000
24.21088	2455.00000
24.23076	2450.00000
24.25063	2453.00000
24.27051	2458.00000
24.29038	2462.00000
24.31025	2471.00000
24.33013	2488.00000
24.35000	2485.00000
24.36988	2498.00000
24.38975	2511.00000
24.40962	2524.00000
24.42950	2545.00000
24.44937	2581.00000
24.46925	2621.00000
24.48912	2669.00000
24.50899	2731.00000
24.52887	2797.00000
24.54874	2868.00000
24.56862	2960.00000
24.58849	3062.00000
24.60836	3186.00000
24.62824	3336.00000
24.64811	3518.00000
24.66799	3730.00000
24.68786	3989.00000
24.70773	4285.00000
24.72761	4628.00000
24.74748	5016.00000
24.76736	5434.00000
24.78723	5855.00000
24.80710	6267.00000
24.82698	6618.00000
24.84685	6870.00000
24.86673	7003.00000
24.88660	6994.00000
24.90647	6839.00000
24.92635	6568.00000
24.94622	6214.00000
24.96610	5824.00000
24.98597	5443.00000
25.00584	5118.00000
25.02572	4870.00000
25.04559	4706.00000
25.06547	4636.00000
25.08534	4629.00000
25.10521	4689.00000
25.12509	4769.00000
25.14496	4870.00000
25.16484	4966.00000
25.18471	5046.00000
25.20458	5089.00000
25.22446	5101.00000
25.24433	5081.00000
25.26421	5027.00000
25.28408	4963.00000
25.30395	4884.00000
25.32383	4827.00000
25.34370	4803.00000
25.36358	4811.00000
25.38345	4874.00000
25.40332	5002.00000
25.42320	5179.00000
25.44307	5394.00000
25.46295	5643.00000
25.48282	5889.00000
25.50269	6099.00000
25.52257	6253.00000
25.54244	6319.00000
25.56232	6291.00000
25.58219	6158.00000
25.60206	5947.00000
25.62194	5689.00000
25.64181	5397.00000
25.66169	5128.00000
25.68156	4905.00000
25.70143	4733.00000
25.72131	4640.00000
25.74118	4619.00000
25.76106	4648.00000
25.78093	4730.00000
25.80080	4834.00000
25.82068	4950.00000
25.84055	5045.00000
25.86043	5117.00000
25.88030	5149.00000
25.90017	5119.00000
25.92005	5035.00000
25.93992	4897.00000
25.95980	4706.00000
25.97967	4478.00000
25.99954	4232.00000
26.01942	3979.00000
26.03929	3750.00000
26.05917	3527.00000
26.07904	3351.00000
26.09891	3200.00000
26.11879	3077.00000
26.13866	2979.00000
26.15854	2904.00000
26.17841	2840.00000
26.19828	2795.00000
26.21816	2760.00000
26.23803	2740.00000
26.25791	2734.00000
26.27778	2732.00000
26.29765	2734.00000
26.31753	2743.00000
26.33740	2731.00000
26.35728	2726.00000
26.37715	2696.00000
26.39702	2670.00000
26.41690	2634.00000
26.43677	2597.00000
26.45665	2568.00000
26.47652	2550.00000
26.49639	2542.00000
26.51627	2545.00000
26.53614	2564.00000
26.55602	2596.00000
26.57589	2632.00000
26.59576	2678.00000
26.61564	2727.00000
26.63551	2769.00000
26.65539	2806.00000
26.67526	2823.00000
26.69513	2828.00000
26.71501	2808.00000
26.73488	2767.00000
26.75476	2712.00000
26.77463	2645.00000
26.79450	2570.00000
26.81438	2498.00000
26.83425	2432.00000
26.85413	2369.00000
26.87400	2316.00000
26.89387	2271.00000
26.91375	2225.00000
26.93362	2189.00000
26.95350	2155.00000
26.97337	2121.00000
26.99324	2100.00000
27.01312	2073.00000
27.03299	2055.00000
27.05287	2039.00000
27.07274	2024.00000
27.09261	2008.00000
27.11249	2002.00000
27.13236	1990.00000
27.15224	1976.00000
27.17211	1974.00000
27.19198	1965.00000
27.21186	1956.00000
27.23173	1948.00000
27.25161	1947.00000
27.27148	1941.00000
27.29135	1939.00000
27.31123	1944.00000
27.33110	1948.00000
27.35098	1958.00000
27.37085	1964.00000
27.39072	1974.00000
27.41060	1977.00000
27.43047	1978.00000
27.45035	1973.00000
27.47022	1972.00000
27.49009	1963.00000
27.50997	1963.00000
27.52984	1967.00000
27.54972	1966.00000
27.56959	1978.00000
27.58946	1984.00000
27.60934	1996.00000
27.62921	2008.00000
27.64909	2021.00000
27.66896	2042.00000
27.68883	2058.00000
27.70871	2079.00000
27.72858	2102.00000
27.74846	2115.00000
27.76833	2129.00000
27.78820	2134.00000
27.80808	2134.00000
27.82795	2130.00000
27.84783	2115.00000
27.86770	2105.00000
27.88757	2091.00000
27.90745	2076.00000
27.92732	2068.00000
27.94720	2060.00000
27.96707	2057.00000
27.98694	2064.00000
28.00682	2066.00000
28.02669	2076.00000
28.04657	2098.00000
28.06644	2109.00000
28.08631	2124.00000
28.10619	2147.00000
28.12606	2165.00000
28.14594	2175.00000
28.16581	2193.00000
28.18568	2208.00000
28.20556	2216.00000
28.22543	2223.00000
28.24531	2232.00000
28.26518	2239.00000
28.28505	2243.00000
28.30493	2239.00000
28.32480	2240.00000
28.34468	2235.00000
28.36455	2224.00000
28.38442	2208.00000
28.40430	2197.00000
28.42417	2179.00000
28.44405	2158.00000
28.46392	2141.00000
28.48379	2121.00000
28.50367	2099.00000
28.52354	2075.00000
28.54342	2055.00000
28.56329	2031.00000
28.58316	2003.00000
28.60304	1988.00000
28.62291	1965.00000
28.64279	1938.00000
28.66266	1926.00000
28.68253	1908.00000
28.70241	1890.00000
28.72228	1875.00000
28.74216	1867.00000
28.76203	1854.00000
28.78190	1837.00000
28.80178	1833.00000
28.82165	1820.00000
28.84153	1810.00000
28.86140	1809.00000
28.88127	1809.00000
28.90115	1820.00000
28.92102	1835.00000
28.94090	1849.00000
28.96077	1870.00000
28.98064	1893.00000
29.00052	1907.00000
29.02039	1919.00000
29.04027	1939.00000
29.06014	1943.00000
29.08001	1946.00000
29.09989	1950.00000
29.11976	1934.00000
29.13964	1922.00000
29.15951	1901.00000
29.17938	1874.00000
29.19926	1851.00000
29.21913	1834.00000
29.23901	1816.00000
29.25888	1810.00000
29.27875	1805.00000
29.29863	1808.00000
29.31850	1812.00000
29.33838	1816.00000
29.35825	1820.00000
29.37812	1831.00000
29.39800	1838.00000
29.41787	1851.00000
29.43775	1861.00000
29.45762	1878.00000
29.47749	1888.00000
29.49737	1895.00000
29.51724	1904.00000
29.53712	1898.00000
29.55699	1902.00000
29.57686	1898.00000
29.59674	1885.00000
29.61661	1885.00000
29.63649	1876.00000
29.65636	1866.00000
29.67623	1861.00000
29.69611	1860.00000
29.71598	1856.00000
29.73586	1861.00000
29.75573	1864.00000
29.77560	1866.00000
29.79548	1870.00000
29.81535	1869.00000
29.83523	1866.00000
29.85510	1857.00000
29.87497	1849.00000
29.89485	1837.00000
29.91472	1820.00000
29.93460	1809.00000
29.95447	1790.00000
29.97434	1778.00000
29.99422	1764.00000
30.01409	1756.00000
30.03397	1745.00000
30.05384	1740.00000
30.07371	1736.00000
30.09359	1732.00000
30.11346	1728.00000
30.13334	1729.00000
30.15321	1733.00000
30.17308	1735.00000
30.19296	1746.00000
30.21283	1754.00000
30.23270	1777.00000
30.25258	1792.00000
30.27245	1816.00000
30.29233	1845.00000
30.31220	1871.00000
30.33207	1893.00000
30.35195	1912.00000
30.37182	1925.00000
30.39170	1924.00000
30.41157	1916.00000
30.43144	1904.00000
30.45132	1881.00000
30.47119	1861.00000
30.49107	1843.00000
30.51094	1827.00000
30.53081	1817.00000
30.55069	1809.00000
30.57056	1810.00000
30.59044	1815.00000
30.61031	1819.00000
30.63018	1829.00000
30.65006	1849.00000
30.66993	1865.00000
30.68981	1887.00000
30.70968	1911.00000
30.72955	1940.00000
30.74943	1963.00000
30.76930	1979.00000
30.78918	1994.00000
30.80905	1998.00000
30.82892	1990.00000
30.84880	1973.00000
30.86867	1952.00000
30.88855	1924.00000
30.90842	1891.00000
30.92829	1866.00000
30.94817	1840.00000
30.96804	1823.00000
30.98792	1816.00000
31.00779	1815.00000
31.02766	1825.00000
31.04754	1844.00000
31.06741	1873.00000
31.08729	1896.00000
31.10716	1942.00000
31.12703	1974.00000
31.14691	2017.00000
31.16678	2063.00000
31.18666	2104.00000
31.20653	2148.00000
31.22640	2192.00000
31.24628	2225.00000
31.26615	2255.00000
31.28603	2277.00000
31.30590	2283.00000
31.32577	2282.00000
31.34565	2269.00000
31.36552	2246.00000
31.38540	2217.00000
31.40527	2188.00000
31.42514	2152.00000
31.44502	2129.00000
31.46489	2107.00000
31.48477	2091.00000
31.50464	2091.00000
31.52451	2095.00000
31.54439	2110.00000
31.56426	2133.00000
31.58414	2163.00000
31.60401	2204.00000
31.62388	2242.00000
31.64376	2296.00000
31.66363	2357.00000
31.68351	2410.00000
31.70338	2473.00000
31.72325	2535.00000
31.74313	2581.00000
31.76300	2611.00000
31.78288	2638.00000
31.80275	2630.00000
31.82262	2607.00000
31.84250	2572.00000
31.86237	2516.00000
31.88225	2455.00000
31.90212	2389.00000
31.92199	2316.00000
31.94187	2251.00000
31.96174	2199.00000
31.98162	2140.00000
32.00149	2102.00000
32.02136	2074.00000
32.04124	2046.00000
32.06111	2020.00000
32.08099	2001.00000
32.10086	1972.00000
32.12073	1944.00000
32.14061	1911.00000
32.16048	1874.00000
32.18036	1845.00000
32.20023	1811.00000
32.22010	1779.00000
32.23998	1750.00000
32.25985	1730.00000
32.27973	1700.00000
32.29960	1673.00000
32.31947	1655.00000
32.33935	1628.00000
32.35922	1603.00000
32.37910	1582.00000
32.39897	1562.00000
32.41884	1545.00000
32.43872	1532.00000
32.45859	1522.00000
32.47847	1517.00000
32.49834	1514.00000
32.51821	1510.00000
32.53809	1512.00000
32.55796	1508.00000
32.57784	1508.00000
32.59771	1512.00000
32.61758	1511.00000
32.63746	1522.00000
32.65733	1528.00000
32.67721	1544.00000
32.69708	1566.00000
32.71695	1583.00000
32.73683	1607.00000
32.75670	1636.00000
32.77658	1661.00000
32.79645	1689.00000
32.81632	1718.00000
32.83620	1744.00000
32.85607	1773.00000
32.87595	1791.00000
32.89582	1810.00000
32.91569	1827.00000
32.93557	1835.00000
32.95544	1847.00000
32.97532	1856.00000
32.99519	1867.00000
33.01506	1875.00000
33.03494	1885.00000
33.05481	1890.00000
33.07469	1894.00000
33.09456	1890.00000
33.11443	1881.00000
33.13431	1867.00000
33.15418	1850.00000
33.17406	1827.00000
33.19393	1806.00000
33.21380	1784.00000
33.23368	1761.00000
33.25355	1738.00000
33.27343	1717.00000
33.29330	1695.00000
33.31317	1677.00000
33.33305	1663.00000
33.35292	1647.00000
33.37280	1645.00000
33.39267	1643.00000
33.41254	1639.00000
33.43242	1638.00000
33.45229	1640.00000
33.47217	1634.00000
33.49204	1629.00000
33.51191	1626.00000
33.53179	1621.00000
33.55166	1619.00000
33.57154	1617.00000
33.59141	1621.00000
33.61128	1622.00000
33.63116	1629.00000
33.65103	1633.00000
33.67091	1641.00000
33.69078	1643.00000
33.71065	1648.00000
33.73053	1657.00000
33.75040	1658.00000
33.77028	1663.00000
33.79015	1673.00000
33.81002	1676.00000
33.82990	1688.00000
33.84977	1701.00000
33.86965	1724.00000
33.88952	1750.00000
33.90939	1781.00000
33.92927	1820.00000
33.94914	1868.00000
33.96902	1920.00000
33.98889	1976.00000
34.00876	2045.00000
34.02864	2121.00000
34.04851	2197.00000
34.06839	2275.00000
34.08826	2351.00000
34.10813	2420.00000
34.12801	2464.00000
34.14788	2496.00000
34.16776	2513.00000
34.18763	2497.00000
34.20750	2466.00000
34.22738	2428.00000
34.24725	2377.00000
34.26713	2317.00000
34.28700	2268.00000
34.30687	2223.00000
34.32675	2186.00000
34.34662	2156.00000
34.36650	2137.00000
34.38637	2121.00000
34.40624	2101.00000
34.42612	2080.00000
34.44599	2054.00000
34.46587	2018.00000
34.48574	1980.00000
34.50561	1942.00000
34.52549	1890.00000
34.54536	1852.00000
34.56524	1811.00000
34.58511	1768.00000
34.60498	1741.00000
34.62486	1716.00000
34.64473	1696.00000
34.66461	1691.00000
34.68448	1686.00000
34.70435	1689.00000
34.72423	1692.00000
34.74410	1697.00000
34.76398	1702.00000
34.78385	1700.00000
34.80372	1702.00000
34.82360	1701.00000
34.84347	1694.00000
34.86335	1689.00000
34.88322	1681.00000
34.90309	1669.00000
34.92297	1656.00000
34.94284	1635.00000
34.96272	1613.00000
34.98259	1590.00000
35.00246	1563.00000
35.02234	1538.00000
35.04221	1517.00000
35.06209	1497.00000
35.08196	1481.00000
35.10183	1466.00000
35.12171	1455.00000
35.14158	1444.00000
35.16146	1433.00000
35.18133	1427.00000
35.20120	1426.00000
35.22108	1422.00000
35.24095	1426.00000
35.26083	1432.00000
35.28070	1437.00000
35.30057	1442.00000
35.32045	1449.00000
35.34032	1452.00000
35.36020	1453.00000
35.38007	1456.00000
35.39994	1468.00000
35.41982	1469.00000
35.43969	1480.00000
35.45957	1494.00000
35.47944	1500.00000
35.49931	1514.00000
35.51919	1512.00000
35.53906	1518.00000
35.55894	1520.00000
35.57881	1516.00000
35.59868	1520.00000
35.61856	1523.00000
35.63843	1529.00000
35.65831	1535.00000
35.67818	1539.00000
35.69805	1544.00000
35.71793	1547.00000
35.73780	1548.00000
35.75768	1555.00000
35.77755	1555.00000
35.79742	1568.00000
35.81730	1575.00000
35.83717	1579.00000
35.85705	1592.00000
35.87692	1589.00000
35.89679	1591.00000
35.91667	1586.00000
35.93654	1577.00000
35.95642	1569.00000
35.97629	1558.00000
35.99616	1543.00000
36.01604	1533.00000
36.03591	1524.00000
36.05579	1509.00000
36.07566	1500.00000
36.09553	1493.00000
36.11541	1487.00000
36.13528	1478.00000
36.15516	1473.00000
36.17503	1473.00000
36.19490	1464.00000
36.21478	1460.00000
36.23465	1464.00000
36.25453	1456.00000
36.27440	1462.00000
36.29427	1465.00000
36.31415	1466.00000
36.33402	1466.00000
36.35390	1469.00000
36.37377	1463.00000
36.39364	1458.00000
36.41352	1459.00000
36.43339	1454.00000
36.45327	1451.00000
36.47314	1453.00000
36.49301	1454.00000
36.51289	1451.00000
36.53276	1450.00000
36.55264	1451.00000
36.57251	1454.00000
36.59238	1455.00000
36.61226	1462.00000
36.63213	1470.00000
36.65201	1474.00000
36.67188	1482.00000
36.69175	1483.00000
36.71163	1485.00000
36.73150	1487.00000
36.75138	1486.00000
36.77125	1490.00000
36.79112	1499.00000
36.81100	1506.00000
36.83087	1515.00000
36.85075	1524.00000
36.87062	1532.00000
36.89049	1522.00000
36.91037	1517.00000
36.93024	1505.00000
36.95012	1483.00000
36.96999	1469.00000
36.98986	1456.00000
37.00974	1449.00000
37.02961	1442.00000
37.04949	1443.00000
37.06936	1445.00000
37.08923	1444.00000
37.10911	1450.00000
37.12898	1452.00000
37.14886	1459.00000
37.16873	1465.00000
37.18860	1483.00000
37.20848	1498.00000
37.22835	1519.00000
37.24823	1544.00000
37.26810	1568.00000
37.28797	1590.00000
37.30785	1605.00000
37.32772	1622.00000
37.34760	1619.00000
37.36747	1614.00000
37.38734	1604.00000
37.40722	1585.00000
37.42709	1560.00000
37.44697	1546.00000
37.46684	1520.00000
37.48671	1500.00000
37.50659	1485.00000
37.52646	1468.00000
37.54634	1449.00000
37.56621	1442.00000
37.58608	1432.00000
37.60596	1425.00000
37.62583	1420.00000
37.64571	1420.00000
37.66558	1423.00000
37.68545	1423.00000
37.70533	1426.00000
37.72520	1436.00000
37.74508	1439.00000
37.76495	1445.00000
37.78482	1453.00000
37.80470	1465.00000
37.82457	1471.00000
37.84445	1480.00000
37.86432	1495.00000
37.88419	1502.00000
37.90407	1514.00000
37.92394	1526.00000
37.94382	1535.00000
37.96369	1541.00000
37.98356	1545.00000
38.00344	1544.00000
38.02331	1547.00000
38.04319	1543.00000
38.06306	1544.00000
38.08293	1541.00000
38.10281	1541.00000
38.12268	1535.00000
38.14256	1531.00000
38.16243	1522.00000
38.18230	1515.00000
38.20218	1506.00000
38.22205	1499.00000
38.24193	1493.00000
38.26180	1490.00000
38.28167	1484.00000
38.30155	1485.00000
38.32142	1482.00000
38.34130	1479.00000
38.36117	1484.00000
38.38104	1481.00000
38.40092	1482.00000
38.42079	1490.00000
38.44067	1496.00000
38.46054	1501.00000
38.48041	1522.00000
38.50029	1533.00000
38.52016	1550.00000
38.54004	1573.00000
38.55991	1588.00000
38.57978	1612.00000
38.59966	1635.00000
38.61953	1655.00000
38.63941	1680.00000
38.65928	1700.00000
38.67915	1724.00000
38.69903	1741.00000
38.71890	1751.00000
38.73878	1766.00000
38.75865	1769.00000
38.77852	1768.00000
38.79840	1765.00000
38.81827	1755.00000
38.83815	1744.00000
38.85802	1722.00000
38.87789	1708.00000
38.89777	1686.00000
38.91764	1666.00000
38.93752	1653.00000
38.95739	1647.00000
38.97726	1633.00000
38.99714	1633.00000
39.01701	1634.00000
39.03689	1633.00000
39.05676	1636.00000
39.07663	1643.00000
39.09651	1647.00000
39.11638	1656.00000
39.13626	1659.00000
39.15613	1665.00000
39.17600	1665.00000
39.19588	1665.00000
39.21575	1653.00000
39.23563	1644.00000
39.25550	1630.00000
39.27537	1605.00000
39.29525	1590.00000
39.31512	1564.00000
39.33500	1546.00000
39.35487	1524.00000
39.37474	1505.00000
39.39462	1488.00000
39.41449	1469.00000
39.43437	1450.00000
39.45424	1430.00000
39.47411	1413.00000
39.49399	1394.00000
39.51386	1375.00000
39.53374	1359.00000
39.55361	1347.00000
39.57348	1334.00000
39.59336	1328.00000
39.61323	1322.00000
39.63311	1317.00000
39.65298	1314.00000
39.67285	1309.00000
39.69273	1309.00000
39.71260	1306.00000
39.73248	1307.00000
39.75235	1310.00000
39.77222	1312.00000
39.79210	1314.00000
39.81197	1315.00000
39.83185	1309.00000
39.85172	1304.00000
39.87159	1298.00000
39.89147	1287.00000
39.91134	1282.00000
39.93122	1276.00000
39.95109	1273.00000
39.97096	1272.00000
39.99084	1271.00000
40.01071	1276.00000
40.03059	1273.00000
40.05046	1278.00000
40.07033	1286.00000
40.09021	1288.00000
40.11008	1294.00000
40.12996	1308.00000
40.14983	1311.00000
40.16970	1315.00000
40.18958	1321.00000
40.20945	1317.00000
40.22933	1313.00000
40.24920	1306.00000
40.26907	1300.00000
40.28895	1294.00000
40.30882	1292.00000
40.32870	1297.00000
40.34857	1299.00000
40.36844	1310.00000
40.38832	1322.00000
40.40819	1329.00000
40.42807	1338.00000
40.44794	1346.00000
40.46781	1346.00000
40.48769	1353.00000
40.50756	1353.00000
40.52744	1354.00000
40.54731	1363.00000
40.56718	1366.00000
40.58706	1372.00000
40.60693	1385.00000
40.62681	1393.00000
40.64668	1403.00000
40.66655	1412.00000
40.68643	1418.00000
40.70630	1418.00000
40.72618	1420.00000
40.74605	1418.00000
40.76592	1415.00000
40.78580	1413.00000
40.80567	1413.00000
40.82555	1410.00000
40.84542	1411.00000
40.86529	1408.00000
40.88517	1401.00000
40.90504	1395.00000
40.92492	1387.00000
40.94479	1374.00000
40.96466	1368.00000
40.98454	1359.00000
41.00441	1358.00000
41.02429	1357.00000
41.04416	1362.00000
41.06403	1370.00000
41.08391	1373.00000
41.10378	1384.00000
41.12366	1391.00000
41.14353	1399.00000
41.16340	1413.00000
41.18328	1422.00000
41.20315	1434.00000
41.22303	1449.00000
41.24290	1458.00000
41.26277	1467.00000
41.28265	1477.00000
41.30252	1489.00000
41.32240	1493.00000
41.34227	1501.00000
41.36214	1510.00000
41.38202	1510.00000
41.40189	1505.00000
41.42177	1503.00000
41.44164	1490.00000
41.46151	1478.00000
41.48139	1466.00000
41.50126	1454.00000
41.52114	1449.00000
41.54101	1442.00000
41.56088	1443.00000
41.58076	1446.00000
41.60063	1452.00000
41.62051	1462.00000
41.64038	1470.00000
41.66025	1482.00000
41.68013	1490.00000
41.70000	1507.00000
41.71988	1515.00000
41.73975	1524.00000
41.75962	1540.00000
41.77950	1544.00000
41.79937	1558.00000
41.81925	1564.00000
41.83912	1576.00000
41.85899	1588.00000
41.87887	1596.00000
41.89874	1605.00000
41.91862	1613.00000
41.93849	1618.00000
41.95836	1616.00000
41.97824	1619.00000
41.99811	1618.00000
42.01799	1617.00000
42.03786	1612.00000
42.05773	1611.00000
42.07761	1602.00000
42.09748	1591.00000
42.11736	1579.00000
42.13723	1563.00000
42.15710	1548.00000
42.17698	1531.00000
42.19685	1514.00000
42.21673	1500.00000
42.23660	1486.00000
42.25647	1468.00000
42.27635	1459.00000
42.29622	1446.00000
42.31610	1432.00000
42.33597	1422.00000
42.35584	1416.00000
42.37572	1404.00000
42.39559	1401.00000
42.41547	1401.00000
42.43534	1399.00000
42.45521	1402.00000
42.47509	1409.00000
42.49496	1409.00000
42.51484	1412.00000
42.53471	1411.00000
42.55458	1409.00000
42.57446	1403.00000
42.59433	1404.00000
42.61421	1403.00000
42.63408	1401.00000
42.65395	1404.00000
42.67383	1408.00000
42.69370	1403.00000
42.71358	1401.00000
42.73345	1398.00000
42.75332	1394.00000
42.77320	1384.00000
42.79307	1382.00000
42.81295	1378.00000
42.83282	1375.00000
42.85269	1373.00000
42.87257	1376.00000
42.89244	1373.00000
42.91232	1377.00000
42.93219	1377.00000
42.95206	1375.00000
42.97194	1369.00000
42.99181	1372.00000
43.01169	1357.00000
43.03156	1357.00000
43.05143	1353.00000
43.07131	1345.00000
43.09118	1346.00000
43.11106	1341.00000
43.13093	1339.00000
43.15080	1337.00000
43.17068	1336.00000
43.19055	1334.00000
43.21043	1331.00000
43.23030	1332.00000
43.25017	1329.00000
43.27005	1334.00000
43.28992	1328.00000
43.30980	1335.00000
43.32967	1334.00000
43.34954	1328.00000
43.36942	1325.00000
43.38929	1317.00000
43.40917	1308.00000
43.42904	1298.00000
43.44891	1293.00000
43.46879	1294.00000
43.48866	1292.00000
43.50854	1302.00000
43.52841	1309.00000
43.54828	1317.00000
43.56816	1329.00000
43.58803	1341.00000
43.60791	1355.00000
43.62778	1367.00000
43.64765	1387.00000
43.66753	1406.00000
43.68740	1422.00000
43.70728	1449.00000
43.72715	1471.00000
43.74702	1501.00000
43.76690	1533.00000
43.78677	1570.00000
43.80665	1609.00000
43.82652	1644.00000
43.84639	1684.00000
43.86627	1716.00000
43.88614	1743.00000
43.90602	1767.00000
43.92589	1786.00000
43.94576	1795.00000
43.96564	1798.00000
43.98551	1797.00000
44.00539	1788.00000
44.02526	1769.00000
44.04513	1751.00000
44.06501	1726.00000
44.08488	1694.00000
44.10476	1662.00000
44.12463	1631.00000
44.14450	1593.00000
44.16438	1565.00000
44.18425	1532.00000
44.20413	1508.00000
44.22400	1489.00000
44.24387	1473.00000
44.26375	1464.00000
44.28362	1458.00000
44.30350	1454.00000
44.32337	1454.00000
44.34324	1448.00000
44.36312	1451.00000
44.38299	1447.00000
44.40287	1446.00000
44.42274	1442.00000
44.44261	1439.00000
44.46249	1435.00000
44.48236	1428.00000
44.50224	1424.00000
44.52211	1416.00000
44.54198	1412.00000
44.56186	1410.00000
44.58173	1408.00000
44.60161	1404.00000
44.62148	1402.00000
44.64135	1396.00000
44.66123	1388.00000
44.68110	1380.00000
44.70098	1371.00000
44.72085	1359.00000
44.74072	1358.00000
44.76060	1351.00000
44.78047	1347.00000
44.80035	1347.00000
44.82022	1346.00000
44.84009	1341.00000
44.85997	1340.00000
44.87984	1339.00000
44.89972	1340.00000
44.91959	1340.00000
44.93946	1344.00000
44.95934	1354.00000
44.97921	1357.00000
44.99909	1368.00000
45.01896	1380.00000
45.03883	1394.00000
45.05871	1406.00000
45.07858	1426.00000
45.09846	1441.00000
45.11833	1461.00000
45.13820	1476.00000
45.15808	1491.00000
45.17795	1503.00000
45.19783	1518.00000
45.21770	1529.00000
45.23757	1540.00000
45.25745	1548.00000
45.27732	1558.00000
45.29720	1563.00000
45.31707	1566.00000
45.33694	1565.00000
45.35682	1563.00000
45.37669	1558.00000
45.39657	1551.00000
45.41644	1534.00000
45.43631	1528.00000
45.45619	1509.00000
45.47606	1493.00000
45.49594	1479.00000
45.51581	1466.00000
45.53568	1450.00000
45.55556	1440.00000
45.57543	1425.00000
45.59531	1414.00000
45.61518	1400.00000
45.63505	1386.00000
45.65493	1374.00000
45.67480	1362.00000
45.69468	1353.00000
45.71455	1344.00000
45.73442	1339.00000
45.75430	1334.00000
45.77417	1329.00000
45.79405	1326.00000
45.81392	1321.00000
45.83379	1312.00000
45.85367	1305.00000
45.87354	1295.00000
45.89342	1281.00000
45.91329	1272.00000
45.93316	1261.00000
45.95304	1257.00000
45.97291	1247.00000
45.99279	1247.00000
46.01266	1250.00000
46.03253	1248.00000
46.05241	1245.00000
46.07228	1248.00000
46.09216	1241.00000
46.11203	1237.00000
46.13190	1232.00000
46.15178	1229.00000
46.17165	1230.00000
46.19153	1232.00000
46.21140	1234.00000
46.23127	1244.00000
46.25115	1242.00000
46.27102	1245.00000
46.29090	1243.00000
46.31077	1239.00000
46.33064	1235.00000
46.35052	1232.00000
46.37039	1230.00000
46.39027	1234.00000
46.41014	1230.00000
46.43001	1232.00000
46.44989	1236.00000
46.46976	1225.00000
46.48964	1224.00000
46.50951	1223.00000
46.52938	1217.00000
46.54926	1217.00000
46.56913	1218.00000
46.58901	1224.00000
46.60888	1224.00000
46.62875	1229.00000
46.64863	1236.00000
46.66850	1233.00000
46.68838	1234.00000
46.70825	1237.00000
46.72812	1231.00000
46.74800	1235.00000
46.76787	1236.00000
46.78775	1241.00000
46.80762	1249.00000
46.82749	1258.00000
46.84737	1266.00000
46.86724	1269.00000
46.88712	1275.00000
46.90699	1274.00000
46.92686	1268.00000
46.94674	1274.00000
46.96661	1263.00000
46.98649	1263.00000
47.00636	1262.00000
47.02623	1258.00000
47.04611	1252.00000
47.06598	1253.00000
47.08586	1249.00000
47.10573	1246.00000
47.12560	1247.00000
47.14548	1246.00000
47.16535	1249.00000
47.18523	1253.00000
47.20510	1258.00000
47.22497	1262.00000
47.24485	1273.00000
47.26472	1279.00000
47.28460	1287.00000
47.30447	1294.00000
47.32434	1306.00000
47.34422	1314.00000
47.36409	1328.00000
47.38397	1344.00000
47.40384	1367.00000
47.42371	1391.00000
47.44359	1415.00000
47.46346	1437.00000
47.48334	1459.00000
47.50321	1472.00000
47.52308	1473.00000
47.54296	1481.00000
47.56283	1478.00000
47.58271	1472.00000
47.60258	1467.00000
47.62245	1466.00000
47.64233	1457.00000
47.66220	1449.00000
47.68208	1442.00000
47.70195	1430.00000
47.72182	1411.00000
47.74170	1404.00000
47.76157	1387.00000
47.78145	1373.00000
47.80132	1368.00000
47.82119	1359.00000
47.84107	1352.00000
47.86094	1348.00000
47.88082	1346.00000
47.90069	1336.00000
47.92056	1325.00000
47.94044	1320.00000
47.96031	1306.00000
47.98019	1294.00000
48.00006	1287.00000
48.01993	1279.00000
48.03981	1273.00000
48.05968	1274.00000
48.07956	1270.00000
48.09943	1269.00000
48.11930	1271.00000
48.13918	1265.00000
48.15905	1256.00000
48.17893	1252.00000
48.19880	1241.00000
48.21867	1229.00000
48.23855	1220.00000
48.25842	1213.00000
48.27830	1204.00000
48.29817	1198.00000
48.31804	1194.00000
48.33792	1194.00000
48.35779	1193.00000
48.37767	1194.00000
48.39754	1198.00000
48.41741	1200.00000
48.43729	1202.00000
48.45716	1203.00000
48.47704	1201.00000
48.49691	1203.00000
48.51678	1201.00000
48.53666	1197.00000
48.55653	1203.00000
48.57641	1200.00000
48.59628	1199.00000
48.61615	1203.00000
48.63603	1200.00000
48.65590	1201.00000
48.67578	1199.00000
48.69565	1199.00000
48.71552	1201.00000
48.73540	1200.00000
48.75527	1205.00000
48.77515	1210.00000
48.79502	1218.00000
48.81489	1221.00000
48.83477	1231.00000
48.85464	1231.00000
48.87452	1234.00000
48.89439	1233.00000
48.91426	1233.00000
48.93414	1232.00000
48.95401	1234.00000
48.97389	1238.00000
48.99376	1240.00000
49.01363	1239.00000
49.03351	1241.00000
49.05338	1236.00000
49.07326	1235.00000
49.09313	1228.00000
49.11300	1230.00000
49.13288	1230.00000
49.15275	1228.00000
49.17263	1231.00000
49.19250	1234.00000
49.21237	1229.00000
49.23225	1227.00000
49.25212	1227.00000
49.27200	1220.00000
49.29187	1217.00000
49.31174	1215.00000
49.33162	1215.00000
49.35149	1215.00000
49.37137	1214.00000
49.39124	1224.00000
49.41111	1225.00000
49.43099	1229.00000
49.45086	1238.00000
49.47074	1242.00000
49.49061	1246.00000
49.51048	1252.00000
49.53036	1255.00000
49.55023	1260.00000
49.57011	1264.00000
49.58998	1271.00000
49.60985	1277.00000
49.62973	1285.00000
49.64960	1288.00000
49.66948	1293.00000
49.68935	1301.00000
49.70922	1299.00000
49.72910	1304.00000
49.74897	1306.00000
49.76885	1304.00000
49.78872	1308.00000
49.80859	1300.00000
49.82847	1297.00000
49.84834	1289.00000
49.86822	1276.00000
49.88809	1265.00000
49.90796	1255.00000
49.92784	1244.00000
49.94771	1234.00000
49.96759	1229.00000
49.98746	1221.00000
50.00733	1215.00000
50.02721	1209.00000
50.04708	1203.00000
50.06696	1197.00000
50.08683	1189.00000
50.10670	1185.00000
50.12658	1177.00000
50.14645	1175.00000
50.16633	1169.00000
50.18620	1170.00000
50.20607	1170.00000
50.22595	1172.00000
50.24582	1177.00000
50.26570	1180.00000
50.28557	1179.00000
50.30544	1182.00000
50.32532	1183.00000
50.34519	1180.00000
50.36507	1182.00000
50.38494	1184.00000
50.40481	1181.00000
50.42469	1183.00000
50.44456	1183.00000
50.46444	1182.00000
50.48431	1181.00000
50.50418	1185.00000
50.52406	1185.00000
50.54393	1189.00000
50.56381	1199.00000
50.58368	1201.00000
50.60355	1209.00000
50.62343	1219.00000
50.64330	1220.00000
50.66318	1229.00000
50.68305	1237.00000
50.70292	1240.00000
50.72280	1248.00000
50.74267	1252.00000
50.76255	1258.00000
50.78242	1264.00000
50.80229	1261.00000
50.82217	1273.00000
50.84204	1275.00000
50.86192	1278.00000
50.88179	1282.00000
50.90166	1289.00000
50.92154	1289.00000
50.94141	1289.00000
50.96129	1287.00000
50.98116	1285.00000
51.00103	1274.00000
51.02091	1268.00000
51.04078	1259.00000
51.06066	1250.00000
51.08053	1240.00000
51.10040	1237.00000
51.12028	1230.00000
51.14015	1226.00000
51.16003	1222.00000
51.17990	1214.00000
51.19977	1210.00000
51.21965	1196.00000
51.23952	1193.00000
51.25940	1184.00000
51.27927	1181.00000
51.29914	1180.00000
51.31902	1182.00000
51.33889	1182.00000
51.35877	1179.00000
51.37864	1178.00000
51.39851	1175.00000
51.41839	1166.00000
51.43826	1159.00000
51.45814	1159.00000
51.47801	1152.00000
51.49788	1149.00000
51.51776	1151.00000
51.53763	1149.00000
51.55751	1146.00000
51.57738	1150.00000
51.59725	1143.00000
51.61713	1141.00000
51.63700	1140.00000
51.65688	1134.00000
51.67675	1132.00000
51.69662	1124.00000
51.71650	1128.00000
51.73637	1122.00000
51.75625	1117.00000
51.77612	1116.00000
51.79599	1112.00000
51.81587	1104.00000
51.83574	1101.00000
51.85562	1095.00000
51.87549	1094.00000
51.89536	1094.00000
51.91524	1096.00000
51.93511	1099.00000
51.95499	1106.00000
51.97486	1109.00000
51.99473	1111.00000
52.01461	1114.00000
52.03448	1115.00000
52.05436	1117.00000
52.07423	1115.00000
52.09410	1121.00000
52.11398	1125.00000
52.13385	1126.00000
52.15373	1135.00000
52.17360	1144.00000
52.19347	1148.00000
52.21335	1158.00000
52.23322	1166.00000
52.25310	1174.00000
52.27297	1182.00000
52.29284	1193.00000
52.31272	1204.00000
52.33259	1214.00000
52.35247	1228.00000
52.37234	1237.00000
52.39221	1243.00000
52.41209	1249.00000
52.43196	1247.00000
52.45184	1242.00000
52.47171	1232.00000
52.49158	1225.00000
52.51146	1212.00000
52.53133	1200.00000
52.55121	1199.00000
52.57108	1189.00000
52.59095	1187.00000
52.61083	1187.00000
52.63070	1187.00000
52.65058	1185.00000
52.67045	1189.00000
52.69032	1188.00000
52.71020	1188.00000
52.73007	1186.00000
52.74995	1185.00000
52.76982	1178.00000
52.78969	1174.00000
52.80957	1162.00000
52.82944	1155.00000
52.84932	1145.00000
52.86919	1131.00000
52.88906	1127.00000
52.90894	1117.00000
52.92881	1112.00000
52.94869	1111.00000
52.96856	1111.00000
52.98843	1111.00000
53.00831	1114.00000
53.02818	1119.00000
53.04806	1118.00000
53.06793	1124.00000
53.08780	1131.00000
53.10768	1138.00000
53.12755	1148.00000
53.14743	1159.00000
53.16730	1174.00000
53.18717	1176.00000
53.20705	1183.00000
53.22692	1185.00000
53.24680	1182.00000
53.26667	1174.00000
53.28654	1172.00000
53.30642	1170.00000
53.32629	1165.00000
53.34617	1167.00000
53.36604	1171.00000
53.38591	1168.00000
53.40579	1169.00000
53.42566	1161.00000
53.44554	1157.00000
53.46541	1145.00000
53.48528	1136.00000
53.50516	1135.00000
53.52503	1130.00000
53.54491	1129.00000
53.56478	1133.00000
53.58465	1135.00000
53.60453	1130.00000
53.62440	1132.00000
53.64428	1128.00000
53.66415	1118.00000
53.68402	1115.00000
53.70390	1111.00000
53.72377	1109.00000
53.74365	1111.00000
53.76352	1111.00000
53.78339	1120.00000
53.80327	1122.00000
53.82314	1126.00000
53.84302	1127.00000
53.86289	1128.00000
53.88276	1128.00000
53.90264	1125.00000
53.92251	1124.00000
53.94239	1128.00000
53.96226	1125.00000
53.98213	1125.00000
54.00201	1129.00000
54.02188	1127.00000
54.04176	1124.00000
54.06163	1120.00000
54.08150	1119.00000
54.10138	1113.00000
54.12125	1107.00000
54.14113	1109.00000
54.16100	1104.00000
54.18087	1100.00000
54.20075	1097.00000
54.22062	1095.00000
54.24050	1083.00000
54.26037	1075.00000
54.28024	1067.00000
54.30012	1056.00000
54.31999	1048.00000
54.33987	1042.00000
54.35974	1036.00000
54.37961	1030.00000
54.39949	1026.00000
54.41936	1021.00000
54.43924	1018.00000
54.45911	1013.00000
54.47898	1011.00000
54.49886	1010.00000
54.51873	1004.00000
54.53861	1003.00000
54.55848	999.00000
54.57835	997.00000
54.59823	993.00000
54.61810	997.00000
54.63798	1000.00000
54.65785	1006.00000
54.67772	1010.00000
54.69760	1017.00000
54.71747	1020.00000
54.73735	1020.00000
54.75722	1015.00000
54.77709	1017.00000
54.79697	1011.00000
54.81684	1005.00000
54.83672	1006.00000
54.85659	1001.00000
54.87646	996.00000
54.89634	992.00000
54.91621	987.00000
54.93609	982.00000
54.95596	978.00000
54.97583	977.00000
54.99571	978.00000
55.01558	978.00000
55.03546	985.00000
55.05533	990.00000
55.07520	994.00000
55.09508	998.00000
55.11495	1004.00000
55.13483	1005.00000
55.15470	1004.00000
55.17457	1009.00000
55.19445	1009.00000
55.21432	1013.00000
55.23420	1014.00000
55.25407	1022.00000
55.27394	1025.00000
55.29382	1024.00000
55.31369	1026.00000
55.33357	1027.00000
55.35344	1024.00000
55.37331	1024.00000
55.39319	1030.00000
55.41306	1026.00000
55.43294	1035.00000
55.45281	1033.00000
55.47268	1029.00000
55.49256	1027.00000
55.51243	1024.00000
55.53231	1014.00000
55.55218	1011.00000
55.57205	1015.00000
55.59193	1014.00000
55.61180	1018.00000
55.63168	1026.00000
55.65155	1028.00000
55.67142	1028.00000
55.69130	1025.00000
55.71117	1023.00000
55.73105	1013.00000
55.75092	1007.00000
55.77079	1004.00000
55.79067	997.00000
55.81054	990.00000
55.83042	992.00000
55.85029	989.00000
55.87016	986.00000
55.89004	985.00000
55.90991	983.00000
55.92979	985.00000
55.94966	977.00000
55.96953	979.00000
55.98941	977.00000
56.00928	973.00000
56.02916	968.00000
56.04903	967.00000
56.06890	965.00000
56.08878	959.00000
56.10865	957.00000
56.12853	957.00000
56.14840	955.00000
56.16827	949.00000
56.18815	953.00000
56.20802	953.00000
56.22790	954.00000
56.24777	958.00000
56.26764	965.00000
56.28752	968.00000
56.30739	972.00000
56.32727	978.00000
56.34714	978.00000
56.36701	982.00000
56.38689	983.00000
56.40676	983.00000
56.42664	986.00000
56.44651	983.00000
56.46638	983.00000
56.48626	978.00000
56.50613	976.00000
56.52601	975.00000
56.54588	971.00000
56.56575	976.00000
56.58563	977.00000
56.60550	981.00000
56.62538	984.00000
56.64525	985.00000
56.66512	989.00000
56.68500	986.00000
56.70487	985.00000
56.72475	981.00000
56.74462	977.00000
56.76449	971.00000
56.78437	966.00000
56.80424	959.00000
56.82412	954.00000
56.84399	948.00000
56.86386	943.00000
56.88374	939.00000
56.90361	937.00000
56.92349	936.00000
56.94336	936.00000
56.96323	936.00000
56.98311	941.00000
57.00298	944.00000
57.02286	949.00000
57.04273	955.00000
57.06260	961.00000
57.08248	967.00000
57.10235	970.00000
57.12223	974.00000
57.14210	974.00000
57.16197	969.00000
57.18185	967.00000
57.20172	963.00000
57.22160	960.00000
57.24147	958.00000
57.26134	964.00000
57.28122	965.00000
57.30109	971.00000
57.32097	977.00000
57.34084	975.00000
57.36071	978.00000
57.38059	973.00000
57.40046	971.00000
57.42034	966.00000
57.44021	966.00000
57.46008	962.00000
57.47996	961.00000
57.49983	956.00000
57.51971	954.00000
57.53958	947.00000
57.55945	941.00000
57.57933	939.00000
57.59920	936.00000
57.61908	932.00000
57.63895	934.00000
57.65882	932.00000
57.67870	933.00000
57.69857	931.00000
57.71845	932.00000
57.73832	933.00000
57.75819	933.00000
57.77807	936.00000
57.79794	940.00000
57.81782	940.00000
57.83769	944.00000
57.85756	948.00000
57.87744	948.00000
57.89731	951.00000
57.91719	953.00000
57.93706	950.00000
57.95693	947.00000
57.97681	945.00000
57.99668	934.00000
58.01656	931.00000
58.03643	928.00000
58.05630	925.00000
58.07618	930.00000
58.09605	936.00000
58.11593	944.00000
58.13580	951.00000
58.15567	960.00000
58.17555	970.00000
58.19542	974.00000
58.21530	980.00000
58.23517	991.00000
58.25504	992.00000
58.27492	994.00000
58.29479	1001.00000
58.31467	998.00000
58.33454	998.00000
58.35441	1003.00000
58.37429	1002.00000
58.39416	1003.00000
58.41404	1008.00000
58.43391	1006.00000
58.45378	1007.00000
58.47366	1007.00000
58.49353	1005.00000
58.51341	1006.00000
58.53328	1005.00000
58.55315	1004.00000
58.57303	1006.00000
58.59290	1004.00000
58.61278	1005.00000
58.63265	1006.00000
58.65252	1002.00000
58.67240	1003.00000
58.69227	999.00000
58.71215	998.00000
58.73202	994.00000
58.75189	994.00000
58.77177	989.00000
58.79164	982.00000
58.81152	980.00000
58.83139	969.00000
58.85126	963.00000
58.87114	953.00000
58.89101	949.00000
58.91089	942.00000
58.93076	938.00000
58.95063	937.00000
58.97051	932.00000
58.99038	936.00000
59.01026	932.00000
59.03013	934.00000
59.05000	937.00000
59.06988	932.00000
59.08975	937.00000
59.10963	934.00000
59.12950	932.00000
59.14937	929.00000
59.16925	929.00000
59.18912	925.00000
59.20900	921.00000
59.22887	919.00000
59.24874	916.00000
59.26862	913.00000
59.28849	911.00000
59.30837	906.00000
59.32824	908.00000
59.34811	906.00000
59.36799	902.00000
59.38786	910.00000
59.40774	911.00000
59.42761	912.00000
59.44748	919.00000
59.46736	921.00000
59.48723	920.00000
59.50711	920.00000
59.52698	919.00000
59.54685	915.00000
59.56673	911.00000
59.58660	907.00000
59.60648	905.00000
59.62635	904.00000
59.64622	902.00000
59.66610	903.00000
59.68597	905.00000
59.70585	905.00000
59.72572	902.00000
59.74559	902.00000
59.76547	896.00000
59.78534	895.00000
59.80522	891.00000
59.82509	889.00000
59.84496	889.00000
59.86484	892.00000
59.88471	887.00000
59.90459	888.00000
59.92446	885.00000
59.94433	879.00000
59.96421	874.00000
59.98408	869.00000
60.00396	865.00000
60.02383	860.00000
60.04370	860.00000
60.06358	863.00000
60.08345	866.00000
60.10333	872.00000
60.12320	876.00000
60.14307	878.00000
60.16295	879.00000
60.18282	876.00000
60.20270	871.00000
60.22257	871.00000
60.24244	867.00000
60.26232	867.00000
60.28219	873.00000
60.30207	874.00000
60.32194	878.00000
60.34181	883.00000
60.36169	881.00000
60.38156	878.00000
60.40144	876.00000
60.42131	870.00000
60.44118	869.00000
60.46106	868.00000
60.48093	871.00000
60.50081	880.00000
60.52068	885.00000
60.54055	893.00000
60.56043	898.00000
60.58030	899.00000
60.60018	899.00000
60.62005	897.00000
60.63992	896.00000
60.65980	890.00000
60.67967	889.00000
60.69955	889.00000
60.71942	886.00000
60.73929	883.00000
60.75917	884.00000
60.77904	880.00000
60.79892	879.00000
60.81879	877.00000
60.83866	877.00000
60.85854	877.00000
60.87841	874.00000
60.89829	874.00000
60.91816	874.00000
60.93803	868.00000
60.95791	865.00000
60.97778	864.00000
60.99766	862.00000
61.01753	859.00000
61.03740	859.00000
61.05728	864.00000
61.07715	865.00000
61.09703	867.00000
61.11690	872.00000
61.13677	875.00000
61.15665	877.00000
61.17652	880.00000
61.19640	878.00000
61.21627	879.00000
61.23614	874.00000
61.25602	870.00000
61.27589	867.00000
61.29577	864.00000
61.31564	861.00000
61.33551	861.00000
61.35539	865.00000
61.37526	862.00000
61.39514	865.00000
61.41501	866.00000
61.43488	866.00000
61.45476	869.00000
61.47463	870.00000
61.49451	876.00000
61.51438	877.00000
61.53425	885.00000
61.55413	887.00000
61.57400	893.00000
61.59388	896.00000
61.61375	900.00000
61.63362	903.00000
61.65350	901.00000
61.67337	904.00000
61.69325	900.00000
61.71312	900.00000
61.73299	896.00000
61.75287	894.00000
61.77274	894.00000
61.79262	890.00000
61.81249	888.00000
61.83236	890.00000
61.85224	887.00000
61.87211	888.00000
61.89199	890.00000
61.91186	892.00000
61.93173	896.00000
61.95161	896.00000
61.97148	897.00000
61.99136	898.00000
62.01123	896.00000
62.03110	889.00000
62.05098	889.00000
62.07085	884.00000
62.09073	880.00000
62.11060	877.00000
62.13047	877.00000
62.15035	881.00000
62.17022	882.00000
62.19010	893.00000
62.20997	898.00000
62.22984	906.00000
62.24972	910.00000
62.26959	913.00000
62.28947	914.00000
62.30934	909.00000
62.32921	906.00000
62.34909	903.00000
62.36896	899.00000
62.38884	900.00000
62.40871	899.00000
62.42858	900.00000
62.44846	903.00000
62.46833	903.00000
62.48821	905.00000
62.50808	907.00000
62.52795	909.00000
62.54783	909.00000
62.56770	911.00000
62.58758	909.00000
62.60745	911.00000
62.62732	907.00000
62.64720	902.00000
62.66707	899.00000
62.68695	894.00000
62.70682	886.00000
62.72669	883.00000
62.74657	881.00000
62.76644	876.00000
62.78632	874.00000
62.80619	873.00000
62.82606	871.00000
62.84594	867.00000
62.86581	867.00000
62.88569	868.00000
62.90556	871.00000
62.92543	872.00000
62.94531	877.00000
62.96518	884.00000
62.98506	887.00000
63.00493	890.00000
63.02480	893.00000
63.04468	890.00000
63.06455	886.00000
63.08443	878.00000
63.10430	875.00000
63.12417	867.00000
63.14405	865.00000
63.16392	865.00000
63.18380	867.00000
63.20367	869.00000
63.22354	871.00000
63.24342	872.00000
63.26329	874.00000
63.28317	869.00000
63.30304	869.00000
63.32291	870.00000
63.34279	866.00000
63.36266	867.00000
63.38254	865.00000
63.40241	869.00000
63.42228	866.00000
63.44216	863.00000
63.46203	866.00000
63.48191	863.00000
63.50178	861.00000
63.52165	857.00000
63.54153	857.00000
63.56140	858.00000
63.58128	855.00000
63.60115	859.00000
63.62102	859.00000
63.64090	862.00000
63.66077	862.00000
63.68065	860.00000
63.70052	859.00000
63.72039	861.00000
63.74027	860.00000
63.76014	862.00000
63.78002	864.00000
63.79989	865.00000
63.81976	869.00000
63.83964	865.00000
63.85951	863.00000
63.87939	862.00000
63.89926	856.00000
63.91913	855.00000
63.93901	852.00000
63.95888	858.00000
63.97876	860.00000
63.99863	866.00000
64.01850	874.00000
64.03838	881.00000
64.05825	884.00000
64.07813	888.00000
64.09800	888.00000
64.11787	885.00000
64.13775	882.00000
64.15762	880.00000
64.17750	874.00000
64.19737	872.00000
64.21724	871.00000
64.23712	868.00000
64.25699	870.00000
64.27687	870.00000
64.29674	867.00000
64.31661	868.00000
64.33649	864.00000
64.35636	857.00000
64.37624	852.00000
64.39611	850.00000
64.41598	840.00000
64.43586	842.00000
64.45573	841.00000
64.47561	839.00000
64.49548	842.00000
64.51535	844.00000
64.53523	843.00000
64.55510	844.00000
64.57498	843.00000
64.59485	844.00000
64.61472	843.00000
64.63460	843.00000
64.65447	847.00000
64.67435	846.00000
64.69422	852.00000
64.71409	856.00000
64.73397	858.00000
64.75384	865.00000
64.77372	871.00000
64.79359	874.00000
64.81346	877.00000
64.83334	879.00000
64.85321	877.00000
64.87309	871.00000
64.89296	864.00000
64.91283	856.00000
64.93271	847.00000
64.95258	838.00000
64.97246	831.00000
64.99233	828.00000
65.01220	825.00000
65.03208	826.00000
65.05195	826.00000
65.07183	833.00000
65.09170	837.00000
65.11157	838.00000
65.13145	846.00000
65.15132	846.00000
65.17120	846.00000
65.19107	847.00000
65.21094	844.00000
65.23082	841.00000
65.25069	846.00000
65.27057	844.00000
65.29044	843.00000
65.31031	850.00000
65.33019	846.00000
65.35006	848.00000
65.36994	844.00000
65.38981	842.00000
65.40968	841.00000
65.42956	839.00000
65.44943	838.00000
65.46931	842.00000
65.48918	843.00000
65.50905	847.00000
65.52893	848.00000
65.54880	848.00000
65.56868	848.00000
65.58855	846.00000
65.60842	842.00000
65.62830	843.00000
65.64817	839.00000
65.66805	843.00000
65.68792	843.00000
65.70779	847.00000
65.72767	852.00000
65.74754	853.00000
65.76742	855.00000
65.78729	855.00000
65.80716	851.00000
65.82704	848.00000
65.84691	843.00000
65.86679	838.00000
65.88666	834.00000
65.90653	830.00000
65.92641	826.00000
65.94628	826.00000
65.96616	822.00000
65.98603	826.00000
66.00590	826.00000
66.02578	828.00000
66.04565	828.00000
66.06553	831.00000
66.08540	830.00000
66.10527	831.00000
66.12515	833.00000
66.14502	832.00000
66.16490	836.00000
66.18477	838.00000
66.20464	838.00000
66.22452	841.00000
66.24439	841.00000
66.26427	839.00000
66.28414	840.00000
66.30401	840.00000
66.32389	841.00000
66.34376	843.00000
66.36364	844.00000
66.38351	846.00000
66.40338	847.00000
66.42326	848.00000
66.44313	849.00000
66.46301	851.00000
66.48288	854.00000
66.50275	856.00000
66.52263	857.00000
66.54250	861.00000
66.56238	857.00000
66.58225	858.00000
66.60212	855.00000
66.62200	849.00000
66.64187	847.00000
66.66175	845.00000
66.68162	842.00000
66.70149	841.00000
66.72137	843.00000
66.74124	840.00000
66.76112	838.00000
66.78099	840.00000
66.80086	834.00000
66.82074	834.00000
66.84061	835.00000
66.86049	833.00000
66.88036	837.00000
66.90023	838.00000
66.92011	840.00000
66.93998	846.00000
66.95986	845.00000
66.97973	849.00000
66.99960	854.00000
67.01948	851.00000
67.03935	853.00000
67.05923	856.00000
67.07910	855.00000
67.09897	857.00000
67.11885	860.00000
67.13872	862.00000
67.15860	861.00000
67.17847	863.00000
67.19834	862.00000
67.21822	862.00000
67.23809	859.00000
67.25797	859.00000
67.27784	862.00000
67.29771	861.00000
67.31759	862.00000
67.33746	866.00000
67.35734	863.00000
67.37721	861.00000
67.39708	859.00000
67.41696	858.00000
67.43683	852.00000
67.45671	852.00000
67.47658	851.00000
67.49645	848.00000
67.51633	848.00000
67.53620	848.00000
67.55608	844.00000
67.57595	845.00000
67.59582	841.00000
67.61570	841.00000
67.63557	842.00000
67.65545	840.00000
67.67532	838.00000
67.69519	846.00000
67.71507	839.00000
67.73494	842.00000
67.75482	845.00000
67.77469	841.00000
67.79456	842.00000
67.81444	839.00000
67.83431	833.00000
67.85419	833.00000
67.87406	830.00000
67.89393	827.00000
67.91381	829.00000
67.93368	832.00000
67.95356	828.00000
67.97343	830.00000
67.99330	829.00000
68.01318	824.00000
68.03305	821.00000
68.05293	821.00000
68.07280	818.00000
68.09267	819.00000
68.11255	822.00000
68.13242	825.00000
68.15230	827.00000
68.17217	829.00000
68.19204	832.00000
68.21192	832.00000
68.23179	831.00000
68.25167	834.00000
68.27154	834.00000
68.29141	834.00000
68.31129	835.00000
68.33116	834.00000
68.35104	832.00000
68.37091	834.00000
68.39078	827.00000
68.41066	828.00000
68.43053	828.00000
68.45041	828.00000
68.47028	829.00000
68.49015	831.00000
68.51003	835.00000
68.52990	834.00000
68.54978	832.00000
68.56965	833.00000
68.58952	826.00000
68.60940	827.00000
68.62927	821.00000
68.64915	821.00000
68.66902	822.00000
68.68889	824.00000
68.70877	826.00000
68.72864	830.00000
68.74852	831.00000
68.76839	835.00000
68.78826	833.00000
68.80814	833.00000
68.82801	832.00000
68.84789	827.00000
68.86776	828.00000
68.88763	827.00000
68.90751	824.00000
68.92738	827.00000
68.94726	826.00000
68.96713	819.00000
68.98700	816.00000
69.00688	808.00000
69.02675	798.00000
69.04663	793.00000
69.06650	787.00000
69.08637	786.00000
69.10625	789.00000
69.12612	795.00000
69.14600	795.00000
69.16587	804.00000
69.18574	805.00000
69.20562	805.00000
69.22549	806.00000
69.24537	805.00000
69.26524	804.00000
69.28511	804.00000
69.30499	801.00000
69.32486	803.00000
69.34474	800.00000
69.36461	796.00000
69.38448	797.00000
69.40436	796.00000
69.42423	793.00000
69.44411	797.00000
69.46398	800.00000
69.48385	801.00000
69.50373	808.00000
69.52360	813.00000
69.54348	819.00000
69.56335	820.00000
69.58322	824.00000
69.60310	825.00000
69.62297	819.00000
69.64285	819.00000
69.66272	815.00000
69.68259	810.00000
69.70247	808.00000
69.72234	806.00000
69.74222	803.00000
69.76209	804.00000
69.78196	803.00000
69.80184	800.00000
69.82171	802.00000
69.84159	804.00000
69.86146	800.00000
69.88133	803.00000
69.90121	805.00000
69.92108	801.00000
69.94096	801.00000
69.96083	803.00000
69.98070	804.00000
70.00058	807.00000
70.02045	810.00000
70.04033	814.00000
70.06020	815.00000
70.08007	815.00000
70.09995	812.00000
70.11982	809.00000
70.13970	805.00000
70.15957	800.00000
70.17944	799.00000
70.19932	797.00000
70.21919	798.00000
70.23907	798.00000
70.25894	795.00000
70.27881	801.00000
70.29869	800.00000
70.31856	800.00000
70.33844	805.00000
70.35831	803.00000
70.37818	805.00000
70.39806	803.00000
70.41793	799.00000
70.43781	797.00000
70.45768	795.00000
70.47755	791.00000
70.49743	789.00000
70.51730	792.00000
70.53718	787.00000
70.55705	786.00000
70.57692	787.00000
70.59680	783.00000
70.61667	779.00000
70.63655	780.00000
70.65642	779.00000
70.67629	779.00000
70.69617	781.00000
70.71604	787.00000
70.73592	792.00000
70.75579	792.00000
70.77566	798.00000
70.79554	798.00000
70.81541	792.00000
70.83529	786.00000
70.85516	780.00000
70.87503	773.00000
70.89491	765.00000
70.91478	763.00000
70.93466	763.00000
70.95453	763.00000
70.97440	767.00000
70.99428	771.00000
71.01415	776.00000
71.03403	781.00000
71.05390	781.00000
71.07377	784.00000
71.09365	783.00000
71.11352	784.00000
71.13340	783.00000
71.15327	785.00000
71.17314	786.00000
71.19302	784.00000
71.21289	781.00000
71.23277	777.00000
71.25264	769.00000
71.27251	761.00000
71.29239	755.00000
71.31226	749.00000
71.33214	748.00000
71.35201	749.00000
71.37188	754.00000
71.39176	759.00000
71.41163	768.00000
71.43151	774.00000
71.45138	779.00000
71.47125	783.00000
71.49113	782.00000
71.51100	780.00000
71.53088	776.00000
71.55075	772.00000
71.57062	770.00000
71.59050	768.00000
71.61037	771.00000
71.63025	770.00000
71.65012	771.00000
71.66999	774.00000
71.68987	772.00000
71.70974	771.00000
71.72962	774.00000
71.74949	775.00000
71.76936	776.00000
71.78924	781.00000
71.80911	784.00000
71.82899	783.00000
71.84886	788.00000
71.86873	788.00000
71.88861	784.00000
71.90848	787.00000
71.92836	781.00000
71.94823	781.00000
71.96810	779.00000
71.98798	775.00000
72.00785	777.00000
72.02773	776.00000
72.04760	778.00000
72.06747	781.00000
72.08735	783.00000
72.10722	785.00000
72.12710	791.00000
72.14697	787.00000
72.16684	787.00000
72.18672	787.00000
72.20659	785.00000
72.22647	783.00000
72.24634	782.00000
72.26621	786.00000
72.28609	787.00000
72.30596	790.00000
72.32584	794.00000
72.34571	795.00000
72.36558	798.00000
72.38546	799.00000
72.40533	801.00000
72.42521	797.00000
72.44508	799.00000
72.46495	795.00000
72.48483	790.00000
72.50470	789.00000
72.52458	785.00000
72.54445	783.00000
72.56432	780.00000
72.58420	779.00000
72.60407	779.00000
72.62395	777.00000
72.64382	775.00000
72.66369	776.00000
72.68357	774.00000
72.70344	771.00000
72.72332	771.00000
72.74319	771.00000
72.76306	770.00000
72.78294	777.00000
72.80281	779.00000
72.82269	783.00000
72.84256	792.00000
72.86243	790.00000
72.88231	793.00000
72.90218	788.00000
72.92206	785.00000
72.94193	779.00000
72.96180	773.00000
72.98168	766.00000
73.00155	766.00000
73.02143	763.00000
73.04130	761.00000
73.06117	763.00000
73.08105	763.00000
73.10092	765.00000
73.12080	766.00000
73.14067	771.00000
73.16054	776.00000
73.18042	780.00000
73.20029	786.00000
73.22017	789.00000
73.24004	789.00000
73.25991	789.00000
73.27979	787.00000
73.29966	782.00000
73.31954	785.00000
73.33941	783.00000
73.35928	786.00000
73.37916	791.00000
73.39903	795.00000
73.41891	796.00000
73.43878	800.00000
73.45865	797.00000
73.47853	794.00000
73.49840	789.00000
73.51828	783.00000
73.53815	777.00000
73.55802	772.00000
73.57790	772.00000
73.59777	774.00000
73.61765	776.00000
73.63752	784.00000
73.65739	793.00000
73.67727	798.00000
73.69714	804.00000
73.71702	809.00000
73.73689	811.00000
73.75676	809.00000
73.77664	806.00000
73.79651	805.00000
73.81639	800.00000
73.83626	798.00000
73.85613	796.00000
73.87601	793.00000
73.89588	793.00000
73.91576	792.00000
73.93563	786.00000
73.95550	779.00000
73.97538	777.00000
73.99525	768.00000
74.01513	759.00000
74.03500	762.00000
74.05487	756.00000
74.07475	758.00000
74.09462	765.00000
74.11450	765.00000
74.13437	772.00000
74.15424	774.00000
74.17412	774.00000
74.19399	776.00000
74.21387	773.00000
74.23374	771.00000
74.25361	765.00000
74.27349	764.00000
74.29336	760.00000
74.31324	758.00000
74.33311	756.00000
74.35298	759.00000
74.37286	758.00000
74.39273	759.00000
74.41261	760.00000
74.43248	762.00000
74.45235	765.00000
74.47223	762.00000
74.49210	768.00000
74.51198	769.00000
74.53185	770.00000
74.55172	772.00000
74.57160	774.00000
74.59147	777.00000
74.61135	774.00000
74.63122	776.00000
74.65109	776.00000
74.67097	773.00000
74.69084	774.00000
74.71072	773.00000
74.73059	777.00000
74.75046	777.00000
74.77034	779.00000
74.79021	784.00000
74.81009	785.00000
74.82996	783.00000
74.84983	786.00000
74.86971	783.00000
74.88958	781.00000
74.90946	783.00000
74.92933	786.00000
74.94920	785.00000
74.96908	788.00000
74.98895	794.00000
75.00883	792.00000
75.02870	791.00000
75.04857	790.00000
75.06845	786.00000
75.08832	783.00000
75.10820	778.00000
75.12807	777.00000
75.14794	778.00000
75.16782	776.00000
75.18769	780.00000
75.20757	779.00000
75.22744	782.00000
75.24731	783.00000
75.26719	782.00000
75.28706	784.00000
75.30694	784.00000
75.32681	785.00000
75.34668	784.00000
75.36656	785.00000
75.38643	786.00000
75.40631	782.00000
75.42618	780.00000
75.44605	780.00000
75.46593	773.00000
75.48580	771.00000
75.50568	766.00000
75.52555	764.00000
75.54542	759.00000
75.56530	757.00000
75.58517	753.00000
75.60505	749.00000
75.62492	748.00000
75.64479	746.00000
75.66467	745.00000
75.68454	745.00000
75.70442	749.00000
75.72429	751.00000
75.74416	755.00000
75.76404	758.00000
75.78391	763.00000
75.80379	762.00000
75.82366	762.00000
75.84353	761.00000
75.86341	759.00000
75.88328	758.00000
75.90316	759.00000
75.92303	761.00000
75.94290	764.00000
75.96278	767.00000
75.98265	769.00000
76.00253	768.00000
76.02240	766.00000
76.04227	762.00000
76.06215	753.00000
76.08202	748.00000
76.10190	746.00000
76.12177	743.00000
76.14164	742.00000
76.16152	752.00000
76.18139	756.00000
76.20127	758.00000
76.22114	766.00000
76.24101	767.00000
76.26089	766.00000
76.28076	765.00000
76.30064	770.00000
76.32051	772.00000
76.34038	772.00000
76.36026	782.00000
76.38013	783.00000
76.40001	780.00000
76.41988	781.00000
76.43975	777.00000
76.45963	774.00000
76.47950	772.00000
76.49938	774.00000
76.51925	777.00000
76.53912	782.00000
76.55900	785.00000
76.57887	789.00000
76.59875	791.00000
76.61862	791.00000
76.63849	786.00000
76.65837	784.00000
76.67824	783.00000
76.69811	773.00000
76.71799	774.00000
76.73786	772.00000
76.75774	769.00000
76.77761	766.00000
76.79748	765.00000
76.81736	765.00000
76.83723	761.00000
76.85711	761.00000
76.87698	765.00000
76.89685	770.00000
76.91673	773.00000
76.93660	779.00000
76.95648	786.00000
76.97635	788.00000
76.99622	789.00000
77.01610	788.00000
77.03597	787.00000
77.05585	784.00000
77.07572	780.00000
77.09559	779.00000
77.11547	779.00000
77.13534	779.00000
77.15522	777.00000
77.17509	778.00000
77.19496	774.00000
77.21484	772.00000
77.23471	765.00000
77.25459	759.00000
77.27446	756.00000
77.29433	750.00000
77.31421	748.00000
77.33408	749.00000
77.35396	749.00000
77.37383	750.00000
77.39370	749.00000
77.41358	753.00000
77.43345	753.00000
77.45333	751.00000
77.47320	758.00000
77.49307	757.00000
77.51295	759.00000
77.53282	762.00000
77.55270	763.00000
77.57257	762.00000
77.59244	758.00000
77.61232	757.00000
77.63219	756.00000
77.65207	752.00000
77.67194	753.00000
77.69181	757.00000
77.71169	765.00000
77.73156	765.00000
77.75144	774.00000
77.77131	780.00000
77.79118	779.00000
77.81106	780.00000
77.83093	781.00000
77.85081	779.00000
77.87068	777.00000
77.89055	777.00000
77.91043	776.00000
77.93030	774.00000
77.95018	775.00000
77.97005	772.00000
77.98992	771.00000
78.00980	770.00000
78.02967	771.00000
78.04955	769.00000
78.06942	766.00000
78.08929	771.00000
78.10917	765.00000
78.12904	765.00000
78.14892	766.00000
78.16879	763.00000
78.18866	759.00000
78.20854	758.00000
78.22841	753.00000
78.24829	752.00000
78.26816	748.00000
78.28803	747.00000
78.30791	747.00000
78.32778	746.00000
78.34766	744.00000
78.36753	744.00000
78.38740	745.00000
78.40728	745.00000
78.42715	745.00000
78.44703	752.00000
78.46690	753.00000
78.48677	756.00000
78.50665	761.00000
78.52652	760.00000
78.54640	761.00000
78.56627	761.00000
78.58614	759.00000
78.60602	758.00000
78.62589	758.00000
78.64577	751.00000
78.66564	752.00000
78.68551	748.00000
78.70539	744.00000
78.72526	743.00000
78.74514	742.00000
78.76501	737.00000
78.78488	733.00000
78.80476	728.00000
78.82463	720.00000
78.84451	715.00000
78.86438	713.00000
78.88425	713.00000
78.90413	715.00000
78.92400	721.00000
78.94388	723.00000
78.96375	729.00000
78.98362	730.00000
79.00350	734.00000
79.02337	736.00000
79.04325	737.00000
79.06312	741.00000
79.08299	742.00000
79.10287	741.00000
79.12274	740.00000
79.14262	737.00000
79.16249	734.00000
79.18236	729.00000
79.20224	728.00000
79.22211	726.00000
79.24199	723.00000
79.26186	722.00000
79.28173	723.00000
79.30161	720.00000
79.32148	720.00000
79.34136	722.00000
79.36123	724.00000
79.38110	724.00000
79.40098	733.00000
79.42085	735.00000
79.44073	737.00000
79.46060	743.00000
79.48047	742.00000
79.50035	742.00000
79.52022	742.00000
79.54010	740.00000
79.55997	738.00000
79.57984	742.00000
79.59972	738.00000
79.61959	741.00000
79.63947	742.00000
79.65934	738.00000
79.67921	737.00000
79.69909	734.00000
79.71896	728.00000
79.73884	727.00000
79.75871	725.00000
79.77858	724.00000
79.79846	726.00000
79.81833	726.00000
79.83821	724.00000
79.85808	723.00000
79.87795	720.00000
79.89783	718.00000
79.91770	716.00000
79.93758	709.00000
79.95745	715.00000
79.97732	714.00000
79.99720	712.00000
80.01707	719.00000
80.03695	722.00000
80.05682	725.00000
80.07669	726.00000
80.09657	733.00000
80.11644	734.00000
80.13632	735.00000
80.15619	741.00000
80.17606	744.00000
80.19594	745.00000
80.21581	750.00000
80.23569	753.00000
80.25556	748.00000
80.27543	751.00000
80.29531	751.00000
80.31518	746.00000
80.33506	749.00000
80.35493	748.00000
80.37480	749.00000
80.39468	749.00000
80.41455	752.00000
80.43443	752.00000
80.45430	755.00000
80.47417	754.00000
80.49405	756.00000
80.51392	755.00000
80.53380	752.00000
80.55367	752.00000
80.57354	746.00000
80.59342	743.00000
80.61329	738.00000
80.63317	734.00000
80.65304	729.00000
80.67291	726.00000
80.69279	722.00000
80.71266	721.00000
80.73254	722.00000
80.75241	718.00000
80.77228	721.00000
80.79216	724.00000
80.81203	724.00000
80.83191	726.00000
80.85178	731.00000
80.87165	733.00000
80.89153	736.00000
80.91140	740.00000
80.93128	744.00000
80.95115	743.00000
80.97102	749.00000
80.99090	748.00000
81.01077	746.00000
81.03065	747.00000
81.05052	742.00000
81.07039	737.00000
81.09027	732.00000
81.11014	728.00000
81.13002	722.00000
81.14989	722.00000
81.16976	719.00000
81.18964	722.00000
81.20951	724.00000
81.22939	727.00000
81.24926	734.00000
81.26913	734.00000
81.28901	741.00000
81.30888	738.00000
81.32876	737.00000
81.34863	736.00000
81.36850	732.00000
81.38838	728.00000
81.40825	727.00000
81.42813	724.00000
81.44800	726.00000
81.46787	726.00000
81.48775	727.00000
81.50762	731.00000
81.52750	730.00000
81.54737	728.00000
81.56724	730.00000
81.58712	727.00000
81.60699	726.00000
81.62687	723.00000
81.64674	723.00000
81.66661	722.00000
81.68649	721.00000
81.70636	725.00000
81.72624	726.00000
81.74611	729.00000
81.76598	732.00000
81.78586	734.00000
81.80573	732.00000
81.82561	731.00000
81.84548	726.00000
81.86535	724.00000
81.88523	717.00000
81.90510	712.00000
81.92498	709.00000
81.94485	705.00000
81.96472	700.00000
81.98460	699.00000
82.00447	697.00000
82.02435	695.00000
82.04422	694.00000
82.06409	695.00000
82.08397	695.00000
82.10384	699.00000
82.12372	701.00000
82.14359	706.00000
82.16346	711.00000
82.18334	716.00000
82.20321	723.00000
82.22309	729.00000
82.24296	731.00000
82.26283	734.00000
82.28271	735.00000
82.30258	734.00000
82.32246	727.00000
82.34233	726.00000
82.36220	720.00000
82.38208	718.00000
82.40195	709.00000
82.42183	710.00000
82.44170	706.00000
82.46157	704.00000
82.48145	704.00000
82.50132	705.00000
82.52120	710.00000
82.54107	711.00000
82.56094	711.00000
82.58082	715.00000
82.60069	714.00000
82.62057	711.00000
82.64044	708.00000
82.66031	705.00000
82.68019	702.00000
82.70006	696.00000
82.71994	693.00000
82.73981	692.00000
82.75968	690.00000
82.77956	694.00000
82.79943	701.00000
82.81931	708.00000
82.83918	714.00000
82.85905	725.00000
82.87893	730.00000
82.89880	729.00000
82.91868	733.00000
82.93855	727.00000
82.95842	724.00000
82.97830	720.00000
82.99817	716.00000
83.01805	715.00000
83.03792	715.00000
83.05779	716.00000
83.07767	718.00000
83.09754	721.00000
83.11742	724.00000
83.13729	725.00000
83.15716	725.00000
83.17704	731.00000
83.19691	729.00000
83.21679	731.00000
83.23666	732.00000
83.25653	733.00000
83.27641	730.00000
83.29628	726.00000
83.31616	723.00000
83.33603	720.00000
83.35590	710.00000
83.37578	711.00000
83.39565	708.00000
83.41553	704.00000
83.43540	704.00000
83.45527	705.00000
83.47515	704.00000
83.49502	700.00000
83.51490	703.00000
83.53477	704.00000
83.55464	701.00000
83.57452	705.00000
83.59439	706.00000
83.61427	712.00000
83.63414	712.00000
83.65401	712.00000
83.67389	717.00000
83.69376	715.00000
83.71364	712.00000
83.73351	713.00000
83.75338	713.00000
83.77326	712.00000
83.79313	712.00000
83.81301	714.00000
83.83288	713.00000
83.85275	714.00000
83.87263	711.00000
83.89250	711.00000
83.91238	712.00000
83.93225	709.00000
83.95212	711.00000
83.97200	712.00000
83.99187	714.00000
84.01175	716.00000
84.03162	718.00000
84.05149	721.00000
84.07137	719.00000
84.09124	719.00000
84.11112	718.00000
84.13099	711.00000
84.15086	708.00000
84.17074	705.00000
84.19061	702.00000
84.21049	701.00000
84.23036	703.00000
84.25023	703.00000
84.27011	704.00000
84.28998	707.00000
84.30986	704.00000
84.32973	704.00000
84.34960	700.00000
84.36948	699.00000
84.38935	695.00000
84.40923	693.00000
84.42910	692.00000
84.44897	693.00000
84.46885	695.00000
84.48872	695.00000
84.50860	696.00000
84.52847	697.00000
84.54834	698.00000
84.56822	699.00000
84.58809	700.00000
84.60797	703.00000
84.62784	706.00000
84.64771	705.00000
84.66759	710.00000
84.68746	713.00000
84.70734	710.00000
84.72721	714.00000
84.74708	716.00000
84.76696	710.00000
84.78683	711.00000
84.80671	711.00000
84.82658	703.00000
84.84645	704.00000
84.86633	700.00000
84.88620	700.00000
84.90608	695.00000
84.92595	694.00000
84.94582	692.00000
84.96570	689.00000
84.98557	688.00000
85.00545	688.00000
85.02532	690.00000
85.04519	688.00000
85.06507	692.00000
85.08494	692.00000
85.10482	691.00000
85.12469	691.00000
85.14456	688.00000
85.16444	689.00000
85.18431	685.00000
85.20419	684.00000
85.22406	686.00000
85.24393	684.00000
85.26381	684.00000
85.28368	685.00000
85.30356	687.00000
85.32343	687.00000
85.34330	690.00000
85.36318	693.00000
85.38305	694.00000
85.40293	697.00000
85.42280	701.00000
85.44267	699.00000
85.46255	700.00000
85.48242	701.00000
85.50230	699.00000
85.52217	698.00000
85.54204	699.00000
85.56192	700.00000
85.58179	698.00000
85.60167	700.00000
85.62154	700.00000
85.64141	700.00000
85.66129	701.00000
85.68116	703.00000
85.70104	704.00000
85.72091	706.00000
85.74078	707.00000
85.76066	708.00000
85.78053	705.00000
85.80041	707.00000
85.82028	704.00000
85.84015	701.00000
85.86003	701.00000
85.87990	698.00000
85.89978	693.00000
85.91965	692.00000
85.93952	687.00000
85.95940	682.00000
85.97927	682.00000
85.99915	680.00000
86.01902	683.00000
86.03889	685.00000
86.05877	685.00000
86.07864	693.00000
86.09852	691.00000
86.11839	692.00000
86.13826	691.00000
86.15814	687.00000
86.17801	685.00000
86.19789	681.00000
86.21776	681.00000
86.23763	681.00000
86.25751	680.00000
86.27738	681.00000
86.29726	683.00000
86.31713	678.00000
86.33700	678.00000
86.35688	679.00000
86.37675	673.00000
86.39663	673.00000
86.41650	673.00000
86.43637	675.00000
86.45625	675.00000
86.47612	682.00000
86.49600	686.00000
86.51587	690.00000
86.53574	694.00000
86.55562	694.00000
86.57549	694.00000
86.59537	690.00000
86.61524	686.00000
86.63511	685.00000
86.65499	682.00000
86.67486	682.00000
86.69474	684.00000
86.71461	685.00000
86.73448	685.00000
86.75436	683.00000
86.77423	684.00000
86.79411	680.00000
86.81398	680.00000
86.83385	680.00000
86.85373	681.00000
86.87360	686.00000
86.89348	687.00000
86.91335	693.00000
86.93322	693.00000
86.95310	693.00000
86.97297	692.00000
86.99285	688.00000
87.01272	683.00000
87.03259	683.00000
87.05247	681.00000
87.07234	682.00000
87.09222	688.00000
87.11209	695.00000
87.13196	699.00000
87.15184	708.00000
87.17171	708.00000
87.19159	707.00000
87.21146	704.00000
87.23133	698.00000
87.25121	691.00000
87.27108	689.00000
87.29096	683.00000
87.31083	682.00000
87.33070	681.00000
87.35058	682.00000
87.37045	680.00000
87.39033	680.00000
87.41020	677.00000
87.43007	677.00000
87.44995	676.00000
87.46982	674.00000
87.48970	679.00000
87.50957	681.00000
87.52944	682.00000
87.54932	686.00000
87.56919	691.00000
87.58907	688.00000
87.60894	691.00000
87.62881	694.00000
87.64869	690.00000
87.66856	689.00000
87.68844	691.00000
87.70831	685.00000
87.72818	681.00000
87.74806	678.00000
87.76793	674.00000
87.78781	668.00000
87.80768	668.00000
87.82755	668.00000
87.84743	668.00000
87.86730	671.00000
87.88718	677.00000
87.90705	683.00000
87.92692	686.00000
87.94680	694.00000
87.96667	695.00000
87.98655	700.00000
88.00642	698.00000
88.02629	695.00000
88.04617	694.00000
88.06604	687.00000
88.08592	684.00000
88.10579	679.00000
88.12566	676.00000
88.14554	677.00000
88.16541	673.00000
88.18529	678.00000
88.20516	680.00000
88.22503	682.00000
88.24491	686.00000
88.26478	689.00000
88.28466	686.00000
88.30453	689.00000
88.32440	687.00000
88.34428	689.00000
88.36415	685.00000
88.38403	688.00000
88.40390	687.00000
88.42377	683.00000
88.44365	680.00000
88.46352	678.00000
88.48340	674.00000
88.50327	672.00000
88.52314	671.00000
88.54302	671.00000
88.56289	668.00000
88.58277	669.00000
88.60264	666.00000
88.62251	664.00000
88.64239	666.00000
88.66226	667.00000
88.68214	672.00000
88.70201	675.00000
88.72188	679.00000
88.74176	680.00000
88.76163	681.00000
88.78151	676.00000
88.80138	674.00000
88.82125	673.00000
88.84113	670.00000
88.86100	672.00000
88.88088	677.00000
88.90075	678.00000
88.92062	680.00000
88.94050	682.00000
88.96037	680.00000
88.98025	679.00000
89.00012	676.00000
89.01999	676.00000
89.03987	673.00000
89.05974	670.00000
89.07962	671.00000
89.09949	668.00000
89.11936	666.00000
89.13924	666.00000
89.15911	663.00000
89.17899	662.00000
89.19886	662.00000
89.21873	661.00000
89.23861	661.00000
89.25848	663.00000
89.27836	667.00000
89.29823	670.00000
89.31810	676.00000
89.33798	681.00000
89.35785	684.00000
89.37773	686.00000
89.39760	686.00000
89.41747	682.00000
89.43735	683.00000
89.45722	679.00000
89.47710	676.00000
89.49697	678.00000
89.51684	676.00000
89.53672	678.00000
89.55659	682.00000
89.57647	682.00000
89.59634	684.00000
89.61621	684.00000
89.63609	682.00000
89.65596	679.00000
89.67584	674.00000
89.69571	672.00000
89.71558	669.00000
89.73546	666.00000
89.75533	666.00000
89.77521	667.00000
89.79508	667.00000
89.81495	669.00000
89.83483	672.00000
89.85470	669.00000
89.87458	671.00000
89.89445	670.00000
89.91432	667.00000
89.93420	666.00000
89.95407	666.00000
89.97395	665.00000
89.99382	666.00000
90.01369	669.00000
90.03357	671.00000
90.05344	675.00000
90.07332	676.00000
90.09319	676.00000
90.11306	678.00000
90.13294	675.00000
90.15281	672.00000
90.17269	677.00000
90.19256	672.00000
90.21243	674.00000
90.23231	678.00000
90.25218	679.00000
90.27206	677.00000
90.29193	681.00000
90.31180	677.00000
90.33168	673.00000
90.35155	669.00000
90.37143	664.00000
90.39130	661.00000
90.41117	656.00000
90.43105	658.00000
90.45092	659.00000
90.47080	659.00000
90.49067	664.00000
90.51054	665.00000
90.53042	664.00000
90.55029	666.00000
90.57017	663.00000
90.59004	660.00000
90.60991	659.00000
90.62979	659.00000
90.64966	658.00000
90.66954	659.00000
90.68941	662.00000
90.70928	661.00000
90.72916	662.00000
90.74903	662.00000
90.76891	659.00000
90.78878	659.00000
90.80865	654.00000
90.82853	653.00000
90.84840	652.00000
90.86828	647.00000
90.88815	647.00000
90.90802	648.00000
90.92790	645.00000
90.94777	648.00000
90.96765	650.00000
90.98752	653.00000
91.00739	654.00000
91.02727	653.00000
91.04714	657.00000
91.06702	653.00000
91.08689	650.00000
91.10676	649.00000
91.12664	646.00000
91.14651	645.00000
91.16639	642.00000
91.18626	643.00000
91.20613	645.00000
91.22601	646.00000
91.24588	646.00000
91.26576	653.00000
91.28563	652.00000
91.30550	650.00000
91.32538	654.00000
91.34525	651.00000
91.36513	648.00000
91.38500	650.00000
91.40487	649.00000
91.42475	651.00000
91.44462	651.00000
91.46450	654.00000
91.48437	656.00000
91.50424	656.00000
91.52412	659.00000
91.54399	659.00000
91.56387	662.00000
91.58374	661.00000
91.60361	665.00000
91.62349	666.00000
91.64336	667.00000
91.66324	668.00000
91.68311	667.00000
91.70298	666.00000
91.72286	663.00000
91.74273	662.00000
91.76261	657.00000
91.78248	656.00000
91.80235	656.00000
91.82223	653.00000
91.84210	654.00000
91.86198	657.00000
91.88185	654.00000
91.90172	658.00000
91.92160	661.00000
91.94147	662.00000
91.96135	667.00000
91.98122	669.00000
92.00109	671.00000
92.02097	670.00000
92.04084	670.00000
92.06072	667.00000
92.08059	663.00000
92.10046	661.00000
92.12034	658.00000
92.14021	653.00000
92.16009	651.00000
92.17996	650.00000
92.19983	645.00000
92.21971	646.00000
92.23958	645.00000
92.25946	647.00000
92.27933	649.00000
92.29920	654.00000
92.31908	660.00000
92.33895	661.00000
92.35883	668.00000
92.37870	671.00000
92.39857	669.00000
92.41845	671.00000
92.43832	670.00000
92.45820	666.00000
92.47807	664.00000
92.49794	662.00000
92.51782	657.00000
92.53769	657.00000
92.55757	655.00000
92.57744	650.00000
92.59731	652.00000
92.61719	650.00000
92.63706	647.00000
92.65694	647.00000
92.67681	645.00000
92.69668	642.00000
92.71656	642.00000
92.73643	643.00000
92.75631	641.00000
92.77618	643.00000
92.79605	645.00000
92.81593	648.00000
92.83580	646.00000
92.85568	651.00000
92.87555	651.00000
92.89542	654.00000
92.91530	656.00000
92.93517	658.00000
92.95505	662.00000
92.97492	660.00000
92.99479	665.00000
93.01467	662.00000
93.03454	660.00000
93.05442	661.00000
93.07429	659.00000
93.09416	656.00000
93.11404	656.00000
93.13391	656.00000
93.15379	652.00000
93.17366	652.00000
93.19353	650.00000
93.21341	649.00000
93.23328	649.00000
93.25316	648.00000
93.27303	649.00000
93.29290	648.00000
93.31278	648.00000
93.33265	645.00000
93.35253	643.00000
93.37240	637.00000
93.39227	635.00000
93.41215	631.00000
93.43202	629.00000
93.45190	628.00000
93.47177	631.00000
93.49164	634.00000
93.51152	636.00000
93.53139	642.00000
93.55127	643.00000
93.57114	643.00000
93.59101	643.00000
93.61089	639.00000
93.63076	637.00000
93.65064	631.00000
93.67051	627.00000
93.69038	623.00000
93.71026	619.00000
93.73013	618.00000
93.75001	617.00000
93.76988	617.00000
93.78975	620.00000
93.80963	618.00000
93.82950	620.00000
93.84938	621.00000
93.86925	621.00000
93.88912	624.00000
93.90900	624.00000
93.92887	627.00000
93.94875	628.00000
93.96862	627.00000
93.98849	627.00000
94.00837	624.00000
94.02824	622.00000
94.04812	625.00000
94.06799	626.00000
94.08786	630.00000
94.10774	638.00000
94.12761	643.00000
94.14749	649.00000
94.16736	652.00000
94.18723	656.00000
94.20711	652.00000
94.22698	652.00000
94.24686	646.00000
94.26673	643.00000
94.28660	639.00000
94.30648	634.00000
94.32635	633.00000
94.34623	631.00000
94.36610	636.00000
94.38597	637.00000
94.40585	642.00000
94.42572	646.00000
94.44560	646.00000
94.46547	648.00000
94.48534	647.00000
94.50522	643.00000
94.52509	644.00000
94.54497	640.00000
94.56484	638.00000
94.58471	639.00000
94.60459	640.00000
94.62446	636.00000
94.64434	635.00000
94.66421	635.00000
94.68408	630.00000
94.70396	631.00000
94.72383	632.00000
94.74371	631.00000
94.76358	636.00000
94.78345	636.00000
94.80333	632.00000
94.82320	633.00000
94.84308	630.00000
94.86295	622.00000
94.88282	622.00000
94.90270	620.00000
94.92257	618.00000
94.94245	619.00000
94.96232	620.00000
94.98219	622.00000
95.00207	624.00000
95.02194	627.00000
95.04182	630.00000
95.06169	631.00000
95.08156	631.00000
95.10144	631.00000
95.12131	628.00000
95.14119	623.00000
95.16106	627.00000
95.18093	624.00000
95.20081	625.00000
95.22068	631.00000
95.24056	630.00000
95.26043	632.00000
95.28030	629.00000
95.30018	627.00000
95.32005	621.00000
95.33993	615.00000
95.35980	612.00000
95.37967	609.00000
95.39955	608.00000
95.41942	610.00000
95.43930	613.00000
95.45917	615.00000
95.47904	616.00000
95.49892	619.00000
95.51879	617.00000
95.53867	617.00000
95.55854	616.00000
95.57841	615.00000
95.59829	614.00000
95.61816	616.00000
95.63804	616.00000
95.65791	616.00000
95.67778	618.00000
95.69766	614.00000
95.71753	611.00000
95.73741	611.00000
95.75728	606.00000
95.77715	605.00000
95.79703	607.00000
95.81690	607.00000
95.83678	610.00000
95.85665	615.00000
95.87652	618.00000
95.89640	620.00000
95.91627	627.00000
95.93615	629.00000
95.95602	632.00000
95.97589	636.00000
95.99577	636.00000
96.01564	637.00000
96.03552	639.00000
96.05539	633.00000
96.07526	634.00000
96.09514	630.00000
96.11501	625.00000
96.13489	624.00000
96.15476	620.00000
96.17463	621.00000
96.19451	622.00000
96.21438	622.00000
96.23426	628.00000
96.25413	628.00000
96.27400	632.00000
96.29388	632.00000
96.31375	634.00000
96.33363	633.00000
96.35350	634.00000
96.37337	631.00000
96.39325	631.00000
96.41312	629.00000
96.43300	630.00000
96.45287	629.00000
96.47274	628.00000
96.49262	633.00000
96.51249	632.00000
96.53237	635.00000
96.55224	637.00000
96.57211	638.00000
96.59199	638.00000
96.61186	633.00000
96.63174	632.00000
96.65161	631.00000
96.67148	624.00000
96.69136	622.00000
96.71123	622.00000
96.73111	617.00000
96.75098	617.00000
96.77085	618.00000
96.79073	619.00000
96.81060	620.00000
96.83048	618.00000
96.85035	622.00000
96.87022	618.00000
96.89010	615.00000
96.90997	616.00000
96.92985	613.00000
96.94972	612.00000
96.96959	611.00000
96.98947	610.00000
97.00934	611.00000
97.02922	608.00000
97.04909	611.00000
97.06896	610.00000
97.08884	611.00000
97.10871	611.00000
97.12859	611.00000
97.14846	614.00000
97.16833	613.00000
97.18821	615.00000
97.20808	616.00000
97.22796	619.00000
97.24783	618.00000
97.26770	620.00000
97.28758	618.00000
97.30745	615.00000
97.32733	614.00000
97.34720	609.00000
97.36707	610.00000
97.38695	605.00000
97.40682	607.00000
97.42670	608.00000
97.44657	604.00000
97.46644	606.00000
97.48632	606.00000
97.50619	604.00000
97.52607	605.00000
97.54594	607.00000
97.56581	604.00000
97.58569	609.00000
97.60556	609.00000
97.62544	608.00000
97.64531	611.00000
97.66518	611.00000
97.68506	610.00000
97.70493	609.00000
97.72481	609.00000
97.74468	604.00000
97.76455	602.00000
97.78443	599.00000
97.80430	597.00000
97.82418	595.00000
97.84405	595.00000
97.86392	599.00000
97.88380	602.00000
97.90367	605.00000
97.92355	611.00000
97.94342	615.00000
97.96329	616.00000
97.98317	619.00000
98.00304	620.00000
98.02292	619.00000
98.04279	619.00000
98.06266	618.00000
98.08254	616.00000
98.10241	613.00000
98.12229	613.00000
98.14216	608.00000
98.16203	604.00000
98.18191	604.00000
98.20178	599.00000
98.22166	597.00000
98.24153	600.00000
98.26140	600.00000
98.28128	601.00000
98.30115	604.00000
98.32103	606.00000
98.34090	607.00000
98.36077	606.00000
98.38065	604.00000
98.40052	606.00000
98.42040	606.00000
98.44027	606.00000
98.46014	609.00000
98.48002	614.00000
98.49989	618.00000
98.51977	622.00000
98.53964	626.00000
98.55951	627.00000
98.57939	630.00000
98.59926	628.00000
98.61914	627.00000
98.63901	628.00000
98.65888	624.00000
98.67876	622.00000
98.69863	622.00000
98.71851	616.00000
98.73838	614.00000
98.75825	614.00000
98.77813	607.00000
98.79800	608.00000
98.81788	605.00000
98.83775	602.00000
98.85762	601.00000
98.87750	600.00000
98.89737	597.00000
98.91725	596.00000
98.93712	598.00000
98.95699	595.00000
98.97687	595.00000
98.99674	596.00000
99.01662	595.00000
99.03649	593.00000
99.05636	595.00000
99.07624	595.00000
99.09611	598.00000
99.11599	597.00000
99.13586	602.00000
99.15573	602.00000
99.17561	603.00000
99.19548	605.00000
99.21536	603.00000
99.23523	604.00000
99.25510	603.00000
99.27498	600.00000
99.29485	601.00000
99.31473	599.00000
99.33460	599.00000
99.35447	599.00000
99.37435	601.00000
99.39422	601.00000
99.41410	599.00000
99.43397	600.00000
99.45384	601.00000
99.47372	595.00000
99.49359	596.00000
99.51347	596.00000
99.53334	597.00000
99.55321	598.00000
99.57309	600.00000
99.59296	603.00000
99.61284	604.00000
99.63271	604.00000
99.65258	603.00000
99.67246	603.00000
99.69233	601.00000
99.71221	596.00000
99.73208	597.00000
99.75195	595.00000
99.77183	594.00000
99.79170	593.00000
99.81158	593.00000
99.83145	595.00000
