5.00000	2310.00000
5.01920	2321.00000
5.03840	2335.00000
5.05760	2315.00000
5.07680	2325.00000
5.09600	2315.00000
5.11520	2336.00000
5.13440	2339.00000
5.15360	2310.00000
5.17280	2339.00000
5.19200	2342.00000
5.21120	2327.00000
5.23040	2364.00000
5.24960	2364.00000
5.26880	2349.00000
5.28800	2370.00000
5.30720	2356.00000
5.32640	2391.00000
5.34560	2360.00000
5.36480	2384.00000
5.38400	2405.00000
5.40320	2372.00000
5.42240	2362.00000
5.44160	2392.00000
5.46080	2376.00000
5.48000	2374.00000
5.49920	2373.00000
5.51840	2390.00000
5.53760	2417.00000
5.55680	2408.00000
5.57600	2428.00000
5.59520	2394.00000
5.61440	2407.00000
5.63360	2426.00000
5.65280	2446.00000
5.67200	2452.00000
5.69120	2458.00000
5.71040	2461.00000
5.72960	2455.00000
5.74880	2486.00000
5.76800	2517.00000
5.78720	2574.00000
5.80640	2607.00000
5.82560	2681.00000
5.84480	2653.00000
5.86400	2636.00000
5.88320	2559.00000
5.90240	2490.00000
5.92160	2474.00000
5.94080	2448.00000
5.96000	2444.00000
5.97920	2462.00000
5.99840	2452.00000
6.01760	2423.00000
6.03680	2453.00000
6.05600	2416.00000
6.07520	2433.00000
6.09440	2438.00000
6.11360	2466.00000
6.13280	2462.00000
6.15200	2493.00000
6.17120	2520.00000
6.19040	2477.00000
6.20960	2555.00000
6.22880	2518.00000
6.24800	2560.00000
6.26720	2592.00000
6.28640	2635.00000
6.30560	2681.00000
6.32480	2707.00000
6.34400	2715.00000
6.36320	2636.00000
6.38240	2543.00000
6.40160	2549.00000
6.42080	2492.00000
6.44000	2501.00000
6.45920	2475.00000
6.47840	2454.00000
6.49760	2450.00000
6.51680	2473.00000
6.53600	2472.00000
6.55520	2480.00000
6.57440	2447.00000
6.59360	2488.00000
6.61280	2490.00000
6.63200	2477.00000
6.65120	2477.00000
6.67040	2480.00000
6.68960	2486.00000
6.70880	2440.00000
6.72800	2492.00000
6.74720	2495.00000
6.76640	2500.00000
6.78560	2499.00000
6.80480	2505.00000
6.82400	2499.00000
6.84320	2477.00000
6.86240	2503.00000
6.88160	2505.00000
6.90080	2467.00000
6.92000	2493.00000
6.93920	2498.00000
6.95840	2502.00000
6.97760	2456.00000
6.99680	2501.00000
7.01600	2510.00000
7.03520	2528.00000
7.05440	2518.00000
7.07360	2534.00000
7.09280	2510.00000
7.11200	2503.00000
7.13120	2548.00000
7.15040	2515.00000
7.16960	2536.00000
7.18880	2553.00000
7.20800	2536.00000
7.22720	2542.00000
7.24640	2541.00000
7.26560	2563.00000
7.28480	2546.00000
7.30400	2584.00000
7.32320	2571.00000
7.34240	2587.00000
7.36160	2612.00000
7.38080	2664.00000
7.40000	2696.00000
7.41920	2722.00000
7.43840	2819.00000
7.45760	2876.00000
7.47680	2942.00000
7.49600	2880.00000
7.51520	2771.00000
7.53440	2666.00000
7.55360	2596.00000
7.57280	2563.00000
7.59200	2581.00000
7.61120	2572.00000
7.63040	2549.00000
7.64960	2577.00000
7.66880	2577.00000
7.68800	2562.00000
7.70720	2588.00000
7.72640	2571.00000
7.74560	2572.00000
7.76480	2575.00000
7.78400	2560.00000
7.80320	2561.00000
7.82240	2578.00000
7.84160	2584.00000
7.86080	2554.00000
7.88000	2573.00000
7.89920	2568.00000
7.91840	2580.00000
7.93760	2601.00000
7.95680	2595.00000
7.97600	2576.00000
7.99520	2548.00000
8.01440	2590.00000
8.03360	2563.00000
8.05280	2584.00000
8.07200	2582.00000
8.09120	2588.00000
8.11040	2608.00000
8.12960	2608.00000
8.14880	2603.00000
8.16800	2602.00000
8.18720	2618.00000
8.20640	2616.00000
8.22560	2598.00000
8.24480	2590.00000
8.26400	2596.00000
8.28320	2570.00000
8.30240	2578.00000
8.32160	2604.00000
8.34080	2572.00000
8.36000	2611.00000
8.37920	2581.00000
8.39840	2600.00000
8.41760	2601.00000
8.43680	2578.00000
8.45600	2570.00000
8.47520	2576.00000
8.49440	2602.00000
8.51360	2603.00000
8.53280	2581.00000
8.55200	2598.00000
8.57120	2598.00000
8.59040	2590.00000
8.60960	2602.00000
8.62880	2585.00000
8.64800	2597.00000
8.66720	2608.00000
8.68640	2568.00000
8.70560	2558.00000
8.72480	2615.00000
8.74400	2608.00000
8.76320	2618.00000
8.78240	2617.00000
8.80160	2608.00000
8.82080	2576.00000
8.84000	2556.00000
8.85920	2581.00000
8.87840	2554.00000
8.89760	2592.00000
8.91680	2580.00000
8.93600	2548.00000
8.95520	2578.00000
8.97440	2564.00000
8.99360	2567.00000
9.01280	2548.00000
9.03200	2569.00000
9.05120	2568.00000
9.07040	2559.00000
9.08960	2584.00000
9.10880	2539.00000
9.12800	2577.00000
9.14720	2543.00000
9.16640	2564.00000
9.18560	2549.00000
9.20480	2547.00000
9.22400	2521.00000
9.24320	2529.00000
9.26240	2518.00000
9.28160	2541.00000
9.30080	2511.00000
9.32000	2513.00000
9.33920	2510.00000
9.35840	2502.00000
9.37760	2537.00000
9.39680	2540.00000
9.41600	2542.00000
9.43520	2521.00000
9.45440	2533.00000
9.47360	2566.00000
9.49280	2561.00000
9.51200	2584.00000
9.53120	2625.00000
9.55040	2642.00000
9.56960	2725.00000
9.58880	2828.00000
9.60800	2883.00000
9.62720	2890.00000
9.64640	2797.00000
9.66560	2654.00000
9.68480	2592.00000
9.70400	2537.00000
9.72320	2496.00000
9.74240	2496.00000
9.76160	2484.00000
9.78080	2527.00000
9.80000	2491.00000
9.81920	2463.00000
9.83840	2461.00000
9.85760	2456.00000
9.87680	2471.00000
9.89600	2471.00000
9.91520	2480.00000
9.93440	2481.00000
9.95360	2458.00000
9.97280	2445.00000
9.99200	2470.00000
10.01120	2475.00000
10.03040	2445.00000
10.04960	2423.00000
10.06880	2466.00000
10.08800	2434.00000
10.10720	2440.00000
10.12640	2423.00000
10.14560	2449.00000
10.16480	2416.00000
10.18400	2421.00000
10.20320	2444.00000
10.22240	2419.00000
10.24160	2431.00000
10.26080	2444.00000
10.28000	2444.00000
10.29920	2446.00000
10.31840	2438.00000
10.33760	2412.00000
10.35680	2440.00000
10.37600	2436.00000
10.39520	2453.00000
10.41440	2443.00000
10.43360	2440.00000
10.45280	2406.00000
10.47200	2395.00000
10.49120	2390.00000
10.51040	2410.00000
10.52960	2387.00000
10.54880	2390.00000
10.56800	2396.00000
10.58720	2377.00000
10.60640	2386.00000
10.62560	2397.00000
10.64480	2345.00000
10.66400	2348.00000
10.68320	2353.00000
10.70240	2377.00000
10.72160	2380.00000
10.74080	2332.00000
10.76000	2364.00000
10.77920	2354.00000
10.79840	2340.00000
10.81760	2351.00000
10.83680	2355.00000
10.85600	2353.00000
10.87520	2346.00000
10.89440	2340.00000
10.91360	2357.00000
10.93280	2366.00000
10.95200	2330.00000
10.97120	2323.00000
10.99040	2358.00000
11.00960	2324.00000
11.02880	2332.00000
11.04800	2322.00000
11.06720	2348.00000
11.08640	2283.00000
11.10560	2344.00000
11.12480	2345.00000
11.14400	2322.00000
11.16320	2362.00000
11.18240	2318.00000
11.20160	2337.00000
11.22080	2326.00000
11.24000	2344.00000
11.25920	2325.00000
11.27840	2348.00000
11.29760	2333.00000
11.31680	2350.00000
11.33600	2340.00000
11.35520	2363.00000
11.37440	2392.00000
11.39360	2387.00000
11.41280	2427.00000
11.43200	2440.00000
11.45120	2476.00000
11.47040	2525.00000
11.48960	2668.00000
11.50880	2765.00000
11.52800	2964.00000
11.54720	3210.00000
11.56640	3558.00000
11.58560	4071.00000
11.60480	4878.00000
11.62400	6004.00000
11.64320	7573.00000
11.66240	9454.00000
11.68160	10980.00000
11.70080	10786.00000
11.72000	8284.00000
11.73920	5509.00000
11.75840	3884.00000
11.77760	3133.00000
11.79680	2794.00000
11.81600	2615.00000
11.83520	2553.00000
11.85440	2492.00000
11.87360	2462.00000
11.89280	2410.00000
11.91200	2390.00000
11.93120	2415.00000
11.95040	2385.00000
11.96960	2366.00000
11.98880	2359.00000
12.00800	2330.00000
12.02720	2312.00000
12.04640	2302.00000
12.06560	2296.00000
12.08480	2288.00000
12.10400	2242.00000
12.12320	2276.00000
12.14240	2265.00000
12.16160	2251.00000
12.18080	2258.00000
12.20000	2251.00000
12.21920	2286.00000
12.23840	2260.00000
12.25760	2275.00000
12.27680	2273.00000
12.29600	2273.00000
12.31520	2236.00000
12.33440	2267.00000
12.35360	2302.00000
12.37280	2260.00000
12.39200	2308.00000
12.41120	2352.00000
12.43040	2362.00000
12.44960	2472.00000
12.46880	2579.00000
12.48800	2720.00000
12.50720	3022.00000
12.52640	3368.00000
12.54560	3862.00000
12.56480	4352.00000
12.58400	4485.00000
12.60320	4402.00000
12.62240	4456.00000
12.64160	4903.00000
12.66080	5548.00000
12.68000	5642.00000
12.69920	4774.00000
12.71840	3661.00000
12.73760	3009.00000
12.75680	2646.00000
12.77600	2479.00000
12.79520	2418.00000
12.81440	2340.00000
12.83360	2316.00000
12.85280	2306.00000
12.87200	2307.00000
12.89120	2259.00000
12.91040	2229.00000
12.92960	2233.00000
12.94880	2240.00000
12.96800	2230.00000
12.98720	2223.00000
13.00640	2206.00000
13.02560	2190.00000
13.04480	2223.00000
13.06400	2206.00000
13.08320	2174.00000
13.10240	2191.00000
13.12160	2186.00000
13.14080	2150.00000
13.16000	2194.00000
13.17920	2183.00000
13.19840	2177.00000
13.21760	2192.00000
13.23680	2135.00000
13.25600	2158.00000
13.27520	2197.00000
13.29440	2169.00000
13.31360	2172.00000
13.33280	2185.00000
13.35200	2184.00000
13.37120	2170.00000
13.39040	2188.00000
13.40960	2179.00000
13.42880	2173.00000
13.44800	2179.00000
13.46720	2152.00000
13.48640	2200.00000
13.50560	2234.00000
13.52480	2205.00000
13.54400	2193.00000
13.56320	2161.00000
13.58240	2150.00000
13.60160	2155.00000
13.62080	2157.00000
13.64000	2156.00000
13.65920	2133.00000
13.67840	2153.00000
13.69760	2165.00000
13.71680	2154.00000
13.73600	2187.00000
13.75520	2175.00000
13.77440	2139.00000
13.79360	2175.00000
13.81280	2142.00000
13.83200	2171.00000
13.85120	2158.00000
13.87040	2155.00000
13.88960	2166.00000
13.90880	2185.00000
13.92800	2194.00000
13.94720	2169.00000
13.96640	2155.00000
13.98560	2166.00000
14.00480	2174.00000
14.02400	2184.00000
14.04320	2167.00000
14.06240	2182.00000
14.08160	2176.00000
14.10080	2201.00000
14.12000	2189.00000
14.13920	2198.00000
14.15840	2189.00000
14.17760	2186.00000
14.19680	2175.00000
14.21600	2186.00000
14.23520	2190.00000
14.25440	2183.00000
14.27360	2176.00000
14.29280	2200.00000
14.31200	2152.00000
14.33120	2186.00000
14.35040	2197.00000
14.36960	2217.00000
14.38880	2191.00000
14.40800	2188.00000
14.42720	2213.00000
14.44640	2215.00000
14.46560	2226.00000
14.48480	2234.00000
14.50400	2208.00000
14.52320	2234.00000
14.54240	2264.00000
14.56160	2262.00000
14.58080	2305.00000
14.60000	2311.00000
14.61920	2341.00000
14.63840	2336.00000
14.65760	2330.00000
14.67680	2292.00000
14.69600	2260.00000
14.71520	2297.00000
14.73440	2270.00000
14.75360	2280.00000
14.77280	2302.00000
14.79200	2339.00000
14.81120	2385.00000
14.83040	2460.00000
14.84960	2512.00000
14.86880	2662.00000
14.88800	2908.00000
14.90720	3280.00000
14.92640	3802.00000
14.94560	4490.00000
14.96480	5126.00000
14.98400	5126.00000
15.00320	4363.00000
15.02240	3559.00000
15.04160	3026.00000
15.06080	2756.00000
15.08000	2576.00000
15.09920	2559.00000
15.11840	2512.00000
15.13760	2529.00000
15.15680	2539.00000
15.17600	2610.00000
15.19520	2670.00000
15.21440	2733.00000
15.23360	2807.00000
15.25280	2878.00000
15.27200	2879.00000
15.29120	3075.00000
15.31040	3423.00000
15.32960	3945.00000
15.34880	4875.00000
15.36800	6296.00000
15.38720	8402.00000
15.40640	10916.00000
15.42560	12639.00000
15.44480	11733.00000
15.46400	8725.00000
15.48320	5863.00000
15.50240	4198.00000
15.52160	3396.00000
15.54080	2976.00000
15.56000	2803.00000
15.57920	2651.00000
15.59840	2566.00000
15.61760	2530.00000
15.63680	2523.00000
15.65600	2504.00000
15.67520	2456.00000
15.69440	2479.00000
15.71360	2464.00000
15.73280	2466.00000
15.75200	2483.00000
15.77120	2480.00000
15.79040	2508.00000
15.80960	2504.00000
15.82880	2512.00000
15.84800	2540.00000
15.86720	2587.00000
15.88640	2661.00000
15.90560	2708.00000
15.92480	2850.00000
15.94400	3043.00000
15.96320	3340.00000
15.98240	3805.00000
16.00160	4548.00000
16.02080	5700.00000
16.04000	7424.00000
16.05920	9651.00000
16.07840	11929.00000
16.09760	12962.00000
16.11680	11584.00000
16.13600	8505.00000
16.15520	5892.00000
16.17440	4314.00000
16.19360	3487.00000
16.21280	3088.00000
16.23200	2849.00000
16.25120	2695.00000
16.27040	2628.00000
16.28960	2561.00000
16.30880	2516.00000
16.32800	2471.00000
16.34720	2463.00000
16.36640	2430.00000
16.38560	2432.00000
16.40480	2453.00000
16.42400	2385.00000
16.44320	2397.00000
16.46240	2407.00000
16.48160	2403.00000
16.50080	2399.00000
16.52000	2369.00000
16.53920	2398.00000
16.55840	2386.00000
16.57760	2395.00000
16.59680	2417.00000
16.61600	2355.00000
16.63520	2375.00000
16.65440	2352.00000
16.67360	2381.00000
16.69280	2368.00000
16.71200	2369.00000
16.73120	2395.00000
16.75040	2391.00000
16.76960	2378.00000
16.78880	2412.00000
16.80800	2421.00000
16.82720	2424.00000
16.84640	2452.00000
16.86560	2494.00000
16.88480	2594.00000
16.90400	2622.00000
16.92320	2726.00000
16.94240	2759.00000
16.96160	2673.00000
16.98080	2634.00000
17.00000	2548.00000
17.01920	2492.00000
17.03840	2478.00000
17.05760	2467.00000
17.07680	2468.00000
17.09600	2508.00000
17.11520	2554.00000
17.13440	2668.00000
17.15360	2790.00000
17.17280	2966.00000
17.19200	3279.00000
17.21120	3734.00000
17.23040	4277.00000
17.24960	4728.00000
17.26880	4743.00000
17.28800	4265.00000
17.30720	3611.00000
17.32640	3080.00000
17.34560	2798.00000
17.36480	2660.00000
17.38400	2545.00000
17.40320	2524.00000
17.42240	2485.00000
17.44160	2484.00000
17.46080	2451.00000
17.48000	2467.00000
17.49920	2469.00000
17.51840	2460.00000
17.53760	2438.00000
17.55680	2443.00000
17.57600	2474.00000
17.59520	2451.00000
17.61440	2428.00000
17.63360	2420.00000
17.65280	2431.00000
17.67200	2407.00000
17.69120	2383.00000
17.71040	2388.00000
17.72960	2386.00000
17.74880	2401.00000
17.76800	2374.00000
17.78720	2391.00000
17.80640	2392.00000
17.82560	2412.00000
17.84480	2404.00000
17.86400	2402.00000
17.88320	2384.00000
17.90240	2377.00000
17.92160	2427.00000
17.94080	2425.00000
17.96000	2438.00000
17.97920	2517.00000
17.99840	2536.00000
18.01760	2640.00000
18.03680	2731.00000
18.05600	2958.00000
18.07520	3203.00000
18.09440	3419.00000
18.11360	3574.00000
18.13280	3639.00000
18.15200	3584.00000
18.17120	3610.00000
18.19040	3682.00000
18.20960	3732.00000
18.22880	3544.00000
18.24800	3245.00000
18.26720	2966.00000
18.28640	2818.00000
18.30560	2801.00000
18.32480	2789.00000
18.34400	2848.00000
18.36320	2791.00000
18.38240	2740.00000
18.40160	2667.00000
18.42080	2606.00000
18.44000	2660.00000
18.45920	2740.00000
18.47840	2826.00000
18.49760	2868.00000
18.51680	2778.00000
18.53600	2669.00000
18.55520	2594.00000
18.57440	2596.00000
18.59360	2505.00000
18.61280	2529.00000
18.63200	2507.00000
18.65120	2476.00000
18.67040	2480.00000
18.68960	2444.00000
18.70880	2422.00000
18.72800	2390.00000
18.74720	2385.00000
18.76640	2370.00000
18.78560	2401.00000
18.80480	2408.00000
18.82400	2435.00000
18.84320	2457.00000
18.86240	2464.00000
18.88160	2489.00000
18.90080	2578.00000
18.92000	2639.00000
18.93920	2772.00000
18.95840	2867.00000
18.97760	2971.00000
18.99680	2968.00000
19.01600	3001.00000
19.03520	3107.00000
19.05440	3188.00000
19.07360	3082.00000
19.09280	2793.00000
19.11200	2630.00000
19.13120	2532.00000
19.15040	2487.00000
19.16960	2438.00000
19.18880	2430.00000
19.20800	2411.00000
19.22720	2375.00000
19.24640	2379.00000
19.26560	2387.00000
19.28480	2348.00000
19.30400	2370.00000
19.32320	2390.00000
19.34240	2354.00000
19.36160	2359.00000
19.38080	2387.00000
19.40000	2329.00000
19.41920	2366.00000
19.43840	2379.00000
19.45760	2374.00000
19.47680	2384.00000
19.49600	2391.00000
19.51520	2418.00000
19.53440	2418.00000
19.55360	2470.00000
19.57280	2510.00000
19.59200	2537.00000
19.61120	2652.00000
19.63040	2749.00000
19.64960	2926.00000
19.66880	3189.00000
19.68800	3598.00000
19.70720	4168.00000
19.72640	4897.00000
19.74560	5317.00000
19.76480	5200.00000
19.78400	4659.00000
19.80320	4326.00000
19.82240	4298.00000
19.84160	4712.00000
19.86080	5541.00000
19.88000	6753.00000
19.89920	8052.00000
19.91840	9094.00000
19.93760	8848.00000
19.95680	7530.00000
19.97600	6064.00000
19.99520	5012.00000
20.01440	4618.00000
20.03360	4571.00000
20.05280	5003.00000
20.07200	5869.00000
20.09120	6940.00000
20.11040	8002.00000
20.12960	8284.00000
20.14880	7410.00000
20.16800	5788.00000
20.18720	4474.00000
20.20640	3627.00000
20.22560	3173.00000
20.24480	2896.00000
20.26400	2738.00000
20.28320	2627.00000
20.30240	2519.00000
20.32160	2467.00000
20.34080	2481.00000
20.36000	2417.00000
20.37920	2390.00000
20.39840	2382.00000
20.41760	2357.00000
20.43680	2351.00000
20.45600	2345.00000
20.47520	2383.00000
20.49440	2342.00000
20.51360	2339.00000
20.53280	2330.00000
20.55200	2318.00000
20.57120	2328.00000
20.59040	2328.00000
20.60960	2342.00000
20.62880	2344.00000
20.64800	2343.00000
20.66720	2327.00000
20.68640	2359.00000
20.70560	2336.00000
20.72480	2295.00000
20.74400	2291.00000
20.76320	2320.00000
20.78240	2295.00000
20.80160	2308.00000
20.82080	2325.00000
20.84000	2336.00000
20.85920	2351.00000
20.87840	2378.00000
20.89760	2422.00000
20.91680	2495.00000
20.93600	2566.00000
20.95520	2608.00000
20.97440	2620.00000
20.99360	2625.00000
21.01280	2603.00000
21.03200	2610.00000
21.05120	2609.00000
21.07040	2644.00000
21.08960	2657.00000
21.10880	2661.00000
21.12800	2669.00000
21.14720	2669.00000
21.16640	2731.00000
21.18560	2870.00000
21.20480	3181.00000
21.22400	3669.00000
21.24320	4488.00000
21.26240	5653.00000
21.28160	7162.00000
21.30080	8062.00000
21.32000	7457.00000
21.33920	5709.00000
21.35840	4170.00000
21.37760	3342.00000
21.39680	2966.00000
21.41600	2764.00000
21.43520	2720.00000
21.45440	2652.00000
21.47360	2691.00000
21.49280	2767.00000
21.51200	2810.00000
21.53120	2834.00000
21.55040	2814.00000
21.56960	2676.00000
21.58880	2550.00000
21.60800	2501.00000
21.62720	2428.00000
21.64640	2415.00000
21.66560	2381.00000
21.68480	2368.00000
21.70400	2356.00000
21.72320	2286.00000
21.74240	2298.00000
21.76160	2270.00000
21.78080	2202.00000
21.80000	2225.00000
21.81920	2225.00000
21.83840	2197.00000
21.85760	2225.00000
21.87680	2199.00000
21.89600	2210.00000
21.91520	2211.00000
21.93440	2230.00000
21.95360	2227.00000
21.97280	2248.00000
21.99200	2258.00000
22.01120	2273.00000
22.03040	2281.00000
22.04960	2278.00000
22.06880	2342.00000
22.08800	2385.00000
22.10720	2483.00000
22.12640	2544.00000
22.14560	2720.00000
22.16480	2896.00000
22.18400	3204.00000
22.20320	3708.00000
22.22240	4421.00000
22.24160	5426.00000
22.26080	6754.00000
22.28000	8117.00000
22.29920	8898.00000
22.31840	8490.00000
22.33760	6997.00000
22.35680	5509.00000
22.37600	4444.00000
22.39520	3810.00000
22.41440	3411.00000
22.43360	3243.00000
22.45280	3194.00000
22.47200	3266.00000
22.49120	3444.00000
22.51040	3732.00000
22.52960	3860.00000
22.54880	3684.00000
22.56800	3272.00000
22.58720	2932.00000
22.60640	2721.00000
22.62560	2621.00000
22.64480	2606.00000
22.66400	2655.00000
22.68320	2811.00000
22.70240	3193.00000
22.72160	3658.00000
22.74080	4138.00000
22.76000	4469.00000
22.77920	4222.00000
22.79840	3596.00000
22.81760	2988.00000
22.83680	2599.00000
22.85600	2375.00000
22.87520	2251.00000
22.89440	2170.00000
22.91360	2155.00000
22.93280	2102.00000
22.95200	2100.00000
22.97120	2066.00000
22.99040	2037.00000
23.00960	2043.00000
23.02880	2021.00000
23.04800	2010.00000
23.06720	2026.00000
23.08640	2007.00000
23.10560	1973.00000
23.12480	1971.00000
23.14400	2001.00000
23.16320	1996.00000
23.18240	1988.00000
23.20160	1974.00000
23.22080	2016.00000
23.24000	2015.00000
23.25920	2058.00000
23.27840	2100.00000
23.29760	2153.00000
23.31680	2186.00000
23.33600	2159.00000
23.35520	2154.00000
23.37440	2115.00000
23.39360	2063.00000
23.41280	2040.00000
23.43200	2031.00000
23.45120	2044.00000
23.47040	2047.00000
23.48960	2036.00000
23.50880	2064.00000
23.52800	2050.00000
23.54720	1995.00000
23.56640	1985.00000
23.58560	1997.00000
23.60480	1988.00000
23.62400	2030.00000
23.64320	2064.00000
23.66240	2175.00000
23.68160	2320.00000
23.70080	2608.00000
23.72000	3082.00000
23.73920	3908.00000
23.75840	5016.00000
23.77760	6147.00000
23.79680	6478.00000
23.81600	5605.00000
23.83520	4187.00000
23.85440	3217.00000
23.87360	2589.00000
23.89280	2344.00000
23.91200	2172.00000
23.93120	2125.00000
23.95040	2067.00000
23.96960	2040.00000
23.98880	2046.00000
24.00800	2089.00000
24.02720	2160.00000
24.04640	2233.00000
24.06560	2349.00000
24.08480	2561.00000
24.10400	2854.00000
24.12320	3275.00000
24.14240	3790.00000
24.16160	4195.00000
24.18080	4366.00000
24.20000	4005.00000
24.21920	3295.00000
24.23840	2706.00000
24.25760	2390.00000
24.27680	2215.00000
24.29600	2119.00000
24.31520	2074.00000
24.33440	2106.00000
24.35360	2078.00000
24.37280	2067.00000
24.39200	2008.00000
24.41120	1958.00000
24.43040	1905.00000
24.44960	1906.00000
24.46880	1910.00000
24.48800	1933.00000
24.50720	1929.00000
24.52640	2013.00000
24.54560	2091.00000
24.56480	2203.00000
24.58400	2384.00000
24.60320	2461.00000
24.62240	2685.00000
24.64160	2957.00000
24.66080	3298.00000
24.68000	3669.00000
24.69920	3578.00000
24.71840	3168.00000
24.73760	2660.00000
24.75680	2305.00000
24.77600	2076.00000
24.79520	1985.00000
24.81440	1932.00000
24.83360	1870.00000
24.85280	1830.00000
24.87200	1795.00000
24.89120	1791.00000
24.91040	1772.00000
24.92960	1818.00000
24.94880	1838.00000
24.96800	1858.00000
24.98720	1863.00000
25.00640	1895.00000
25.02560	1878.00000
25.04480	1847.00000
25.06400	1775.00000
25.08320	1756.00000
25.10240	1731.00000
25.12160	1718.00000
25.14080	1749.00000
25.16000	1717.00000
25.17920	1751.00000
25.19840	1755.00000
25.21760	1780.00000
25.23680	1828.00000
25.25600	1869.00000
25.27520	1910.00000
25.29440	1955.00000
25.31360	1860.00000
25.33280	1802.00000
25.35200	1753.00000
25.37120	1715.00000
25.39040	1747.00000
25.40960	1828.00000
25.42880	1946.00000
25.44800	2148.00000
25.46720	2516.00000
25.48640	2726.00000
25.50560	2733.00000
25.52480	2450.00000
25.54400	2127.00000
25.56320	1902.00000
25.58240	1802.00000
25.60160	1748.00000
25.62080	1737.00000
25.64000	1694.00000
25.65920	1660.00000
25.67840	1675.00000
25.69760	1659.00000
25.71680	1677.00000
25.73600	1727.00000
25.75520	1783.00000
25.77440	1839.00000
25.79360	1767.00000
25.81280	1703.00000
25.83200	1635.00000
25.85120	1587.00000
25.87040	1568.00000
25.88960	1523.00000
25.90880	1493.00000
25.92800	1495.00000
25.94720	1491.00000
25.96640	1479.00000
25.98560	1498.00000
26.00480	1478.00000
26.02400	1476.00000
26.04320	1474.00000
26.06240	1531.00000
26.08160	1492.00000
26.10080	1520.00000
26.12000	1513.00000
26.13920	1487.00000
26.15840	1505.00000
26.17760	1477.00000
26.19680	1494.00000
26.21600	1497.00000
26.23520	1467.00000
26.25440	1469.00000
26.27360	1494.00000
26.29280	1517.00000
26.31200	1540.00000
26.33120	1576.00000
26.35040	1707.00000
26.36960	1841.00000
26.38880	1913.00000
26.40800	1906.00000
26.42720	1809.00000
26.44640	1698.00000
26.46560	1594.00000
26.48480	1541.00000
26.50400	1549.00000
26.52320	1536.00000
26.54240	1542.00000
26.56160	1561.00000
26.58080	1615.00000
26.60000	1682.00000
26.61920	1818.00000
26.63840	1932.00000
26.65760	2016.00000
26.67680	2090.00000
26.69600	2016.00000
26.71520	1963.00000
26.73440	1842.00000
26.75360	1744.00000
26.77280	1682.00000
26.79200	1643.00000
26.81120	1632.00000
26.83040	1632.00000
26.84960	1638.00000
26.86880	1642.00000
26.88800	1624.00000
26.90720	1617.00000
26.92640	1640.00000
26.94560	1677.00000
26.96480	1698.00000
26.98400	1694.00000
27.00320	1640.00000
27.02240	1594.00000
27.04160	1529.00000
27.06080	1542.00000
27.08000	1532.00000
27.09920	1578.00000
27.11840	1642.00000
27.13760	1740.00000
27.15680	1872.00000
27.17600	2090.00000
27.19520	2380.00000
27.21440	2630.00000
27.23360	2834.00000
27.25280	2798.00000
27.27200	2553.00000
27.29120	2219.00000
27.31040	1940.00000
27.32960	1770.00000
27.34880	1636.00000
27.36800	1590.00000
27.38720	1519.00000
27.40640	1487.00000
27.42560	1446.00000
27.44480	1429.00000
27.46400	1416.00000
27.48320	1447.00000
27.50240	1465.00000
27.52160	1511.00000
27.54080	1586.00000
27.56000	1694.00000
27.57920	1736.00000
27.59840	1738.00000
27.61760	1606.00000
27.63680	1497.00000
27.65600	1438.00000
27.67520	1395.00000
27.69440	1385.00000
27.71360	1370.00000
27.73280	1355.00000
27.75200	1356.00000
27.77120	1366.00000
27.79040	1403.00000
27.80960	1447.00000
27.82880	1502.00000
27.84800	1571.00000
27.86720	1560.00000
27.88640	1518.00000
27.90560	1470.00000
27.92480	1456.00000
27.94400	1412.00000
27.96320	1405.00000
27.98240	1423.00000
28.00160	1447.00000
28.02080	1497.00000
28.04000	1573.00000
28.05920	1624.00000
28.07840	1659.00000
28.09760	1606.00000
28.11680	1520.00000
28.13600	1428.00000
28.15520	1387.00000
28.17440	1336.00000
28.19360	1302.00000
28.21280	1294.00000
28.23200	1268.00000
28.25120	1285.00000
28.27040	1277.00000
28.28960	1288.00000
28.30880	1252.00000
28.32800	1268.00000
28.34720	1262.00000
28.36640	1297.00000
28.38560	1298.00000
28.40480	1287.00000
28.42400	1289.00000
28.44320	1279.00000
28.46240	1288.00000
28.48160	1314.00000
28.50080	1334.00000
28.52000	1369.00000
28.53920	1412.00000
28.55840	1444.00000
28.57760	1486.00000
28.59680	1452.00000
28.61600	1422.00000
28.63520	1401.00000
28.65440	1407.00000
28.67360	1418.00000
28.69280	1491.00000
28.71200	1518.00000
28.73120	1522.00000
28.75040	1514.00000
28.76960	1468.00000
28.78880	1425.00000
28.80800	1425.00000
28.82720	1429.00000
28.84640	1440.00000
28.86560	1496.00000
28.88480	1544.00000
28.90400	1599.00000
28.92320	1573.00000
28.94240	1514.00000
28.96160	1469.00000
28.98080	1409.00000
29.00000	1360.00000
29.01920	1378.00000
29.03840	1390.00000
29.05760	1483.00000
29.07680	1518.00000
29.09600	1524.00000
29.11520	1513.00000
29.13440	1465.00000
29.15360	1416.00000
29.17280	1332.00000
29.19200	1303.00000
29.21120	1282.00000
29.23040	1289.00000
29.24960	1294.00000
29.26880	1278.00000
29.28800	1215.00000
29.30720	1192.00000
29.32640	1175.00000
29.34560	1174.00000
29.36480	1163.00000
29.38400	1132.00000
29.40320	1143.00000
29.42240	1153.00000
29.44160	1143.00000
29.46080	1161.00000
29.48000	1170.00000
29.49920	1176.00000
29.51840	1166.00000
29.53760	1182.00000
29.55680	1185.00000
29.57600	1187.00000
29.59520	1203.00000
29.61440	1211.00000
29.63360	1205.00000
29.65280	1169.00000
29.67200	1166.00000
29.69120	1172.00000
29.71040	1137.00000
29.72960	1119.00000
29.74880	1131.00000
29.76800	1105.00000
29.78720	1087.00000
29.80640	1089.00000
29.82560	1090.00000
29.84480	1085.00000
29.86400	1084.00000
29.88320	1105.00000
29.90240	1086.00000
29.92160	1087.00000
29.94080	1099.00000
29.96000	1122.00000
29.97920	1093.00000
29.99840	1101.00000
30.01760	1126.00000
30.03680	1146.00000
30.05600	1163.00000
30.07520	1190.00000
30.09440	1270.00000
30.11360	1327.00000
30.13280	1411.00000
30.15200	1465.00000
30.17120	1493.00000
30.19040	1421.00000
30.20960	1337.00000
30.22880	1258.00000
30.24800	1186.00000
30.26720	1141.00000
30.28640	1108.00000
30.30560	1100.00000
30.32480	1081.00000
30.34400	1100.00000
30.36320	1093.00000
30.38240	1062.00000
30.40160	1076.00000
30.42080	1080.00000
30.44000	1096.00000
30.45920	1104.00000
30.47840	1102.00000
30.49760	1134.00000
30.51680	1148.00000
30.53600	1156.00000
30.55520	1168.00000
30.57440	1176.00000
30.59360	1174.00000
30.61280	1189.00000
30.63200	1235.00000
30.65120	1274.00000
30.67040	1306.00000
30.68960	1290.00000
30.70880	1301.00000
30.72800	1302.00000
30.74720	1266.00000
30.76640	1230.00000
30.78560	1221.00000
30.80480	1252.00000
30.82400	1227.00000
30.84320	1220.00000
30.86240	1166.00000
30.88160	1142.00000
30.90080	1131.00000
30.92000	1094.00000
30.93920	1100.00000
30.95840	1112.00000
30.97760	1090.00000
30.99680	1135.00000
31.01600	1173.00000
31.03520	1242.00000
31.05440	1258.00000
31.07360	1248.00000
31.09280	1210.00000
31.11200	1150.00000
31.13120	1148.00000
31.15040	1115.00000
31.16960	1103.00000
31.18880	1088.00000
31.20800	1077.00000
31.22720	1078.00000
31.24640	1095.00000
31.26560	1108.00000
31.28480	1136.00000
31.30400	1100.00000
31.32320	1089.00000
31.34240	1080.00000
31.36160	1069.00000
31.38080	1058.00000
31.40000	1063.00000
31.41920	1083.00000
31.43840	1073.00000
31.45760	1105.00000
31.47680	1076.00000
31.49600	1088.00000
31.51520	1049.00000
31.53440	1030.00000
31.55360	1008.00000
31.57280	1001.00000
31.59200	972.00000
31.61120	1009.00000
31.63040	985.00000
31.64960	982.00000
31.66880	970.00000
31.68800	999.00000
31.70720	988.00000
31.72640	999.00000
31.74560	1009.00000
31.76480	1016.00000
31.78400	1018.00000
31.80320	1051.00000
31.82240	1079.00000
31.84160	1115.00000
31.86080	1184.00000
31.88000	1228.00000
31.89920	1323.00000
31.91840	1455.00000
31.93760	1534.00000
31.95680	1602.00000
31.97600	1582.00000
31.99520	1540.00000
32.01440	1471.00000
32.03360	1367.00000
32.05280	1298.00000
32.07200	1217.00000
32.09120	1194.00000
32.11040	1191.00000
32.12960	1256.00000
32.14880	1295.00000
32.16800	1323.00000
32.18720	1285.00000
32.20640	1203.00000
32.22560	1143.00000
32.24480	1095.00000
32.26400	1076.00000
32.28320	1086.00000
32.30240	1092.00000
32.32160	1092.00000
32.34080	1092.00000
32.36000	1134.00000
32.37920	1196.00000
32.39840	1280.00000
32.41760	1325.00000
32.43680	1350.00000
32.45600	1328.00000
32.47520	1274.00000
32.49440	1197.00000
32.51360	1147.00000
32.53280	1130.00000
32.55200	1098.00000
32.57120	1107.00000
32.59040	1134.00000
32.60960	1159.00000
32.62880	1152.00000
32.64800	1164.00000
32.66720	1153.00000
32.68640	1162.00000
32.70560	1248.00000
32.72480	1316.00000
32.74400	1404.00000
32.76320	1505.00000
32.78240	1584.00000
32.80160	1625.00000
32.82080	1601.00000
32.84000	1532.00000
32.85920	1386.00000
32.87840	1304.00000
32.89760	1187.00000
32.91680	1122.00000
32.93600	1094.00000
32.95520	1049.00000
32.97440	1025.00000
32.99360	1019.00000
33.01280	1004.00000
33.03200	1005.00000
33.05120	986.00000
33.07040	1002.00000
33.08960	1009.00000
33.10880	993.00000
33.12800	1022.00000
33.14720	1004.00000
33.16640	991.00000
33.18560	1002.00000
33.20480	968.00000
33.22400	983.00000
33.24320	962.00000
33.26240	986.00000
33.28160	986.00000
33.30080	1021.00000
33.32000	1042.00000
33.33920	1066.00000
33.35840	1088.00000
33.37760	1058.00000
33.39680	1043.00000
33.41600	1002.00000
33.43520	995.00000
33.45440	951.00000
33.47360	939.00000
33.49280	954.00000
33.51200	942.00000
33.53120	941.00000
33.55040	914.00000
33.56960	914.00000
33.58880	921.00000
33.60800	903.00000
33.62720	901.00000
33.64640	910.00000
33.66560	901.00000
33.68480	902.00000
33.70400	939.00000
33.72320	924.00000
33.74240	950.00000
33.76160	933.00000
33.78080	960.00000
33.80000	1009.00000
33.81920	1035.00000
33.83840	1082.00000
33.85760	1102.00000
33.87680	1129.00000
33.89600	1132.00000
33.91520	1112.00000
33.93440	1125.00000
33.95360	1090.00000
33.97280	1174.00000
33.99200	1247.00000
34.01120	1311.00000
34.03040	1352.00000
34.04960	1297.00000
34.06880	1268.00000
34.08800	1176.00000
34.10720	1089.00000
34.12640	1030.00000
34.14560	1012.00000
34.16480	1001.00000
34.18400	996.00000
34.20320	995.00000
34.22240	1047.00000
34.24160	1050.00000
34.26080	1105.00000
34.28000	1144.00000
34.29920	1130.00000
34.31840	1117.00000
34.33760	1038.00000
34.35680	1028.00000
34.37600	980.00000
34.39520	970.00000
34.41440	977.00000
34.43360	992.00000
34.45280	1023.00000
34.47200	1069.00000
34.49120	1124.00000
34.51040	1170.00000
34.52960	1200.00000
34.54880	1187.00000
34.56800	1162.00000
34.58720	1105.00000
34.60640	1042.00000
34.62560	1005.00000
34.64480	994.00000
34.66400	953.00000
34.68320	960.00000
34.70240	926.00000
34.72160	918.00000
34.74080	904.00000
34.76000	900.00000
34.77920	908.00000
34.79840	919.00000
34.81760	916.00000
34.83680	933.00000
34.85600	939.00000
34.87520	930.00000
34.89440	938.00000
34.91360	954.00000
34.93280	954.00000
34.95200	970.00000
34.97120	1028.00000
34.99040	1083.00000
35.00960	1110.00000
35.02880	1167.00000
35.04800	1178.00000
35.06720	1140.00000
35.08640	1102.00000
35.10560	1027.00000
35.12480	990.00000
35.14400	940.00000
35.16320	910.00000
35.18240	905.00000
35.20160	884.00000
35.22080	886.00000
35.24000	908.00000
35.25920	881.00000
35.27840	899.00000
35.29760	885.00000
35.31680	889.00000
35.33600	901.00000
35.35520	906.00000
35.37440	921.00000
35.39360	931.00000
35.41280	922.00000
35.43200	901.00000
35.45120	886.00000
35.47040	881.00000
35.48960	859.00000
35.50880	873.00000
35.52800	858.00000
35.54720	852.00000
35.56640	854.00000
35.58560	859.00000
35.60480	858.00000
35.62400	844.00000
35.64320	832.00000
35.66240	846.00000
35.68160	841.00000
35.70080	812.00000
35.72000	818.00000
35.73920	837.00000
35.75840	817.00000
35.77760	835.00000
35.79680	823.00000
35.81600	826.00000
35.83520	805.00000
35.85440	823.00000
35.87360	834.00000
35.89280	846.00000
35.91200	842.00000
35.93120	817.00000
35.95040	849.00000
35.96960	830.00000
35.98880	853.00000
36.00800	840.00000
36.02720	853.00000
36.04640	853.00000
36.06560	874.00000
36.08480	854.00000
36.10400	842.00000
36.12320	828.00000
36.14240	837.00000
36.16160	848.00000
36.18080	849.00000
36.20000	869.00000
36.21920	840.00000
36.23840	844.00000
36.25760	822.00000
36.27680	844.00000
36.29600	845.00000
36.31520	840.00000
36.33440	863.00000
36.35360	866.00000
36.37280	840.00000
36.39200	832.00000
36.41120	838.00000
36.43040	826.00000
36.44960	810.00000
36.46880	823.00000
36.48800	835.00000
36.50720	841.00000
36.52640	834.00000
36.54560	830.00000
36.56480	824.00000
36.58400	844.00000
36.60320	834.00000
36.62240	877.00000
36.64160	876.00000
36.66080	892.00000
36.68000	916.00000
36.69920	909.00000
36.71840	907.00000
36.73760	885.00000
36.75680	868.00000
36.77600	848.00000
36.79520	878.00000
36.81440	865.00000
36.83360	873.00000
36.85280	864.00000
36.87200	868.00000
36.89120	862.00000
36.91040	860.00000
36.92960	837.00000
36.94880	838.00000
36.96800	843.00000
36.98720	823.00000
37.00640	818.00000
37.02560	835.00000
37.04480	860.00000
37.06400	873.00000
37.08320	874.00000
37.10240	899.00000
37.12160	912.00000
37.14080	914.00000
37.16000	888.00000
37.17920	851.00000
37.19840	841.00000
37.21760	826.00000
37.23680	835.00000
37.25600	829.00000
37.27520	827.00000
37.29440	835.00000
37.31360	826.00000
37.33280	852.00000
37.35200	839.00000
37.37120	863.00000
37.39040	873.00000
37.40960	888.00000
37.42880	907.00000
37.44800	922.00000
37.46720	939.00000
37.48640	935.00000
37.50560	936.00000
37.52480	950.00000
37.54400	950.00000
37.56320	957.00000
37.58240	937.00000
37.60160	928.00000
37.62080	911.00000
37.64000	886.00000
37.65920	880.00000
37.67840	866.00000
37.69760	891.00000
37.71680	872.00000
37.73600	881.00000
37.75520	869.00000
37.77440	872.00000
37.79360	881.00000
37.81280	842.00000
37.83200	841.00000
37.85120	825.00000
37.87040	816.00000
37.88960	818.00000
37.90880	829.00000
37.92800	847.00000
37.94720	845.00000
37.96640	859.00000
37.98560	858.00000
38.00480	860.00000
38.02400	861.00000
38.04320	835.00000
38.06240	839.00000
38.08160	823.00000
38.10080	845.00000
38.12000	828.00000
38.13920	867.00000
38.15840	841.00000
38.17760	844.00000
38.19680	840.00000
38.21600	831.00000
38.23520	842.00000
38.25440	825.00000
38.27360	839.00000
38.29280	854.00000
38.31200	858.00000
38.33120	850.00000
38.35040	871.00000
38.36960	861.00000
38.38880	896.00000
38.40800	936.00000
38.42720	951.00000
38.44640	1018.00000
38.46560	1042.00000
38.48480	1048.00000
38.50400	1015.00000
38.52320	998.00000
38.54240	995.00000
38.56160	995.00000
38.58080	1008.00000
38.60000	1021.00000
38.61920	1062.00000
38.63840	1066.00000
38.65760	1079.00000
38.67680	1087.00000
38.69600	1076.00000
38.71520	1052.00000
38.73440	1045.00000
38.75360	987.00000
38.77280	961.00000
38.79200	956.00000
38.81120	957.00000
38.83040	946.00000
38.84960	928.00000
38.86880	933.00000
38.88800	923.00000
38.90720	950.00000
38.92640	960.00000
38.94560	993.00000
38.96480	988.00000
38.98400	1003.00000
39.00320	1016.00000
39.02240	985.00000
39.04160	935.00000
39.06080	936.00000
39.08000	924.00000
39.09920	931.00000
39.11840	924.00000
39.13760	931.00000
39.15680	930.00000
39.17600	937.00000
39.19520	934.00000
39.21440	924.00000
39.23360	912.00000
39.25280	903.00000
39.27200	906.00000
39.29120	929.00000
39.31040	929.00000
39.32960	940.00000
39.34880	987.00000
39.36800	1001.00000
39.38720	1056.00000
39.40640	1126.00000
39.42560	1158.00000
39.44480	1199.00000
39.46400	1231.00000
39.48320	1246.00000
39.50240	1251.00000
39.52160	1272.00000
39.54080	1191.00000
39.56000	1096.00000
39.57920	1026.00000
39.59840	994.00000
39.61760	946.00000
39.63680	913.00000
39.65600	920.00000
39.67520	884.00000
39.69440	910.00000
39.71360	913.00000
39.73280	972.00000
39.75200	969.00000
39.77120	1052.00000
39.79040	1140.00000
39.80960	1204.00000
39.82880	1270.00000
39.84800	1256.00000
39.86720	1193.00000
39.88640	1108.00000
39.90560	1029.00000
39.92480	981.00000
39.94400	953.00000
39.96320	920.00000
39.98240	918.00000
40.00160	921.00000
40.02080	952.00000
40.04000	951.00000
40.05920	994.00000
40.07840	1034.00000
40.09760	1032.00000
40.11680	1018.00000
40.13600	996.00000
40.15520	950.00000
40.17440	920.00000
40.19360	901.00000
40.21280	890.00000
40.23200	892.00000
40.25120	918.00000
40.27040	917.00000
40.28960	920.00000
40.30880	913.00000
40.32800	915.00000
40.34720	899.00000
40.36640	925.00000
40.38560	958.00000
40.40480	968.00000
40.42400	991.00000
40.44320	1026.00000
40.46240	1025.00000
40.48160	1014.00000
40.50080	992.00000
40.52000	968.00000
40.53920	960.00000
40.55840	984.00000
40.57760	1009.00000
40.59680	1014.00000
40.61600	986.00000
40.63520	959.00000
40.65440	908.00000
40.67360	854.00000
40.69280	850.00000
40.71200	843.00000
40.73120	827.00000
40.75040	824.00000
40.76960	831.00000
40.78880	835.00000
40.80800	841.00000
40.82720	836.00000
40.84640	881.00000
40.86560	899.00000
40.88480	934.00000
40.90400	998.00000
40.92320	1093.00000
40.94240	1159.00000
40.96160	1187.00000
40.98080	1225.00000
41.00000	1162.00000
41.01920	1084.00000
41.03840	1018.00000
41.05760	954.00000
41.07680	937.00000
41.09600	908.00000
41.11520	888.00000
41.13440	893.00000
41.15360	859.00000
41.17280	857.00000
41.19200	841.00000
41.21120	833.00000
41.23040	816.00000
41.24960	812.00000
41.26880	799.00000
41.28800	787.00000
41.30720	800.00000
41.32640	812.00000
41.34560	804.00000
41.36480	800.00000
41.38400	815.00000
41.40320	822.00000
41.42240	820.00000
41.44160	841.00000
41.46080	839.00000
41.48000	829.00000
41.49920	816.00000
41.51840	811.00000
41.53760	816.00000
41.55680	802.00000
41.57600	810.00000
41.59520	825.00000
41.61440	827.00000
41.63360	862.00000
41.65280	874.00000
41.67200	905.00000
41.69120	934.00000
41.71040	988.00000
41.72960	1005.00000
41.74880	1022.00000
41.76800	1014.00000
41.78720	945.00000
41.80640	887.00000
41.82560	858.00000
41.84480	842.00000
41.86400	829.00000
41.88320	824.00000
41.90240	819.00000
41.92160	796.00000
41.94080	799.00000
41.96000	787.00000
41.97920	812.00000
41.99840	809.00000
42.01760	834.00000
42.03680	822.00000
42.05600	829.00000
42.07520	835.00000
42.09440	835.00000
42.11360	819.00000
42.13280	822.00000
42.15200	808.00000
42.17120	803.00000
42.19040	820.00000
42.20960	798.00000
42.22880	803.00000
42.24800	799.00000
42.26720	798.00000
42.28640	793.00000
42.30560	789.00000
42.32480	787.00000
42.34400	798.00000
42.36320	811.00000
42.38240	818.00000
42.40160	819.00000
42.42080	848.00000
42.44000	846.00000
42.45920	878.00000
42.47840	885.00000
42.49760	914.00000
42.51680	926.00000
42.53600	934.00000
42.55520	955.00000
42.57440	972.00000
42.59360	965.00000
42.61280	961.00000
42.63200	945.00000
42.65120	904.00000
42.67040	880.00000
42.68960	842.00000
42.70880	835.00000
42.72800	820.00000
42.74720	798.00000
42.76640	791.00000
42.78560	778.00000
42.80480	774.00000
42.82400	779.00000
42.84320	796.00000
42.86240	783.00000
42.88160	798.00000
42.90080	794.00000
42.92000	808.00000
42.93920	802.00000
42.95840	802.00000
42.97760	800.00000
42.99680	808.00000
43.01600	806.00000
43.03520	819.00000
43.05440	802.00000
43.07360	828.00000
43.09280	828.00000
43.11200	861.00000
43.13120	845.00000
43.15040	861.00000
43.16960	861.00000
43.18880	852.00000
43.20800	859.00000
43.22720	843.00000
43.24640	837.00000
43.26560	826.00000
43.28480	836.00000
43.30400	846.00000
43.32320	845.00000
43.34240	837.00000
43.36160	844.00000
43.38080	857.00000
43.40000	840.00000
43.41920	803.00000
43.43840	807.00000
43.45760	771.00000
43.47680	780.00000
43.49600	771.00000
43.51520	763.00000
43.53440	774.00000
43.55360	770.00000
43.57280	779.00000
43.59200	784.00000
43.61120	805.00000
43.63040	828.00000
43.64960	819.00000
43.66880	859.00000
43.68800	882.00000
43.70720	865.00000
43.72640	880.00000
43.74560	865.00000
43.76480	861.00000
43.78400	838.00000
43.80320	820.00000
43.82240	815.00000
43.84160	809.00000
43.86080	800.00000
43.88000	787.00000
43.89920	786.00000
43.91840	786.00000
43.93760	776.00000
43.95680	756.00000
43.97600	756.00000
43.99520	751.00000
44.01440	763.00000
44.03360	768.00000
44.05280	760.00000
44.07200	775.00000
44.09120	780.00000
44.11040	800.00000
44.12960	815.00000
44.14880	824.00000
44.16800	840.00000
44.18720	825.00000
44.20640	817.00000
44.22560	818.00000
44.24480	789.00000
44.26400	809.00000
44.28320	773.00000
44.30240	772.00000
44.32160	751.00000
44.34080	742.00000
44.36000	746.00000
44.37920	736.00000
44.39840	723.00000
44.41760	726.00000
44.43680	745.00000
44.45600	725.00000
44.47520	731.00000
44.49440	745.00000
44.51360	727.00000
44.53280	755.00000
44.55200	741.00000
44.57120	742.00000
44.59040	748.00000
44.60960	738.00000
44.62880	742.00000
44.64800	745.00000
44.66720	755.00000
44.68640	740.00000
44.70560	745.00000
44.72480	756.00000
44.74400	759.00000
44.76320	782.00000
44.78240	775.00000
44.80160	803.00000
44.82080	805.00000
44.84000	805.00000
44.85920	822.00000
44.87840	806.00000
44.89760	844.00000
44.91680	854.00000
44.93600	864.00000
44.95520	856.00000
44.97440	858.00000
44.99360	850.00000
45.01280	815.00000
45.03200	811.00000
45.05120	769.00000
45.07040	762.00000
45.08960	751.00000
45.10880	751.00000
45.12800	745.00000
45.14720	762.00000
45.16640	760.00000
45.18560	767.00000
45.20480	781.00000
45.22400	783.00000
45.24320	782.00000
45.26240	771.00000
45.28160	767.00000
45.30080	760.00000
45.32000	723.00000
45.33920	735.00000
45.35840	741.00000
45.37760	729.00000
45.39680	733.00000
45.41600	741.00000
45.43520	732.00000
45.45440	757.00000
45.47360	717.00000
45.49280	733.00000
45.51200	730.00000
45.53120	723.00000
45.55040	710.00000
45.56960	720.00000
45.58880	715.00000
45.60800	724.00000
45.62720	719.00000
45.64640	708.00000
45.66560	726.00000
45.68480	719.00000
45.70400	718.00000
45.72320	706.00000
45.74240	733.00000
45.76160	750.00000
45.78080	727.00000
45.80000	722.00000
45.81920	752.00000
45.83840	734.00000
45.85760	758.00000
45.87680	777.00000
45.89600	784.00000
45.91520	813.00000
45.93440	844.00000
45.95360	842.00000
45.97280	845.00000
45.99200	857.00000
46.01120	839.00000
46.03040	798.00000
46.04960	776.00000
46.06880	788.00000
46.08800	783.00000
46.10720	782.00000
46.12640	768.00000
46.14560	761.00000
46.16480	748.00000
46.18400	758.00000
46.20320	735.00000
46.22240	731.00000
46.24160	741.00000
46.26080	732.00000
46.28000	730.00000
46.29920	753.00000
46.31840	737.00000
46.33760	760.00000
46.35680	772.00000
46.37600	780.00000
46.39520	795.00000
46.41440	818.00000
46.43360	840.00000
46.45280	831.00000
46.47200	834.00000
46.49120	803.00000
46.51040	805.00000
46.52960	784.00000
46.54880	785.00000
46.56800	786.00000
46.58720	752.00000
46.60640	745.00000
46.62560	733.00000
46.64480	710.00000
46.66400	703.00000
46.68320	725.00000
46.70240	722.00000
46.72160	728.00000
46.74080	739.00000
46.76000	747.00000
46.77920	767.00000
46.79840	771.00000
46.81760	775.00000
46.83680	783.00000
46.85600	768.00000
46.87520	769.00000
46.89440	781.00000
46.91360	785.00000
46.93280	798.00000
46.95200	800.00000
46.97120	784.00000
46.99040	761.00000
47.00960	755.00000
47.02880	739.00000
47.04800	720.00000
47.06720	725.00000
47.08640	726.00000
47.10560	698.00000
47.12480	692.00000
47.14400	686.00000
47.16320	686.00000
47.18240	689.00000
47.20160	692.00000
47.22080	681.00000
47.24000	691.00000
47.25920	692.00000
47.27840	685.00000
47.29760	678.00000
47.31680	688.00000
47.33600	694.00000
47.35520	695.00000
47.37440	704.00000
47.39360	722.00000
47.41280	720.00000
47.43200	737.00000
47.45120	746.00000
47.47040	735.00000
47.48960	734.00000
47.50880	708.00000
47.52800	712.00000
47.54720	725.00000
47.56640	683.00000
47.58560	680.00000
47.60480	680.00000
47.62400	673.00000
47.64320	702.00000
47.66240	677.00000
47.68160	689.00000
47.70080	711.00000
47.72000	687.00000
47.73920	692.00000
47.75840	700.00000
47.77760	703.00000
47.79680	696.00000
47.81600	698.00000
47.83520	722.00000
47.85440	708.00000
47.87360	700.00000
47.89280	710.00000
47.91200	723.00000
47.93120	728.00000
47.95040	708.00000
47.96960	701.00000
47.98880	684.00000
48.00800	707.00000
48.02720	698.00000
48.04640	698.00000
48.06560	696.00000
48.08480	694.00000
48.10400	693.00000
48.12320	672.00000
48.14240	669.00000
48.16160	664.00000
48.18080	652.00000
48.20000	660.00000
48.21920	651.00000
48.23840	651.00000
48.25760	662.00000
48.27680	679.00000
48.29600	682.00000
48.31520	686.00000
48.33440	692.00000
48.35360	705.00000
48.37280	716.00000
48.39200	720.00000
48.41120	729.00000
48.43040	700.00000
48.44960	693.00000
48.46880	695.00000
48.48800	684.00000
48.50720	695.00000
48.52640	677.00000
48.54560	685.00000
48.56480	711.00000
48.58400	719.00000
48.60320	735.00000
48.62240	776.00000
48.64160	795.00000
48.66080	850.00000
48.68000	894.00000
48.69920	927.00000
48.71840	925.00000
48.73760	909.00000
48.75680	850.00000
48.77600	822.00000
48.79520	783.00000
48.81440	758.00000
48.83360	740.00000
48.85280	726.00000
48.87200	707.00000
48.89120	705.00000
48.91040	683.00000
48.92960	692.00000
48.94880	708.00000
48.96800	692.00000
48.98720	720.00000
49.00640	719.00000
49.02560	716.00000
49.04480	714.00000
49.06400	690.00000
49.08320	684.00000
49.10240	684.00000
49.12160	665.00000
49.14080	669.00000
49.16000	680.00000
49.17920	677.00000
49.19840	715.00000
49.21760	741.00000
49.23680	768.00000
49.25600	789.00000
49.27520	797.00000
49.29440	799.00000
49.31360	796.00000
49.33280	768.00000
49.35200	720.00000
49.37120	718.00000
49.39040	683.00000
49.40960	672.00000
49.42880	672.00000
49.44800	687.00000
49.46720	702.00000
49.48640	703.00000
49.50560	731.00000
49.52480	736.00000
49.54400	735.00000
49.56320	744.00000
49.58240	739.00000
49.60160	709.00000
49.62080	735.00000
49.64000	715.00000
49.65920	698.00000
49.67840	701.00000
49.69760	672.00000
49.71680	673.00000
49.73600	653.00000
49.75520	643.00000
49.77440	642.00000
49.79360	649.00000
49.81280	617.00000
49.83200	634.00000
49.85120	621.00000
49.87040	607.00000
49.88960	612.00000
49.90880	598.00000
49.92800	614.00000
49.94720	601.00000
49.96640	598.00000
49.98560	614.00000
50.00480	625.00000
50.02400	614.00000
50.04320	614.00000
50.06240	632.00000
50.08160	634.00000
50.10080	638.00000
50.12000	638.00000
50.13920	632.00000
50.15840	616.00000
50.17760	638.00000
50.19680	634.00000
50.21600	621.00000
50.23520	612.00000
50.25440	606.00000
50.27360	609.00000
50.29280	588.00000
50.31200	587.00000
50.33120	612.00000
50.35040	591.00000
50.36960	578.00000
50.38880	584.00000
50.40800	580.00000
50.42720	585.00000
50.44640	599.00000
50.46560	582.00000
50.48480	599.00000
50.50400	581.00000
50.52320	614.00000
50.54240	602.00000
50.56160	592.00000
50.58080	597.00000
50.60000	597.00000
50.61920	607.00000
50.63840	614.00000
50.65760	608.00000
50.67680	615.00000
50.69600	627.00000
50.71520	632.00000
50.73440	614.00000
50.75360	646.00000
50.77280	654.00000
50.79200	641.00000
50.81120	658.00000
50.83040	672.00000
50.84960	693.00000
50.86880	695.00000
50.88800	683.00000
50.90720	672.00000
50.92640	661.00000
50.94560	649.00000
50.96480	641.00000
50.98400	634.00000
51.00320	621.00000
51.02240	628.00000
51.04160	647.00000
51.06080	644.00000
51.08000	683.00000
51.09920	683.00000
51.11840	704.00000
51.13760	687.00000
51.15680	691.00000
51.17600	656.00000
51.19520	637.00000
51.21440	632.00000
51.23360	630.00000
51.25280	616.00000
51.27200	620.00000
51.29120	606.00000
51.31040	615.00000
51.32960	624.00000
51.34880	610.00000
51.36800	612.00000
51.38720	619.00000
51.40640	603.00000
51.42560	600.00000
51.44480	601.00000
51.46400	605.00000
51.48320	600.00000
51.50240	574.00000
51.52160	595.00000
51.54080	572.00000
51.56000	581.00000
51.57920	559.00000
51.59840	564.00000
51.61760	574.00000
51.63680	580.00000
51.65600	567.00000
51.67520	566.00000
51.69440	576.00000
51.71360	571.00000
51.73280	559.00000
51.75200	584.00000
51.77120	578.00000
51.79040	580.00000
51.80960	600.00000
51.82880	609.00000
51.84800	605.00000
51.86720	625.00000
51.88640	650.00000
51.90560	654.00000
51.92480	631.00000
51.94400	625.00000
51.96320	633.00000
51.98240	609.00000
52.00160	602.00000
52.02080	597.00000
52.04000	598.00000
52.05920	586.00000
52.07840	600.00000
52.09760	597.00000
52.11680	615.00000
52.13600	603.00000
52.15520	598.00000
52.17440	615.00000
52.19360	613.00000
52.21280	598.00000
52.23200	591.00000
52.25120	592.00000
52.27040	586.00000
52.28960	574.00000
52.30880	581.00000
52.32800	571.00000
52.34720	553.00000
52.36640	549.00000
52.38560	550.00000
52.40480	545.00000
52.42400	562.00000
52.44320	530.00000
52.46240	533.00000
52.48160	551.00000
52.50080	539.00000
52.52000	545.00000
52.53920	537.00000
52.55840	545.00000
52.57760	558.00000
52.59680	544.00000
52.61600	546.00000
52.63520	558.00000
52.65440	553.00000
52.67360	560.00000
52.69280	571.00000
52.71200	559.00000
52.73120	560.00000
52.75040	554.00000
52.76960	543.00000
52.78880	553.00000
52.80800	565.00000
52.82720	552.00000
52.84640	563.00000
52.86560	565.00000
52.88480	571.00000
52.90400	568.00000
52.92320	566.00000
52.94240	568.00000
52.96160	571.00000
52.98080	552.00000
53.00000	538.00000
53.01920	543.00000
53.03840	534.00000
53.05760	532.00000
53.07680	532.00000
53.09600	556.00000
53.11520	553.00000
53.13440	540.00000
53.15360	541.00000
53.17280	539.00000
53.19200	557.00000
53.21120	544.00000
53.23040	548.00000
53.24960	559.00000
53.26880	542.00000
53.28800	550.00000
53.30720	553.00000
53.32640	568.00000
53.34560	556.00000
53.36480	572.00000
53.38400	578.00000
53.40320	592.00000
53.42240	598.00000
53.44160	601.00000
53.46080	611.00000
53.48000	608.00000
53.49920	598.00000
53.51840	603.00000
53.53760	577.00000
53.55680	587.00000
53.57600	576.00000
53.59520	566.00000
53.61440	587.00000
53.63360	589.00000
53.65280	596.00000
53.67200	599.00000
53.69120	605.00000
53.71040	609.00000
53.72960	615.00000
53.74880	604.00000
53.76800	596.00000
53.78720	598.00000
53.80640	596.00000
53.82560	587.00000
53.84480	582.00000
53.86400	557.00000
53.88320	567.00000
53.90240	546.00000
53.92160	565.00000
53.94080	570.00000
53.96000	558.00000
53.97920	562.00000
53.99840	571.00000
54.01760	573.00000
54.03680	557.00000
54.05600	552.00000
54.07520	541.00000
54.09440	538.00000
54.11360	556.00000
54.13280	530.00000
54.15200	525.00000
54.17120	530.00000
54.19040	532.00000
54.20960	531.00000
54.22880	518.00000
54.24800	544.00000
54.26720	564.00000
54.28640	561.00000
54.30560	600.00000
54.32480	573.00000
54.34400	560.00000
54.36320	559.00000
54.38240	534.00000
54.40160	521.00000
54.42080	524.00000
54.44000	518.00000
54.45920	506.00000
54.47840	513.00000
54.49760	501.00000
54.51680	507.00000
54.53600	499.00000
54.55520	504.00000
54.57440	508.00000
54.59360	495.00000
54.61280	512.00000
54.63200	504.00000
54.65120	540.00000
54.67040	508.00000
54.68960	506.00000
54.70880	509.00000
54.72800	504.00000
54.74720	500.00000
54.76640	500.00000
54.78560	510.00000
54.80480	497.00000
54.82400	505.00000
54.84320	506.00000
54.86240	493.00000
54.88160	512.00000
54.90080	519.00000
54.92000	516.00000
54.93920	499.00000
54.95840	505.00000
54.97760	504.00000
54.99680	510.00000
55.01600	516.00000
55.03520	510.00000
55.05440	521.00000
55.07360	508.00000
55.09280	520.00000
55.11200	520.00000
55.13120	532.00000
55.15040	524.00000
55.16960	544.00000
55.18880	523.00000
55.20800	526.00000
55.22720	511.00000
55.24640	507.00000
55.26560	529.00000
55.28480	504.00000
55.30400	515.00000
55.32320	489.00000
55.34240	504.00000
55.36160	508.00000
55.38080	502.00000
55.40000	500.00000
55.41920	506.00000
55.43840	519.00000
55.45760	522.00000
55.47680	530.00000
55.49600	540.00000
55.51520	538.00000
55.53440	525.00000
55.55360	527.00000
55.57280	521.00000
55.59200	527.00000
55.61120	524.00000
55.63040	522.00000
55.64960	520.00000
55.66880	512.00000
55.68800	512.00000
55.70720	510.00000
55.72640	527.00000
55.74560	495.00000
55.76480	504.00000
55.78400	486.00000
55.80320	480.00000
55.82240	486.00000
55.84160	487.00000
55.86080	487.00000
55.88000	480.00000
55.89920	506.00000
55.91840	497.00000
55.93760	508.00000
55.95680	496.00000
55.97600	512.00000
55.99520	510.00000
56.01440	503.00000
56.03360	505.00000
56.05280	519.00000
56.07200	506.00000
56.09120	498.00000
56.11040	502.00000
56.12960	514.00000
56.14880	498.00000
56.16800	498.00000
56.18720	495.00000
56.20640	492.00000
56.22560	483.00000
56.24480	491.00000
56.26400	498.00000
56.28320	504.00000
56.30240	493.00000
56.32160	502.00000
56.34080	488.00000
56.36000	498.00000
56.37920	497.00000
56.39840	491.00000
56.41760	481.00000
56.43680	484.00000
56.45600	482.00000
56.47520	474.00000
56.49440	468.00000
56.51360	486.00000
56.53280	473.00000
56.55200	467.00000
56.57120	480.00000
56.59040	464.00000
56.60960	481.00000
56.62880	479.00000
56.64800	471.00000
56.66720	488.00000
56.68640	472.00000
56.70560	466.00000
56.72480	462.00000
56.74400	476.00000
56.76320	477.00000
56.78240	479.00000
56.80160	473.00000
56.82080	478.00000
56.84000	484.00000
56.85920	477.00000
56.87840	469.00000
56.89760	461.00000
56.91680	471.00000
56.93600	486.00000
56.95520	453.00000
56.97440	480.00000
56.99360	473.00000
57.01280	473.00000
57.03200	467.00000
57.05120	481.00000
57.07040	466.00000
57.08960	471.00000
57.10880	471.00000
57.12800	469.00000
57.14720	458.00000
57.16640	471.00000
57.18560	473.00000
57.20480	458.00000
57.22400	467.00000
57.24320	470.00000
57.26240	483.00000
57.28160	470.00000
57.30080	483.00000
57.32000	478.00000
57.33920	474.00000
57.35840	477.00000
57.37760	480.00000
57.39680	475.00000
57.41600	485.00000
57.43520	470.00000
57.45440	460.00000
57.47360	470.00000
57.49280	454.00000
57.51200	464.00000
57.53120	470.00000
57.55040	459.00000
57.56960	456.00000
57.58880	456.00000
57.60800	447.00000
57.62720	456.00000
57.64640	462.00000
57.66560	458.00000
57.68480	445.00000
57.70400	452.00000
57.72320	450.00000
57.74240	450.00000
57.76160	453.00000
57.78080	458.00000
57.80000	463.00000
57.81920	465.00000
57.83840	464.00000
57.85760	461.00000
57.87680	458.00000
57.89600	467.00000
57.91520	460.00000
57.93440	454.00000
57.95360	450.00000
57.97280	463.00000
57.99200	453.00000
58.01120	453.00000
58.03040	458.00000
58.04960	451.00000
58.06880	452.00000
58.08800	458.00000
58.10720	464.00000
58.12640	456.00000
58.14560	454.00000
58.16480	455.00000
58.18400	459.00000
58.20320	468.00000
58.22240	454.00000
58.24160	460.00000
58.26080	458.00000
58.28000	480.00000
58.29920	473.00000
58.31840	473.00000
58.33760	457.00000
58.35680	465.00000
58.37600	450.00000
58.39520	458.00000
58.41440	452.00000
58.43360	452.00000
58.45280	450.00000
58.47200	436.00000
58.49120	452.00000
58.51040	440.00000
58.52960	440.00000
58.54880	438.00000
58.56800	440.00000
58.58720	440.00000
58.60640	439.00000
58.62560	447.00000
58.64480	434.00000
58.66400	437.00000
58.68320	456.00000
58.70240	448.00000
58.72160	453.00000
58.74080	457.00000
58.76000	446.00000
58.77920	452.00000
58.79840	439.00000
58.81760	443.00000
58.83680	439.00000
58.85600	439.00000
58.87520	440.00000
58.89440	432.00000
58.91360	437.00000
58.93280	443.00000
58.95200	446.00000
58.97120	436.00000
58.99040	444.00000
59.00960	454.00000
59.02880	442.00000
59.04800	439.00000
59.06720	442.00000
59.08640	444.00000
59.10560	449.00000
59.12480	455.00000
59.14400	464.00000
59.16320	452.00000
59.18240	453.00000
59.20160	449.00000
59.22080	443.00000
59.24000	444.00000
59.25920	439.00000
59.27840	436.00000
59.29760	430.00000
59.31680	437.00000
59.33600	425.00000
59.35520	431.00000
59.37440	429.00000
59.39360	438.00000
59.41280	436.00000
59.43200	436.00000
59.45120	448.00000
59.47040	425.00000
59.48960	430.00000
59.50880	436.00000
59.52800	429.00000
59.54720	432.00000
59.56640	444.00000
59.58560	440.00000
59.60480	444.00000
59.62400	446.00000
59.64320	443.00000
59.66240	437.00000
59.68160	440.00000
59.70080	452.00000
