2.00600	411.00000
2.01300	392.00000
2.01900	393.00000
2.02700	393.00000
2.03400	399.00000
2.04100	394.00000
2.04800	394.00000
2.05500	393.00000
2.06200	394.00000
2.06800	394.00000
2.07500	384.00000
2.08300	375.00000
2.09000	398.00000
2.09700	398.00000
2.10400	398.00000
2.11100	399.00000
2.11800	399.00000
2.12400	399.00000
2.13200	429.00000
2.13900	401.00000
2.14600	396.00000
2.15300	386.00000
2.16000	401.00000
2.16700	401.00000
2.17400	377.00000
2.18000	403.00000
2.18800	404.00000
2.19500	404.00000
2.20200	404.00000
2.20900	429.00000
2.21600	405.00000
2.22300	406.00000
2.23000	383.00000
2.23600	406.00000
2.24400	421.00000
2.25100	408.00000
2.25800	407.00000
2.26500	407.00000
2.27200	436.00000
2.27900	408.00000
2.28500	409.00000
2.29300	409.00000
2.30000	403.00000
2.30700	440.00000
2.31400	398.00000
2.32100	429.00000
2.32800	411.00000
2.33500	411.00000
2.34100	397.00000
2.34900	396.00000
2.35600	415.00000
2.36300	397.00000
2.37000	412.00000
2.37700	412.00000
2.38400	413.00000
2.39100	413.00000
2.39800	428.00000
2.40500	443.00000
2.41200	401.00000
2.41900	394.00000
2.42600	414.00000
2.43300	415.00000
2.44000	415.00000
2.44700	416.00000
2.45400	411.00000
2.46100	444.00000
2.46800	418.00000
2.47500	418.00000
2.48200	417.00000
2.48900	417.00000
2.49600	418.00000
2.50300	444.00000
2.51000	415.00000
2.51700	409.00000
2.52400	422.00000
2.53100	422.00000
2.53800	422.00000
2.54500	424.00000
2.55200	423.00000
2.55900	418.00000
2.56600	403.00000
2.57300	422.00000
2.58000	422.00000
2.58700	398.00000
2.59400	423.00000
2.60100	423.00000
2.60800	424.00000
2.61500	410.00000
2.62200	423.00000
2.62900	409.00000
2.63600	427.00000
2.64300	428.00000
2.65000	427.00000
2.65700	428.00000
2.66400	443.00000
2.67100	428.00000
2.67800	446.00000
2.68500	429.00000
2.69200	429.00000
2.69900	438.00000
2.70600	429.00000
2.71300	454.00000
2.72000	430.00000
2.72700	455.00000
2.73400	430.00000
2.74100	454.00000
2.74800	398.00000
2.75500	431.00000
2.76200	437.00000
2.76900	433.00000
2.77600	412.00000
2.78300	433.00000
2.79000	432.00000
2.79700	464.00000
2.80400	432.00000
2.81100	433.00000
2.81800	428.00000
2.82500	465.00000
2.83200	433.00000
2.83900	434.00000
2.84600	423.00000
2.85300	466.00000
2.86000	452.00000
2.86700	444.00000
2.87400	435.00000
2.88100	435.00000
2.88800	458.00000
2.89500	436.00000
2.90200	458.00000
2.90900	439.00000
2.91600	438.00000
2.92300	430.00000
2.93000	439.00000
2.93700	469.00000
2.94400	440.00000
2.95100	440.00000
2.95800	440.00000
2.96500	474.00000
2.97200	440.00000
2.97900	441.00000
2.98600	430.00000
2.99300	420.00000
3.00000	429.00000
3.00700	441.00000
3.01400	426.00000
3.02100	442.00000
3.02800	442.00000
3.03500	443.00000
3.04200	444.00000
3.04900	435.00000
3.05600	445.00000
3.06300	446.00000
3.07000	444.00000
3.07700	441.00000
3.08400	445.00000
3.09100	445.00000
3.09800	465.00000
3.10500	446.00000
3.11200	426.00000
3.11900	447.00000
3.12600	447.00000
3.13300	477.00000
3.14000	448.00000
3.14700	418.00000
3.15400	447.00000
3.16100	446.00000
3.16800	423.00000
3.17500	432.00000
3.18200	466.00000
3.18900	475.00000
3.19600	448.00000
3.20300	449.00000
3.21000	449.00000
3.21700	484.00000
3.22400	415.00000
3.23100	451.00000
3.23800	447.00000
3.24500	450.00000
3.25200	450.00000
3.25900	449.00000
3.26600	450.00000
3.27300	418.00000
3.28000	450.00000
3.28700	448.00000
3.29400	451.00000
3.30100	442.00000
3.30800	466.00000
3.31500	452.00000
3.32200	453.00000
3.32900	453.00000
3.33600	453.00000
3.34300	453.00000
3.35000	454.00000
3.35700	444.00000
3.36400	455.00000
3.37100	455.00000
3.37800	456.00000
3.38500	456.00000
3.39200	438.00000
3.39900	474.00000
3.40600	447.00000
3.41300	456.00000
3.42000	456.00000
3.42700	456.00000
3.43400	430.00000
3.44100	456.00000
3.44800	456.00000
3.45500	436.00000
3.46200	476.00000
3.46900	457.00000
3.47600	457.00000
3.48300	456.00000
3.49000	457.00000
3.49700	443.00000
3.50400	459.00000
3.51100	452.00000
3.51800	460.00000
3.52500	460.00000
3.53200	460.00000
3.53900	460.00000
3.54600	449.00000
3.55300	486.00000
3.56000	462.00000
3.56700	462.00000
3.57400	494.00000
3.58100	463.00000
3.58800	485.00000
3.59500	462.00000
3.60200	448.00000
3.60900	471.00000
3.61600	462.00000
3.62300	462.00000
3.63000	463.00000
3.63700	464.00000
3.64400	463.00000
3.65100	463.00000
3.65800	463.00000
3.66500	464.00000
3.67200	464.00000
3.67900	456.00000
3.68600	465.00000
3.69300	465.00000
3.70000	465.00000
3.70700	463.00000
3.71400	450.00000
3.72100	480.00000
3.72800	464.00000
3.73500	466.00000
3.74200	467.00000
3.74900	467.00000
3.75600	467.00000
3.76300	467.00000
3.77000	467.00000
3.77700	466.00000
3.78400	467.00000
3.79100	467.00000
3.79800	466.00000
3.80500	451.00000
3.81200	450.00000
3.81900	469.00000
3.82600	469.00000
3.83300	473.00000
3.84000	486.00000
3.84700	469.00000
3.85400	469.00000
3.86100	470.00000
3.86800	471.00000
3.87500	471.00000
3.88200	472.00000
3.88900	472.00000
3.89600	472.00000
3.90300	473.00000
3.91000	499.00000
3.91700	474.00000
3.92400	470.00000
3.93100	474.00000
3.93800	474.00000
3.94500	455.00000
3.95200	508.00000
3.95900	475.00000
3.96600	476.00000
3.97300	466.00000
3.98000	452.00000
3.98700	480.00000
3.99400	477.00000
4.00100	477.00000
4.00800	487.00000
4.01500	478.00000
4.02200	478.00000
4.02900	479.00000
4.03500	451.00000
4.04300	483.00000
4.05000	484.00000
4.05700	494.00000
4.06400	487.00000
4.07100	487.00000
4.07800	492.00000
4.08500	453.00000
4.09200	456.00000
4.09900	506.00000
4.10600	487.00000
4.11300	457.00000
4.12000	485.00000
4.12700	484.00000
4.13400	484.00000
4.14100	483.00000
4.14800	483.00000
4.15500	482.00000
4.16200	483.00000
4.16900	483.00000
4.17600	474.00000
4.18300	482.00000
4.19000	481.00000
4.19700	481.00000
4.20400	481.00000
4.21100	481.00000
4.21800	481.00000
4.22500	451.00000
4.23200	483.00000
4.23900	483.00000
4.24600	483.00000
4.25300	483.00000
4.26000	520.00000
4.26700	483.00000
4.27400	484.00000
4.28100	485.00000
4.28800	485.00000
4.29500	485.00000
4.30200	475.00000
4.30900	486.00000
4.31600	487.00000
4.32300	487.00000
4.33000	487.00000
4.33700	486.00000
4.34400	486.00000
4.35100	487.00000
4.35800	487.00000
4.36400	488.00000
4.37200	490.00000
4.37900	479.00000
4.38600	488.00000
4.39300	467.00000
4.40000	466.00000
4.40700	488.00000
4.41400	457.00000
4.42100	488.00000
4.42800	485.00000
4.43500	488.00000
4.44200	484.00000
4.44900	489.00000
4.45600	489.00000
4.46300	489.00000
4.47000	489.00000
4.47600	489.00000
4.48400	489.00000
4.49100	490.00000
4.49800	490.00000
4.50500	490.00000
4.51200	520.00000
4.51900	464.00000
4.52600	490.00000
4.53300	490.00000
4.54000	490.00000
4.54700	483.00000
4.55400	491.00000
4.56100	490.00000
4.56800	492.00000
4.57500	493.00000
4.58200	493.00000
4.58900	493.00000
4.59600	507.00000
4.60300	495.00000
4.61000	495.00000
4.61700	496.00000
4.62400	484.00000
4.63100	496.00000
4.63800	496.00000
4.64500	501.00000
4.65200	496.00000
4.65900	528.00000
4.66600	524.00000
4.67300	497.00000
4.68000	497.00000
4.68700	510.00000
4.69400	519.00000
4.70100	462.00000
4.70800	498.00000
4.71500	522.00000
4.72200	495.00000
4.72900	499.00000
4.73600	499.00000
4.74300	506.00000
4.75000	499.00000
4.75700	463.00000
4.76400	500.00000
4.77100	500.00000
4.77800	471.00000
4.78500	501.00000
4.79200	539.00000
4.79900	501.00000
4.80600	507.00000
4.81300	500.00000
4.82000	500.00000
4.82700	500.00000
4.83400	501.00000
4.84100	502.00000
4.84800	493.00000
4.85500	503.00000
4.86200	503.00000
4.86900	470.00000
4.87600	512.00000
4.88300	503.00000
4.89000	498.00000
4.89700	488.00000
4.90400	504.00000
4.91100	500.00000
4.91800	505.00000
4.92500	505.00000
4.93200	505.00000
4.93900	505.00000
4.94600	506.00000
4.95300	507.00000
4.96000	507.00000
4.96700	508.00000
4.97400	474.00000
4.98100	508.00000
4.98800	508.00000
4.99500	508.00000
5.00200	529.00000
5.00900	509.00000
5.01600	509.00000
5.02300	510.00000
5.03000	511.00000
5.03700	511.00000
5.04400	474.00000
5.05100	510.00000
5.05800	510.00000
5.06500	509.00000
5.07200	510.00000
5.07900	506.00000
5.08600	501.00000
5.09300	525.00000
5.10000	511.00000
5.10700	511.00000
5.11400	511.00000
5.12100	511.00000
5.12800	509.00000
5.13500	512.00000
5.14200	513.00000
5.14900	513.00000
5.15600	513.00000
5.16300	513.00000
5.17000	513.00000
5.17700	507.00000
5.18400	548.00000
5.19100	521.00000
5.19800	514.00000
5.20500	506.00000
5.21200	526.00000
5.21900	514.00000
5.22600	515.00000
5.23300	494.00000
5.24000	526.00000
5.24700	516.00000
5.25400	517.00000
5.26100	548.00000
5.26800	517.00000
5.27500	517.00000
5.28200	518.00000
5.28900	517.00000
5.29600	517.00000
5.30300	517.00000
5.31000	514.00000
5.31700	523.00000
5.32400	529.00000
5.33100	518.00000
5.33800	520.00000
5.34500	518.00000
5.35200	539.00000
5.35900	518.00000
5.36600	491.00000
5.37300	490.00000
5.38000	489.00000
5.38700	501.00000
5.39400	519.00000
5.40100	520.00000
5.40800	554.00000
5.41500	491.00000
5.42200	521.00000
5.42900	540.00000
5.43600	521.00000
5.44300	522.00000
5.45000	522.00000
5.45700	522.00000
5.46400	522.00000
5.47100	521.00000
5.47800	527.00000
5.48500	522.00000
5.49200	523.00000
5.49900	502.00000
5.50600	523.00000
5.51300	524.00000
5.52000	524.00000
5.52700	528.00000
5.53400	524.00000
5.54100	549.00000
5.54800	524.00000
5.55500	524.00000
5.56200	524.00000
5.56900	544.00000
5.57600	525.00000
5.58300	525.00000
5.59000	505.00000
5.59700	563.00000
5.60400	526.00000
5.61100	526.00000
5.61800	554.00000
5.62500	527.00000
5.63200	527.00000
5.63900	527.00000
5.64600	527.00000
5.65300	512.00000
5.66000	528.00000
5.66700	527.00000
5.67400	491.00000
5.68100	527.00000
5.68800	520.00000
5.69500	527.00000
5.70200	568.00000
5.70900	506.00000
5.71600	530.00000
5.72300	562.00000
5.73000	524.00000
5.73700	559.00000
5.74400	531.00000
5.75100	532.00000
5.75800	539.00000
5.76500	533.00000
5.77200	519.00000
5.77900	533.00000
5.78600	504.00000
5.79300	532.00000
5.80000	532.00000
5.80700	532.00000
5.81400	532.00000
5.82100	532.00000
5.82800	532.00000
5.83500	533.00000
5.84200	526.00000
5.84900	552.00000
5.85600	534.00000
5.86300	534.00000
5.87000	535.00000
5.87700	564.00000
5.88400	535.00000
5.89100	535.00000
5.89800	535.00000
5.90500	535.00000
5.91200	535.00000
5.91900	535.00000
5.92600	514.00000
5.93300	562.00000
5.94000	536.00000
5.94700	560.00000
5.95400	535.00000
5.96100	560.00000
5.96800	531.00000
5.97500	561.00000
5.98200	536.00000
5.98900	537.00000
5.99600	537.00000
6.00300	536.00000
6.01000	549.00000
6.01700	567.00000
6.02400	505.00000
6.03100	537.00000
6.03800	537.00000
6.04500	537.00000
6.05200	538.00000
6.05900	538.00000
6.06600	503.00000
6.07300	539.00000
6.08000	539.00000
6.08700	540.00000
6.09400	503.00000
6.10100	535.00000
6.10800	541.00000
6.11500	541.00000
6.12200	541.00000
6.12900	541.00000
6.13600	541.00000
6.14300	506.00000
6.15000	540.00000
6.15700	541.00000
6.16400	541.00000
6.17100	580.00000
6.17800	541.00000
6.18500	542.00000
6.19200	542.00000
6.19900	543.00000
6.20600	570.00000
6.21300	575.00000
6.22000	546.00000
6.22700	544.00000
6.23400	544.00000
6.24100	544.00000
6.24800	557.00000
6.25500	545.00000
6.26200	527.00000
6.26900	544.00000
6.27600	545.00000
6.28300	526.00000
6.29000	545.00000
6.29700	545.00000
6.30400	546.00000
6.31100	578.00000
6.31800	547.00000
6.32500	547.00000
6.33200	547.00000
6.33900	548.00000
6.34600	548.00000
6.35300	583.00000
6.36000	520.00000
6.36700	549.00000
6.37400	566.00000
6.38100	549.00000
6.38800	527.00000
6.39500	549.00000
6.40200	549.00000
6.40900	550.00000
6.41600	550.00000
6.42300	520.00000
6.43000	551.00000
6.43700	552.00000
6.44400	552.00000
6.45100	551.00000
6.45800	551.00000
6.46500	551.00000
6.47200	551.00000
6.47900	551.00000
6.48600	552.00000
6.49300	561.00000
6.50000	553.00000
6.50700	554.00000
6.51400	588.00000
6.52100	555.00000
6.52800	582.00000
6.53500	557.00000
6.54200	584.00000
6.54900	558.00000
6.55600	558.00000
6.56300	558.00000
6.57000	557.00000
6.57700	558.00000
6.58400	572.00000
6.59100	559.00000
6.59800	560.00000
6.60500	560.00000
6.61200	542.00000
6.61900	561.00000
6.62600	546.00000
6.63300	562.00000
6.64000	564.00000
6.64700	565.00000
6.65400	566.00000
6.66100	567.00000
6.66800	582.00000
6.67500	567.00000
6.68200	566.00000
6.68900	552.00000
6.69600	565.00000
6.70300	564.00000
6.71000	563.00000
6.71700	563.00000
6.72400	593.00000
6.73100	564.00000
6.73800	570.00000
6.74500	562.00000
6.75200	562.00000
6.75900	560.00000
6.76600	559.00000
6.77300	538.00000
6.78000	562.00000
6.78700	561.00000
6.79400	561.00000
6.80100	560.00000
6.80800	560.00000
6.81500	554.00000
6.82200	531.00000
6.82900	594.00000
6.83600	550.00000
6.84300	555.00000
6.85000	563.00000
6.85700	563.00000
6.86400	563.00000
6.87100	563.00000
6.87800	563.00000
6.88500	590.00000
6.89200	564.00000
6.89900	564.00000
6.90600	564.00000
6.91300	564.00000
6.92000	564.00000
6.92700	564.00000
6.93400	564.00000
6.94100	532.00000
6.94800	565.00000
6.95500	537.00000
6.96200	528.00000
6.96900	565.00000
6.97600	565.00000
6.98300	565.00000
6.99000	546.00000
6.99700	566.00000
7.00400	566.00000
7.01100	566.00000
7.01800	566.00000
7.02500	567.00000
7.03200	544.00000
7.03900	594.00000
7.04600	567.00000
7.05300	540.00000
7.06000	568.00000
7.06700	569.00000
7.07400	569.00000
7.08100	578.00000
7.08800	569.00000
7.09500	570.00000
7.10200	571.00000
7.10900	571.00000
7.11600	572.00000
7.12300	595.00000
7.13000	592.00000
7.13700	571.00000
7.14400	531.00000
7.15100	576.00000
7.15800	562.00000
7.16500	572.00000
7.17200	572.00000
7.17900	533.00000
7.18600	572.00000
7.19300	572.00000
7.20000	573.00000
7.20700	534.00000
7.21400	573.00000
7.22100	582.00000
7.22800	573.00000
7.23500	573.00000
7.24200	552.00000
7.24900	547.00000
7.25600	574.00000
7.26300	574.00000
7.27000	609.00000
7.27700	575.00000
7.28400	574.00000
7.29100	551.00000
7.29800	574.00000
7.30500	574.00000
7.31200	558.00000
7.31900	576.00000
7.32600	576.00000
7.33300	576.00000
7.34000	576.00000
7.34700	576.00000
7.35400	576.00000
7.36100	576.00000
7.36800	577.00000
7.37500	577.00000
7.38200	546.00000
7.38900	577.00000
7.39600	577.00000
7.40300	578.00000
7.41000	578.00000
7.41700	580.00000
7.42400	578.00000
7.43100	578.00000
7.43800	538.00000
7.44500	542.00000
7.45200	575.00000
7.45900	580.00000
7.46600	579.00000
7.47300	570.00000
7.48000	580.00000
7.48700	581.00000
7.49400	581.00000
7.50100	581.00000
7.50800	607.00000
7.51500	595.00000
7.52200	581.00000
7.52900	596.00000
7.53600	581.00000
7.54300	581.00000
7.55000	582.00000
7.55700	582.00000
7.56400	582.00000
7.57100	583.00000
7.57800	583.00000
7.58500	593.00000
7.59200	583.00000
7.59900	615.00000
7.60600	584.00000
7.61300	615.00000
7.62000	584.00000
7.62700	561.00000
7.63400	584.00000
7.64100	584.00000
7.64800	585.00000
7.65500	585.00000
7.66200	585.00000
7.66900	585.00000
7.67600	549.00000
7.68300	616.00000
7.69000	620.00000
7.69700	587.00000
7.70400	558.00000
7.71100	588.00000
7.71800	588.00000
7.72500	546.00000
7.73200	588.00000
7.73900	589.00000
7.74600	589.00000
7.75300	581.00000
7.76000	590.00000
7.76700	590.00000
7.77400	590.00000
7.78100	590.00000
7.78800	590.00000
7.79500	591.00000
7.80200	567.00000
7.80900	592.00000
7.81600	547.00000
7.82300	591.00000
7.83000	593.00000
7.83700	628.00000
7.84400	593.00000
7.85100	595.00000
7.85800	594.00000
7.86500	565.00000
7.87200	613.00000
7.87900	595.00000
7.88600	595.00000
7.89300	596.00000
7.90000	596.00000
7.90700	596.00000
7.91400	597.00000
7.92100	566.00000
7.92800	597.00000
7.93500	597.00000
7.94200	597.00000
7.94900	597.00000
7.95600	625.00000
7.96300	583.00000
7.97000	598.00000
7.97700	569.00000
7.98400	598.00000
7.99100	598.00000
7.99800	554.00000
8.00500	600.00000
8.01200	600.00000
8.01900	601.00000
8.02600	602.00000
8.03300	602.00000
8.04000	602.00000
8.04700	603.00000
8.05400	604.00000
8.06100	604.00000
8.06800	605.00000
8.07500	605.00000
8.08200	606.00000
8.08800	607.00000
8.09600	607.00000
8.10300	608.00000
8.11000	609.00000
8.11700	610.00000
8.12400	649.00000
8.13100	607.00000
8.13800	612.00000
8.14500	613.00000
8.15200	614.00000
8.15900	615.00000
8.16600	616.00000
8.17300	617.00000
8.18000	618.00000
8.18700	648.00000
8.19400	620.00000
8.20100	621.00000
8.20800	622.00000
8.21500	624.00000
8.22200	625.00000
8.22900	627.00000
8.23600	636.00000
8.24300	630.00000
8.25000	673.00000
8.25700	612.00000
8.26400	637.00000
8.27100	668.00000
8.27800	631.00000
8.28500	644.00000
8.29200	658.00000
8.29900	659.00000
8.30600	653.00000
8.31300	657.00000
8.32000	661.00000
8.32700	676.00000
8.33400	672.00000
8.34100	737.00000
8.34800	685.00000
8.35500	747.00000
8.36200	703.00000
8.36900	744.00000
8.37600	728.00000
8.38300	747.00000
8.39000	771.00000
8.39700	865.00000
8.40400	857.00000
8.41100	985.00000
8.41800	1142.00000
8.42500	1317.00000
8.43200	1712.00000
8.43900	2325.00000
8.44600	3213.00000
8.45300	4367.00000
8.46000	5994.00000
8.46700	7434.00000
8.47400	9192.00000
8.48100	10977.00000
8.48800	11624.00000
8.49500	11671.00000
8.50200	10769.00000
8.50900	9265.00000
8.51600	7875.00000
8.52300	5762.00000
8.53000	4582.00000
8.53700	3343.00000
8.54400	2429.00000
8.55100	1812.00000
8.55800	1597.00000
8.56500	1337.00000
8.57200	1156.00000
8.57900	987.00000
8.58600	940.00000
8.59300	874.00000
8.60000	827.00000
8.60700	795.00000
8.61400	764.00000
8.62100	767.00000
8.62800	727.00000
8.63500	715.00000
8.64200	704.00000
8.64900	696.00000
8.65600	688.00000
8.66300	682.00000
8.67000	683.00000
8.67700	673.00000
8.68400	707.00000
8.69100	665.00000
8.69800	661.00000
8.70500	657.00000
8.71200	625.00000
8.71900	681.00000
8.72600	627.00000
8.73300	648.00000
8.73900	619.00000
8.74700	685.00000
8.75400	643.00000
8.76100	609.00000
8.76800	640.00000
8.77500	638.00000
8.78200	637.00000
8.78900	636.00000
8.79600	672.00000
8.80300	634.00000
8.81000	634.00000
8.81700	615.00000
8.82400	633.00000
8.83100	643.00000
8.83800	631.00000
8.84500	631.00000
8.85200	609.00000
8.85900	607.00000
8.86600	629.00000
8.87300	628.00000
8.88000	627.00000
8.88700	665.00000
8.89400	625.00000
8.90100	639.00000
8.90800	625.00000
8.91500	624.00000
8.92200	624.00000
8.92900	658.00000
8.93600	663.00000
8.94300	624.00000
8.95000	624.00000
8.95700	624.00000
8.96400	622.00000
8.97100	608.00000
8.97800	623.00000
8.98500	622.00000
8.99200	593.00000
8.99900	623.00000
9.00600	622.00000
9.01300	622.00000
9.02000	621.00000
9.02700	621.00000
9.03400	623.00000
9.04100	621.00000
9.04800	595.00000
9.05500	630.00000
9.06200	650.00000
9.06900	603.00000
9.07600	584.00000
9.08300	621.00000
9.09000	622.00000
9.09700	616.00000
9.10400	621.00000
9.11100	593.00000
9.11800	622.00000
9.12500	601.00000
9.13200	622.00000
9.13900	590.00000
9.14600	622.00000
9.15300	646.00000
9.16000	621.00000
9.16700	622.00000
9.17400	623.00000
9.18100	582.00000
9.18800	578.00000
9.19500	621.00000
9.20200	621.00000
9.20900	621.00000
9.21600	621.00000
9.22300	580.00000
9.23000	604.00000
9.23700	622.00000
9.24400	622.00000
9.25100	622.00000
9.25800	622.00000
9.26500	659.00000
9.27200	623.00000
9.27900	623.00000
9.28600	623.00000
9.29300	623.00000
9.30000	623.00000
9.30700	634.00000
9.31400	623.00000
9.32100	623.00000
9.32800	623.00000
9.33500	604.00000
9.34200	623.00000
9.34900	623.00000
9.35600	623.00000
9.36300	623.00000
9.37000	623.00000
9.37700	581.00000
9.38400	625.00000
9.39100	594.00000
9.39800	650.00000
9.40500	624.00000
9.41200	624.00000
9.41900	617.00000
9.42600	624.00000
9.43300	630.00000
9.44000	589.00000
9.44700	624.00000
9.45400	605.00000
9.46100	626.00000
9.46800	624.00000
9.47500	624.00000
9.48200	646.00000
9.48900	637.00000
9.49600	623.00000
9.50300	586.00000
9.51000	623.00000
9.51700	623.00000
9.52400	623.00000
9.53100	623.00000
9.53800	623.00000
9.54500	623.00000
9.55200	634.00000
9.55900	601.00000
9.56600	631.00000
9.57300	624.00000
9.58000	624.00000
9.58700	648.00000
9.59400	643.00000
9.60100	626.00000
9.60800	635.00000
9.61500	624.00000
9.62200	587.00000
9.62900	645.00000
9.63600	625.00000
9.64300	625.00000
9.65000	632.00000
9.65700	636.00000
9.66400	585.00000
9.67100	625.00000
9.67800	658.00000
9.68500	626.00000
9.69200	662.00000
9.69900	626.00000
9.70600	606.00000
9.71300	627.00000
9.72000	627.00000
9.72700	627.00000
9.73400	627.00000
9.74100	651.00000
9.74800	627.00000
9.75500	591.00000
9.76200	627.00000
9.76900	628.00000
9.77600	628.00000
9.78300	627.00000
9.79000	587.00000
9.79700	627.00000
9.80400	628.00000
9.81100	628.00000
9.81800	628.00000
9.82500	628.00000
9.83200	665.00000
9.83900	604.00000
9.84600	642.00000
9.85300	629.00000
9.86000	629.00000
9.86700	629.00000
9.87400	652.00000
9.88100	629.00000
9.88800	629.00000
9.89500	630.00000
9.90200	591.00000
9.90900	631.00000
9.91600	631.00000
9.92300	631.00000
9.93000	631.00000
9.93700	609.00000
9.94400	632.00000
9.95100	633.00000
9.95800	633.00000
9.96500	634.00000
9.97200	633.00000
9.97900	609.00000
9.98600	658.00000
9.99300	633.00000
10.00000	654.00000
10.00700	616.00000
10.01400	633.00000
10.02100	633.00000
10.02800	626.00000
10.03500	633.00000
10.04200	633.00000
10.04900	633.00000
10.05600	634.00000
10.06300	634.00000
10.07000	635.00000
10.07700	635.00000
10.08400	639.00000
10.09100	635.00000
10.09800	633.00000
10.10500	637.00000
10.11200	637.00000
10.11900	610.00000
10.12600	626.00000
10.13300	636.00000
10.14000	625.00000
10.14700	637.00000
10.15400	638.00000
10.16100	638.00000
10.16800	639.00000
10.17500	639.00000
10.18200	639.00000
10.18800	640.00000
10.19500	612.00000
10.20300	641.00000
10.21000	642.00000
10.21700	642.00000
10.22400	643.00000
10.23000	644.00000
10.23800	645.00000
10.24500	655.00000
10.25200	647.00000
10.25900	648.00000
10.26600	649.00000
10.27300	651.00000
10.28000	652.00000
10.28700	660.00000
10.29400	655.00000
10.30100	657.00000
10.30800	660.00000
10.31500	678.00000
10.32200	670.00000
10.32900	667.00000
10.33600	702.00000
10.34300	794.00000
10.35000	776.00000
10.35700	854.00000
10.36400	966.00000
10.37100	1169.00000
10.37800	1389.00000
10.38500	1675.00000
10.39200	1929.00000
10.39900	2047.00000
10.40600	2037.00000
10.41300	2184.00000
10.41900	2004.00000
10.42700	1764.00000
10.43400	1526.00000
10.44100	1308.00000
10.44800	1097.00000
10.45400	925.00000
10.46100	867.00000
10.46900	795.00000
10.47600	772.00000
10.48300	731.00000
10.49000	682.00000
10.49700	694.00000
10.50400	683.00000
10.51100	676.00000
10.51800	670.00000
10.52500	666.00000
10.53200	664.00000
10.53900	618.00000
10.54600	659.00000
10.55300	658.00000
10.56000	657.00000
10.56700	620.00000
10.57400	642.00000
10.58100	655.00000
10.58800	654.00000
10.59500	661.00000
10.60200	653.00000
10.60800	687.00000
10.61600	652.00000
10.62300	656.00000
10.63000	651.00000
10.63700	651.00000
10.64400	644.00000
10.65000	651.00000
10.65800	659.00000
10.66500	650.00000
10.67200	650.00000
10.67900	650.00000
10.68600	650.00000
10.69300	650.00000
10.70000	650.00000
10.70700	618.00000
10.71400	650.00000
10.72100	650.00000
10.72800	680.00000
10.73500	682.00000
10.74200	650.00000
10.74900	650.00000
10.75600	615.00000
10.76300	650.00000
10.77000	650.00000
10.77700	650.00000
10.78400	651.00000
10.79100	651.00000
10.79800	635.00000
10.80500	646.00000
10.81200	651.00000
10.81900	608.00000
10.82600	651.00000
10.83300	651.00000
10.83900	651.00000
10.84700	666.00000
10.85400	651.00000
10.86100	651.00000
10.86800	651.00000
10.87400	687.00000
10.88200	631.00000
10.88900	650.00000
10.89600	624.00000
10.90300	651.00000
10.91000	651.00000
10.91700	635.00000
10.92400	652.00000
10.93100	653.00000
10.93800	651.00000
10.94500	631.00000
10.95200	652.00000
10.95900	669.00000
10.96600	652.00000
10.97300	653.00000
10.98000	652.00000
10.98700	653.00000
10.99400	659.00000
11.00100	617.00000
11.00800	653.00000
11.01500	654.00000
11.02200	655.00000
11.02900	655.00000
11.03600	698.00000
11.04300	638.00000
11.05000	657.00000
11.05700	658.00000
11.06300	658.00000
11.07000	659.00000
11.07800	693.00000
11.08500	661.00000
11.09200	713.00000
11.09900	685.00000
11.10500	693.00000
11.11300	703.00000
11.12000	671.00000
11.12700	720.00000
11.13400	679.00000
11.14100	685.00000
11.14800	692.00000
11.15500	702.00000
11.16200	717.00000
11.16900	739.00000
11.17600	783.00000
11.18300	826.00000
11.19000	916.00000
11.19700	1049.00000
11.20400	1211.00000
11.21100	1453.00000
11.21800	1726.00000
11.22500	2169.00000
11.23200	2544.00000
11.23900	2777.00000
11.24600	2846.00000
11.25300	2723.00000
11.26000	2576.00000
11.26700	2053.00000
11.27400	1857.00000
11.28100	1416.00000
11.28800	1223.00000
11.29400	1051.00000
11.30200	904.00000
11.30900	849.00000
11.31600	756.00000
11.32300	774.00000
11.32900	748.00000
11.33700	728.00000
11.34400	713.00000
11.35100	740.00000
11.35800	694.00000
11.36500	709.00000
11.37200	683.00000
11.37900	678.00000
11.38600	675.00000
11.39300	673.00000
11.40000	670.00000
11.40700	704.00000
11.41400	666.00000
11.42100	665.00000
11.42800	664.00000
11.43500	631.00000
11.44200	663.00000
11.44900	668.00000
11.45600	662.00000
11.46300	681.00000
11.47000	670.00000
11.47700	661.00000
11.48300	644.00000
11.49100	660.00000
11.49800	659.00000
11.50500	659.00000
11.51200	660.00000
11.51900	639.00000
11.52500	660.00000
11.53300	660.00000
11.54000	660.00000
11.54700	660.00000
11.55400	660.00000
11.56100	660.00000
11.56800	660.00000
11.57500	640.00000
11.58200	659.00000
11.58900	622.00000
11.59600	659.00000
11.60300	659.00000
11.61000	659.00000
11.61700	659.00000
11.62400	637.00000
11.63100	670.00000
11.63800	658.00000
11.64500	658.00000
11.65200	658.00000
11.65900	702.00000
11.66600	659.00000
11.67300	659.00000
11.68000	658.00000
11.68700	629.00000
11.69400	658.00000
11.70100	698.00000
11.70800	700.00000
11.71400	659.00000
11.72200	659.00000
11.72900	621.00000
11.73600	686.00000
11.74300	698.00000
11.74900	659.00000
11.75700	660.00000
11.76400	651.00000
11.77100	659.00000
11.77800	659.00000
11.78500	647.00000
11.79200	661.00000
11.79900	656.00000
11.80600	628.00000
11.81300	697.00000
11.82000	661.00000
11.82700	661.00000
11.83400	642.00000
11.84100	657.00000
11.84800	680.00000
11.85500	661.00000
11.86200	662.00000
11.86900	663.00000
11.87600	681.00000
11.88300	633.00000
11.89000	658.00000
11.89700	665.00000
11.90400	665.00000
11.91100	666.00000
11.91800	667.00000
11.92500	666.00000
11.93200	670.00000
11.93800	690.00000
11.94500	699.00000
11.95300	688.00000
11.96000	694.00000
11.96700	740.00000
11.97400	735.00000
11.98100	773.00000
11.98800	833.00000
11.99500	911.00000
12.00200	916.00000
12.00900	1055.00000
12.01600	961.00000
12.02300	1109.00000
12.03000	1083.00000
12.03700	929.00000
12.04400	947.00000
12.05100	895.00000
12.05800	822.00000
12.06500	779.00000
12.07200	746.00000
12.07900	723.00000
12.08600	713.00000
12.09300	696.00000
12.10000	687.00000
12.10700	638.00000
12.11400	714.00000
12.12100	681.00000
12.12800	703.00000
12.13500	671.00000
12.14200	647.00000
12.14900	698.00000
12.15600	669.00000
12.16300	668.00000
12.16900	668.00000
12.17700	688.00000
12.18400	667.00000
12.19100	668.00000
12.19800	675.00000
12.20500	665.00000
12.21200	663.00000
12.21900	666.00000
12.22600	666.00000
12.23300	665.00000
12.24000	665.00000
12.24700	665.00000
12.25400	665.00000
12.26100	668.00000
12.26800	666.00000
12.27500	666.00000
12.28200	666.00000
12.28900	683.00000
12.29600	666.00000
12.30300	668.00000
12.31000	686.00000
12.31700	666.00000
12.32400	666.00000
12.33100	666.00000
12.33800	666.00000
12.34500	667.00000
12.35200	666.00000
12.35800	666.00000
12.36600	649.00000
12.37300	667.00000
12.38000	667.00000
12.38700	667.00000
12.39400	666.00000
12.40000	636.00000
12.40800	666.00000
12.41500	666.00000
12.42200	679.00000
12.42900	640.00000
12.43600	667.00000
12.44300	668.00000
12.45000	668.00000
12.45700	682.00000
12.46400	668.00000
12.47100	668.00000
12.47800	668.00000
12.48500	668.00000
12.49200	668.00000
12.49900	638.00000
12.50600	700.00000
12.51300	708.00000
12.52000	710.00000
12.52700	670.00000
12.53400	669.00000
12.54100	694.00000
12.54800	669.00000
12.55500	653.00000
12.56200	670.00000
12.56900	692.00000
12.57600	678.00000
12.58300	671.00000
12.58900	671.00000
12.59700	671.00000
12.60400	671.00000
12.61100	671.00000
12.61800	708.00000
12.62400	655.00000
12.63200	651.00000
12.63900	672.00000
12.64600	673.00000
12.65300	673.00000
12.66000	673.00000
12.66700	673.00000
12.67400	673.00000
12.68100	673.00000
12.68800	674.00000
12.69500	663.00000
12.70200	675.00000
12.70900	674.00000
12.71600	711.00000
12.72300	674.00000
12.73000	674.00000
12.73700	666.00000
12.74400	674.00000
12.75100	674.00000
12.75800	643.00000
12.76500	674.00000
12.77200	675.00000
12.77900	674.00000
12.78600	635.00000
12.79300	675.00000
12.80000	675.00000
12.80700	675.00000
12.81300	684.00000
12.82000	647.00000
12.82800	676.00000
12.83500	675.00000
12.84200	676.00000
12.84900	691.00000
12.85600	676.00000
12.86300	664.00000
12.87000	673.00000
12.87700	677.00000
12.88400	650.00000
12.89100	677.00000
12.89800	687.00000
12.90500	678.00000
12.91200	680.00000
12.91900	679.00000
12.92600	679.00000
12.93300	679.00000
12.94000	649.00000
12.94700	691.00000
12.95400	680.00000
12.96100	681.00000
12.96800	689.00000
12.97500	682.00000
12.98200	675.00000
12.98900	682.00000
12.99600	698.00000
13.00300	671.00000
13.01000	682.00000
13.01700	682.00000
13.02400	682.00000
13.03100	713.00000
13.03800	682.00000
13.04400	681.00000
13.05200	718.00000
13.05900	679.00000
13.06600	681.00000
13.07300	702.00000
13.08000	682.00000
13.08700	683.00000
13.09400	723.00000
13.10100	712.00000
13.10800	683.00000
13.11500	683.00000
13.12200	683.00000
13.12900	684.00000
13.13600	725.00000
13.14300	713.00000
13.15000	672.00000
13.15700	684.00000
13.16400	684.00000
13.17100	683.00000
13.17800	684.00000
13.18500	648.00000
13.19200	684.00000
13.19900	684.00000
13.20600	684.00000
13.21300	681.00000
13.22000	715.00000
13.22700	684.00000
13.23300	644.00000
13.24100	685.00000
13.24800	685.00000
13.25500	685.00000
13.26200	686.00000
13.26900	685.00000
13.27600	682.00000
13.28300	687.00000
13.29000	688.00000
13.29700	668.00000
13.30400	688.00000
13.31100	688.00000
13.31800	727.00000
13.32500	689.00000
13.33200	665.00000
13.33900	694.00000
13.34600	690.00000
13.35300	690.00000
13.36000	690.00000
13.36700	690.00000
13.37400	730.00000
13.38100	690.00000
13.38800	677.00000
13.39500	690.00000
13.40200	689.00000
13.40900	690.00000
13.41600	689.00000
13.42300	690.00000
13.43000	646.00000
13.43700	690.00000
13.44400	687.00000
13.45100	689.00000
13.45800	690.00000
13.46400	690.00000
13.47200	690.00000
13.47900	690.00000
13.48600	690.00000
13.49300	724.00000
13.50000	690.00000
13.50700	655.00000
13.51400	691.00000
13.52100	691.00000
13.52800	691.00000
13.53500	691.00000
13.54200	691.00000
13.54900	667.00000
13.55600	725.00000
13.56300	653.00000
13.57000	663.00000
13.57700	706.00000
13.58400	650.00000
13.59100	684.00000
13.59800	716.00000
13.60500	680.00000
13.61200	694.00000
13.61900	685.00000
13.62600	694.00000
13.63300	694.00000
13.64000	694.00000
13.64700	694.00000
13.65400	694.00000
13.66100	676.00000
13.66800	695.00000
13.67500	694.00000
13.68200	695.00000
13.68800	694.00000
13.69500	669.00000
13.70300	723.00000
13.71000	696.00000
13.71700	696.00000
13.72400	696.00000
13.73100	658.00000
13.73800	696.00000
13.74500	693.00000
13.75200	696.00000
13.75900	697.00000
13.76600	692.00000
13.77300	697.00000
13.78000	697.00000
13.78700	697.00000
13.79400	697.00000
13.80100	697.00000
13.80800	697.00000
13.81500	737.00000
13.82200	697.00000
13.82900	697.00000
13.83600	698.00000
13.84300	698.00000
13.85000	698.00000
13.85700	698.00000
13.86400	713.00000
13.87100	673.00000
13.87800	654.00000
13.88500	702.00000
13.89200	699.00000
13.89900	699.00000
13.90600	699.00000
13.91300	700.00000
13.91900	700.00000
13.92700	731.00000
13.93400	656.00000
13.94100	736.00000
13.94800	701.00000
13.95500	701.00000
13.96200	701.00000
13.96900	702.00000
13.97600	702.00000
13.98300	684.00000
13.99000	703.00000
13.99700	699.00000
14.00400	704.00000
14.01100	703.00000
14.01800	703.00000
14.02500	703.00000
14.03200	704.00000
14.03900	662.00000
14.04600	704.00000
14.05300	729.00000
14.06000	688.00000
14.06700	729.00000
14.07400	705.00000
14.08100	667.00000
14.08800	705.00000
14.09500	677.00000
14.10200	706.00000
14.10800	727.00000
14.11600	706.00000
14.12300	705.00000
14.13000	725.00000
14.13700	706.00000
14.14400	706.00000
14.15100	737.00000
14.15800	740.00000
14.16500	666.00000
14.17200	707.00000
14.17900	708.00000
14.18600	708.00000
14.19300	693.00000
14.20000	748.00000
14.20700	709.00000
14.21400	709.00000
14.22100	725.00000
14.22800	730.00000
14.23500	711.00000
14.24200	711.00000
14.24900	711.00000
14.25600	711.00000
14.26300	712.00000
14.27000	712.00000
14.27700	713.00000
14.28400	713.00000
14.29100	713.00000
14.29800	713.00000
14.30500	712.00000
14.31200	684.00000
14.31900	714.00000
14.32600	732.00000
14.33300	668.00000
14.33900	715.00000
14.34700	690.00000
14.35400	731.00000
14.36100	716.00000
14.36800	716.00000
14.37500	716.00000
14.38200	680.00000
14.38900	717.00000
14.39600	717.00000
14.40300	753.00000
14.41000	718.00000
14.41700	719.00000
14.42400	750.00000
14.43100	691.00000
14.43800	705.00000
14.44500	675.00000
14.45200	721.00000
14.45900	741.00000
14.46600	687.00000
14.47300	724.00000
14.48000	724.00000
14.48700	725.00000
14.49400	694.00000
14.50100	685.00000
14.50800	728.00000
14.51500	729.00000
14.52200	730.00000
14.52900	708.00000
14.53600	731.00000
14.54300	733.00000
14.55000	735.00000
14.55700	737.00000
14.56300	729.00000
14.57100	740.00000
14.57800	725.00000
14.58500	784.00000
14.59200	746.00000
14.59900	784.00000
14.60600	752.00000
14.61300	756.00000
14.62000	760.00000
14.62700	765.00000
14.63400	809.00000
14.64100	821.00000
14.64800	792.00000
14.65500	807.00000
14.66200	846.00000
14.66900	866.00000
14.67600	924.00000
14.68300	1022.00000
14.69000	1181.00000
14.69700	1420.00000
14.70400	2019.00000
14.71100	2173.00000
14.71800	2741.00000
14.72500	3404.00000
14.73200	3732.00000
14.73900	3866.00000
14.74600	3791.00000
14.75300	3648.00000
14.76000	3183.00000
14.76700	2844.00000
14.77400	2343.00000
14.78100	1938.00000
14.78800	1592.00000
14.79500	1256.00000
14.80200	1177.00000
14.80900	1041.00000
14.81600	871.00000
14.82300	903.00000
14.83000	786.00000
14.83700	763.00000
14.84400	808.00000
14.85100	792.00000
14.85800	780.00000
14.86500	771.00000
14.87200	750.00000
14.87900	758.00000
14.88600	803.00000
14.89300	745.00000
14.90000	747.00000
14.90700	748.00000
14.91400	742.00000
14.92100	717.00000
14.92800	739.00000
14.93500	738.00000
14.94200	736.00000
14.94900	749.00000
14.95600	734.00000
14.96300	755.00000
14.97000	732.00000
14.97700	732.00000
14.98300	731.00000
14.99100	728.00000
14.99800	743.00000
15.00500	729.00000
15.01200	729.00000
15.01900	728.00000
15.02600	728.00000
15.03300	728.00000
15.04000	766.00000
15.04700	697.00000
15.05400	727.00000
15.06100	743.00000
15.06800	766.00000
15.07500	725.00000
15.08200	725.00000
15.08900	725.00000
15.09600	769.00000
15.10300	713.00000
15.11000	725.00000
15.11700	725.00000
15.12400	725.00000
15.13100	724.00000
15.13800	724.00000
15.14500	728.00000
15.15200	723.00000
15.15900	723.00000
15.16600	723.00000
15.17300	723.00000
15.18000	729.00000
15.18700	722.00000
15.19400	763.00000
15.20100	722.00000
15.20800	722.00000
15.21400	722.00000
15.22200	722.00000
15.22900	723.00000
15.23600	715.00000
15.24300	722.00000
15.25000	722.00000
15.25700	730.00000
15.26400	721.00000
15.27100	743.00000
15.27800	721.00000
15.28500	721.00000
15.29200	720.00000
15.29900	721.00000
15.30600	715.00000
15.31300	722.00000
15.32000	722.00000
15.32700	722.00000
15.33400	748.00000
15.34100	683.00000
15.34800	722.00000
15.35500	717.00000
15.36200	764.00000
15.36900	722.00000
15.37600	722.00000
15.38300	702.00000
15.39000	708.00000
15.39700	722.00000
15.40400	695.00000
15.41100	722.00000
15.41800	763.00000
15.42500	722.00000
15.43200	722.00000
15.43900	722.00000
15.44600	722.00000
15.45300	722.00000
15.46000	712.00000
15.46700	722.00000
15.47400	722.00000
15.48100	740.00000
15.48800	722.00000
15.49500	722.00000
15.50200	722.00000
15.50900	684.00000
15.51600	722.00000
15.52300	723.00000
15.53000	723.00000
15.53700	688.00000
15.54400	727.00000
15.55100	723.00000
15.55800	723.00000
15.56500	749.00000
15.57200	723.00000
15.57900	722.00000
15.58600	722.00000
15.59300	722.00000
15.60000	723.00000
15.60700	689.00000
15.61400	724.00000
15.62100	723.00000
15.62800	724.00000
15.63500	717.00000
15.64200	724.00000
15.64900	721.00000
15.65600	724.00000
15.66300	711.00000
15.67000	724.00000
15.67700	758.00000
15.68400	725.00000
15.69100	725.00000
15.69800	727.00000
15.70500	745.00000
15.71200	725.00000
15.71900	721.00000
15.72600	775.00000
15.73300	726.00000
15.74000	746.00000
15.74700	725.00000
15.75400	759.00000
15.76100	726.00000
15.76800	719.00000
15.77500	726.00000
15.78200	726.00000
15.78900	726.00000
15.79600	726.00000
15.80300	726.00000
15.81000	726.00000
15.81700	727.00000
15.82400	721.00000
15.83100	727.00000
15.83800	727.00000
15.84500	736.00000
15.85200	728.00000
15.85800	709.00000
15.86600	729.00000
15.87300	728.00000
15.88000	701.00000
15.88700	751.00000
15.89400	728.00000
15.90100	729.00000
15.90800	729.00000
15.91500	729.00000
15.92200	729.00000
15.92900	729.00000
15.93600	729.00000
15.94300	729.00000
15.95000	737.00000
15.95700	729.00000
15.96400	729.00000
15.97100	700.00000
15.97800	730.00000
15.98500	730.00000
15.99200	730.00000
15.99900	730.00000
16.00600	730.00000
16.01300	731.00000
16.02000	731.00000
16.02700	762.00000
16.03400	733.00000
16.04100	733.00000
16.04800	733.00000
16.05500	733.00000
16.06200	712.00000
16.06900	733.00000
16.07600	730.00000
16.08300	733.00000
16.09000	734.00000
16.09600	754.00000
16.10400	709.00000
16.11000	734.00000
16.11800	716.00000
16.12500	734.00000
16.13100	711.00000
16.13900	769.00000
16.14500	735.00000
16.15300	734.00000
16.16000	735.00000
16.16600	735.00000
16.17400	708.00000
16.18000	716.00000
16.18800	737.00000
16.19500	773.00000
16.20200	737.00000
16.20900	738.00000
16.21600	738.00000
16.22300	714.00000
16.23000	723.00000
16.23700	738.00000
16.24400	701.00000
16.25100	738.00000
16.25800	738.00000
16.26500	739.00000
16.27200	738.00000
16.27900	770.00000
16.28600	764.00000
16.29300	739.00000
16.30000	770.00000
16.30700	720.00000
16.31400	740.00000
16.32100	740.00000
16.32800	741.00000
16.33500	716.00000
16.34200	741.00000
16.34900	741.00000
16.35600	741.00000
16.36300	723.00000
16.37000	741.00000
16.37700	711.00000
16.38400	783.00000
16.39100	729.00000
16.39800	742.00000
16.40500	743.00000
16.41200	743.00000
16.41900	743.00000
16.42600	743.00000
16.43300	743.00000
16.44000	743.00000
16.44700	743.00000
16.45400	729.00000
16.46100	744.00000
16.46800	744.00000
16.47500	772.00000
16.48200	796.00000
16.48900	749.00000
16.49600	745.00000
16.50300	745.00000
16.51000	720.00000
16.51700	746.00000
16.52300	788.00000
16.53100	747.00000
16.53800	746.00000
16.54400	748.00000
16.55200	749.00000
16.55800	749.00000
16.56600	749.00000
16.57300	749.00000
16.57900	749.00000
16.58700	749.00000
16.59300	750.00000
16.60100	751.00000
16.60800	734.00000
16.61500	751.00000
16.62200	772.00000
16.62900	752.00000
16.63600	752.00000
16.64300	774.00000
16.65000	794.00000
16.65700	753.00000
16.66400	754.00000
16.67100	755.00000
16.67800	755.00000
16.68500	782.00000
16.69200	756.00000
16.69900	757.00000
16.70600	758.00000
16.71300	758.00000
16.72000	759.00000
16.72700	760.00000
16.73400	760.00000
16.74100	746.00000
16.74800	762.00000
16.75500	763.00000
16.76200	764.00000
16.76900	764.00000
16.77600	765.00000
16.78300	765.00000
16.79000	767.00000
16.79700	768.00000
16.80400	781.00000
16.81100	770.00000
16.81800	771.00000
16.82500	771.00000
16.83200	772.00000
16.83900	773.00000
16.84600	774.00000
16.85300	801.00000
16.86000	777.00000
16.86700	778.00000
16.87400	779.00000
16.88100	781.00000
16.88800	801.00000
16.89500	764.00000
16.90200	787.00000
16.90900	790.00000
16.91600	793.00000
16.92300	796.00000
16.93000	801.00000
16.93700	806.00000
16.94400	813.00000
16.95100	823.00000
16.95800	836.00000
16.96500	857.00000
16.97100	889.00000
16.97900	939.00000
16.98500	1017.00000
16.99300	1141.00000
17.00000	1506.00000
17.00600	1806.00000
17.01400	2101.00000
17.02000	2162.00000
17.02800	2571.00000
17.03500	2684.00000
17.04100	2809.00000
17.04900	2768.00000
17.05600	2655.00000
17.06300	2144.00000
17.07000	2141.00000
17.07700	1811.00000
17.08400	1539.00000
17.09100	1189.00000
17.09800	1108.00000
17.10500	1080.00000
17.11200	957.00000
17.11900	958.00000
17.12600	922.00000
17.13300	883.00000
17.14000	877.00000
17.14700	863.00000
17.15400	851.00000
17.16100	841.00000
17.16800	834.00000
17.17500	798.00000
17.18200	822.00000
17.18900	828.00000
17.19600	815.00000
17.20300	811.00000
17.21000	813.00000
17.21700	808.00000
17.22400	803.00000
17.23100	783.00000
17.23800	800.00000
17.24500	798.00000
17.25200	787.00000
17.25900	796.00000
17.26600	800.00000
17.27300	809.00000
17.28000	742.00000
17.28700	794.00000
17.29400	793.00000
17.30100	740.00000
17.30800	794.00000
17.31500	794.00000
17.32200	768.00000
17.32900	794.00000
17.33600	794.00000
17.34300	795.00000
17.35000	796.00000
17.35700	760.00000
17.36400	798.00000
17.37100	798.00000
17.37800	761.00000
17.38500	801.00000
17.39200	803.00000
17.39800	804.00000
17.40600	805.00000
17.41300	806.00000
17.41900	808.00000
17.42700	809.00000
17.43300	810.00000
17.44100	811.00000
17.44800	812.00000
17.45400	813.00000
17.46200	814.00000
17.46800	734.00000
17.47600	815.00000
17.48300	816.00000
17.49000	816.00000
17.49700	816.00000
17.50400	784.00000
17.51100	737.00000
17.51800	801.00000
17.52500	745.00000
17.53200	819.00000
17.53900	815.00000
17.54600	815.00000
17.55300	814.00000
17.56000	739.00000
17.56700	813.00000
17.57400	813.00000
17.58100	812.00000
17.58800	771.00000
17.59500	810.00000
17.60200	810.00000
17.60900	776.00000
17.61600	753.00000
17.62300	791.00000
17.63000	805.00000
17.63700	804.00000
17.64400	781.00000
17.65100	802.00000
17.65800	800.00000
17.66500	757.00000
17.67200	798.00000
17.67900	797.00000
17.68600	796.00000
17.69300	795.00000
17.70000	807.00000
17.70700	792.00000
17.71400	791.00000
17.72100	790.00000
17.72800	790.00000
17.73500	796.00000
17.74200	788.00000
17.74900	787.00000
17.75600	757.00000
17.76300	785.00000
17.77000	825.00000
17.77700	784.00000
17.78400	783.00000
17.79100	757.00000
17.79800	782.00000
17.80500	781.00000
17.81200	781.00000
17.81900	780.00000
17.82600	780.00000
17.83300	780.00000
17.84000	781.00000
17.84600	767.00000
17.85400	768.00000
17.86000	780.00000
17.86800	779.00000
17.87500	792.00000
17.88100	765.00000
17.88900	793.00000
17.89500	779.00000
17.90300	757.00000
17.91000	779.00000
17.91700	787.00000
17.92400	779.00000
17.93100	779.00000
17.93800	779.00000
17.94500	825.00000
17.95200	779.00000
17.95900	779.00000
17.96600	812.00000
17.97300	779.00000
17.98000	780.00000
17.98700	780.00000
17.99400	781.00000
18.00100	782.00000
18.00800	783.00000
18.01500	784.00000
18.02200	787.00000
18.02900	792.00000
18.03600	799.00000
18.04300	814.00000
18.05000	793.00000
18.05700	840.00000
18.06400	843.00000
18.07100	840.00000
18.07800	868.00000
18.08500	865.00000
18.09200	856.00000
18.09900	856.00000
18.10600	840.00000
18.11300	842.00000
18.12000	777.00000
18.12700	816.00000
18.13400	777.00000
18.14100	803.00000
18.14800	837.00000
18.15500	844.00000
18.16200	794.00000
18.16900	764.00000
18.17600	827.00000
18.18300	791.00000
18.19000	791.00000
18.19700	817.00000
18.20400	791.00000
18.21100	778.00000
18.21800	792.00000
18.22500	790.00000
18.23200	795.00000
18.23900	796.00000
18.24600	797.00000
18.25300	779.00000
18.26000	801.00000
18.26700	807.00000
18.27300	809.00000
18.28100	809.00000
18.28800	813.00000
18.29400	810.00000
18.30200	823.00000
18.30800	829.00000
18.31600	834.00000
18.32300	869.00000
18.32900	902.00000
18.33700	878.00000
18.34300	905.00000
18.35100	945.00000
18.35800	1064.00000
18.36500	1163.00000
18.37200	1234.00000
18.37900	1425.00000
18.38600	1660.00000
18.39300	1918.00000
18.40000	2318.00000
18.40700	2454.00000
18.41400	2648.00000
18.42100	2738.00000
18.42800	2697.00000
18.43500	2437.00000
18.44200	2314.00000
18.44900	1987.00000
18.45600	1740.00000
18.46300	1491.00000
18.47000	1307.00000
18.47700	1164.00000
18.48400	1066.00000
18.49100	997.00000
18.49800	948.00000
18.50500	913.00000
18.51200	887.00000
18.51900	868.00000
18.52600	810.00000
18.53300	806.00000
18.54000	860.00000
18.54700	829.00000
18.55400	824.00000
18.56100	861.00000
18.56800	861.00000
18.57500	775.00000
18.58200	810.00000
18.58900	808.00000
18.59600	806.00000
18.60300	804.00000
18.61000	803.00000
18.61700	801.00000
18.62400	801.00000
18.63100	800.00000
18.63800	799.00000
18.64500	799.00000
18.65200	798.00000
18.65900	824.00000
18.66600	834.00000
18.67300	795.00000
18.68000	795.00000
18.68700	792.00000
18.69400	811.00000
18.70100	807.00000
18.70800	794.00000
18.71500	794.00000
18.72100	804.00000
18.72900	848.00000
18.73500	786.00000
18.74300	793.00000
18.75000	805.00000
18.75600	794.00000
18.76400	794.00000
18.77000	793.00000
18.77800	793.00000
18.78500	793.00000
18.79200	793.00000
18.79900	805.00000
18.80600	794.00000
18.81300	807.00000
18.82000	843.00000
18.82700	795.00000
18.83400	771.00000
18.84100	775.00000
18.84800	796.00000
18.85500	797.00000
18.86200	828.00000
18.86900	779.00000
18.87600	797.00000
18.88300	816.00000
18.89000	817.00000
18.89700	799.00000
18.90400	795.00000
18.91100	801.00000
18.91800	802.00000
18.92500	803.00000
18.93200	777.00000
18.93900	805.00000
18.94600	807.00000
18.95300	809.00000
18.96000	812.00000
18.96700	815.00000
18.97400	820.00000
18.98100	866.00000
18.98800	837.00000
18.99500	853.00000
19.00200	879.00000
19.00900	918.00000
19.01600	1022.00000
19.02300	1084.00000
19.03000	1144.00000
19.03700	1309.00000
19.04400	1450.00000
19.05100	1537.00000
19.05800	1610.00000
19.06500	1639.00000
19.07200	1753.00000
19.07900	1567.00000
19.08600	1542.00000
19.09300	1387.00000
19.10000	1282.00000
19.10700	1186.00000
19.11400	1101.00000
19.12100	1030.00000
19.12800	973.00000
19.13500	929.00000
19.14200	895.00000
19.14800	834.00000
19.15600	853.00000
19.16300	841.00000
19.16900	832.00000
19.17700	825.00000
19.18300	819.00000
19.19100	815.00000
19.19800	797.00000
19.20400	810.00000
19.21200	822.00000
19.21900	775.00000
19.22600	806.00000
19.23300	856.00000
19.24000	804.00000
19.24700	803.00000
19.25400	802.00000
19.26100	798.00000
19.26800	802.00000
19.27500	834.00000
19.28200	801.00000
19.28900	772.00000
19.29600	791.00000
19.30300	835.00000
19.31000	847.00000
19.31700	799.00000
19.32400	829.00000
19.33100	799.00000
19.33800	799.00000
19.34500	799.00000
19.35200	799.00000
19.35900	799.00000
19.36600	800.00000
19.37300	800.00000
19.38000	800.00000
19.38700	800.00000
19.39400	844.00000
19.40100	834.00000
19.40800	799.00000
19.41500	799.00000
19.42200	799.00000
19.42900	845.00000
19.43600	799.00000
19.44300	799.00000
19.45000	799.00000
19.45700	799.00000
19.46400	818.00000
19.47100	800.00000
19.47800	830.00000
19.48500	800.00000
19.49200	800.00000
19.49900	789.00000
19.50600	775.00000
19.51300	777.00000
19.52000	790.00000
19.52700	803.00000
19.53400	800.00000
19.54100	801.00000
19.54800	822.00000
19.55500	760.00000
19.56200	800.00000
19.56900	801.00000
19.57600	825.00000
19.58300	801.00000
19.59000	801.00000
19.59600	801.00000
19.60400	775.00000
19.61000	801.00000
19.61800	801.00000
19.62500	847.00000
19.63100	802.00000
19.63900	848.00000
19.64600	803.00000
19.65300	803.00000
19.66000	803.00000
19.66700	782.00000
19.67400	761.00000
19.68100	804.00000
19.68800	828.00000
19.69500	805.00000
19.70200	805.00000
19.70900	763.00000
19.71600	806.00000
19.72300	807.00000
19.73000	790.00000
19.73700	807.00000
19.74400	808.00000
19.75100	802.00000
19.75800	803.00000
19.76500	809.00000
19.77200	810.00000
19.77900	779.00000
19.78600	813.00000
19.79300	810.00000
19.80000	810.00000
19.80700	810.00000
19.81400	810.00000
19.82100	810.00000
19.82800	810.00000
19.83500	810.00000
19.84200	810.00000
19.84900	810.00000
19.85600	810.00000
19.86300	812.00000
19.87000	785.00000
19.87700	810.00000
19.88400	810.00000
19.89100	778.00000
19.89800	811.00000
19.90500	780.00000
19.91200	810.00000
19.91900	810.00000
19.92600	853.00000
19.93300	811.00000
19.94000	849.00000
19.94700	814.00000
19.95400	817.00000
19.96100	822.00000
19.96800	827.00000
19.97500	863.00000
19.98200	900.00000
19.98900	885.00000
19.99600	855.00000
20.00300	855.00000
20.01000	861.00000
20.01700	860.00000
20.02300	849.00000
20.03100	852.00000
20.03800	845.00000
20.04400	892.00000
20.05200	798.00000
20.05800	828.00000
20.06600	824.00000
20.07300	821.00000
20.08000	819.00000
20.08700	817.00000
20.09400	816.00000
20.10100	788.00000
20.10800	814.00000
20.11500	814.00000
20.12200	841.00000
20.12900	813.00000
20.13600	812.00000
20.14300	798.00000
20.15000	812.00000
20.15700	812.00000
20.16400	813.00000
20.17100	813.00000
20.17800	812.00000
20.18500	813.00000
20.19200	813.00000
20.19900	813.00000
20.20600	813.00000
20.21300	813.00000
20.22000	813.00000
20.22700	813.00000
20.23400	814.00000
20.24100	814.00000
20.24800	814.00000
20.25500	814.00000
20.26200	814.00000
20.26900	814.00000
20.27600	763.00000
20.28300	814.00000
20.29000	811.00000
20.29700	815.00000
20.30400	815.00000
20.31100	816.00000
20.31800	816.00000
20.32500	812.00000
20.33200	816.00000
20.33900	816.00000
20.34600	762.00000
20.35300	816.00000
20.36000	761.00000
20.36700	783.00000
20.37400	817.00000
20.38100	792.00000
20.38800	814.00000
20.39500	817.00000
20.40200	815.00000
20.40900	818.00000
20.41600	818.00000
20.42300	844.00000
20.43000	844.00000
20.43700	798.00000
20.44400	819.00000
20.45100	819.00000
20.45800	820.00000
20.46500	820.00000
20.47100	820.00000
20.47900	820.00000
20.48500	854.00000
20.49300	820.00000
20.50000	820.00000
20.50700	821.00000
20.51400	828.00000
20.52100	821.00000
20.52800	821.00000
20.53500	821.00000
20.54200	821.00000
20.54900	821.00000
20.55600	821.00000
20.56300	822.00000
20.57000	822.00000
20.57700	822.00000
20.58400	823.00000
20.59100	823.00000
20.59800	787.00000
20.60500	823.00000
20.61200	823.00000
20.61900	823.00000
20.62600	773.00000
20.63300	823.00000
20.64000	773.00000
20.64700	847.00000
20.65400	825.00000
20.66100	854.00000
20.66800	847.00000
20.67500	837.00000
20.68200	769.00000
20.68900	827.00000
20.69600	827.00000
20.70300	827.00000
20.71000	795.00000
20.71700	826.00000
20.72400	826.00000
20.73100	826.00000
20.73800	828.00000
20.74500	808.00000
20.75200	825.00000
20.75900	845.00000
20.76600	828.00000
20.77300	828.00000
20.78000	791.00000
20.78700	830.00000
20.79400	817.00000
20.80100	803.00000
20.80800	832.00000
20.81500	833.00000
20.82200	834.00000
20.82900	836.00000
20.83600	842.00000
20.84300	844.00000
20.85000	850.00000
20.85700	860.00000
20.86400	874.00000
20.87100	898.00000
20.87800	926.00000
20.88500	954.00000
20.89200	971.00000
20.89800	987.00000
20.90600	999.00000
20.91300	1000.00000
20.91900	995.00000
20.92700	988.00000
20.93300	975.00000
20.94100	953.00000
20.94800	932.00000
20.95500	911.00000
20.96200	893.00000
20.96900	878.00000
20.97600	867.00000
20.98300	827.00000
20.99000	853.00000
20.99700	848.00000
21.00400	845.00000
21.01100	843.00000
21.01800	817.00000
21.02500	832.00000
21.03200	839.00000
21.03900	838.00000
21.04600	792.00000
21.05300	858.00000
21.06000	837.00000
21.06700	837.00000
21.07400	814.00000
21.08100	864.00000
21.08800	822.00000
21.09500	837.00000
21.10200	841.00000
21.10900	837.00000
21.11600	857.00000
21.12300	813.00000
21.13000	823.00000
21.13700	838.00000
21.14400	827.00000
21.15100	826.00000
21.15800	838.00000
21.16500	838.00000
21.17200	838.00000
21.17900	839.00000
21.18600	839.00000
21.19300	807.00000
21.20000	789.00000
21.20700	839.00000
21.21400	839.00000
21.22100	839.00000
21.22800	816.00000
21.23500	824.00000
21.24200	863.00000
21.24900	840.00000
21.25600	840.00000
21.26300	841.00000
21.27000	878.00000
21.27700	841.00000
21.28400	882.00000
21.29100	813.00000
21.29800	842.00000
21.30500	842.00000
21.31200	879.00000
21.31900	823.00000
21.32600	799.00000
21.33300	842.00000
21.34000	818.00000
21.34600	843.00000
21.35400	895.00000
21.36000	861.00000
21.36800	815.00000
21.37500	831.00000
21.38200	827.00000
21.38900	845.00000
21.39600	846.00000
21.40300	882.00000
21.41000	847.00000
21.41700	848.00000
21.42400	848.00000
21.43100	848.00000
21.43800	849.00000
21.44500	881.00000
21.45200	851.00000
21.45900	851.00000
21.46600	811.00000
21.47300	853.00000
21.48000	831.00000
21.48700	855.00000
21.49400	856.00000
21.50100	857.00000
21.50800	885.00000
21.51500	876.00000
21.52200	917.00000
21.52900	866.00000
21.53600	870.00000
21.54300	875.00000
21.55000	882.00000
21.55700	891.00000
21.56400	906.00000
21.57100	955.00000
21.57800	922.00000
21.58500	1046.00000
21.59200	1067.00000
21.59900	1141.00000
21.60600	1185.00000
21.61300	1288.00000
21.62000	1336.00000
21.62700	1318.00000
21.63400	1379.00000
21.64100	1375.00000
21.64800	1315.00000
21.65500	1271.00000
21.66200	1301.00000
21.66900	1240.00000
21.67600	1168.00000
21.68300	1054.00000
21.69000	1040.00000
21.69700	925.00000
21.70400	955.00000
21.71100	929.00000
21.71800	912.00000
21.72500	899.00000
21.73200	887.00000
21.73900	884.00000
21.74600	879.00000
21.75300	865.00000
21.76000	895.00000
21.76700	871.00000
21.77300	869.00000
21.78100	886.00000
21.78800	867.00000
21.79400	866.00000
21.80200	866.00000
21.80900	865.00000
21.81600	886.00000
21.82300	848.00000
21.83000	865.00000
21.83700	930.00000
21.84400	847.00000
21.85100	875.00000
21.85800	865.00000
21.86500	885.00000
21.87200	864.00000
21.87900	876.00000
21.88600	864.00000
21.89300	864.00000
21.90000	843.00000
21.90700	857.00000
21.91400	874.00000
21.92100	864.00000
21.92800	909.00000
21.93500	864.00000
21.94200	870.00000
21.94900	860.00000
21.95600	864.00000
21.96300	928.00000
21.97000	865.00000
21.97700	910.00000
21.98400	866.00000
21.99100	866.00000
21.99800	866.00000
22.00500	928.00000
22.01200	900.00000
22.01900	867.00000
22.02600	945.00000
22.03300	867.00000
22.04000	862.00000
22.04700	862.00000
22.05400	880.00000
22.06100	868.00000
22.06800	869.00000
22.07500	865.00000
22.08200	905.00000
22.08900	872.00000
22.09600	873.00000
22.10300	926.00000
22.11000	875.00000
22.11700	886.00000
22.12400	877.00000
22.13100	877.00000
22.13800	878.00000
22.14500	879.00000
22.15200	862.00000
22.15900	880.00000
22.16600	881.00000
22.17300	881.00000
22.18000	882.00000
22.18700	883.00000
22.19400	884.00000
22.20100	957.00000
22.20800	885.00000
22.21500	886.00000
22.22100	886.00000
22.22900	887.00000
22.23600	888.00000
22.24300	889.00000
22.25000	888.00000
22.25700	891.00000
22.26400	938.00000
22.27100	892.00000
22.27800	892.00000
22.28500	893.00000
22.29200	894.00000
22.29900	895.00000
22.30600	938.00000
22.31300	899.00000
22.32000	949.00000
22.32700	881.00000
22.33400	910.00000
22.34100	913.00000
22.34800	915.00000
22.35500	924.00000
22.36200	959.00000
22.36900	922.00000
22.37600	940.00000
22.38300	923.00000
22.39000	879.00000
22.39700	925.00000
22.40400	926.00000
22.41100	937.00000
22.41800	929.00000
22.42500	939.00000
22.43200	932.00000
22.43900	934.00000
22.44600	931.00000
22.45300	926.00000
22.46000	894.00000
22.46700	910.00000
22.47400	915.00000
22.48100	942.00000
22.48800	950.00000
22.49500	969.00000
22.50200	984.00000
22.50900	965.00000
22.51600	1015.00000
22.52300	1001.00000
22.53000	994.00000
22.53700	1157.00000
22.54400	1264.00000
22.55100	1413.00000
22.55800	1335.00000
22.56500	1447.00000
22.57200	2149.00000
22.57900	1773.00000
22.58600	2429.00000
22.59300	2161.00000
22.60000	2304.00000
22.60700	2124.00000
22.61400	1906.00000
22.62100	1711.00000
22.62800	1871.00000
22.63500	1408.00000
22.64200	1622.00000
22.64800	1209.00000
22.65600	1141.00000
22.66300	1204.00000
22.67000	1054.00000
22.67700	1066.00000
22.68400	1006.00000
22.69100	992.00000
22.69800	983.00000
22.70500	976.00000
22.71200	970.00000
22.71900	966.00000
22.72600	932.00000
22.73300	959.00000
22.74000	956.00000
22.74700	955.00000
22.75400	953.00000
22.76100	951.00000
22.76800	950.00000
22.77500	949.00000
22.78200	883.00000
22.78900	947.00000
22.79600	946.00000
22.80300	945.00000
22.81000	944.00000
22.81700	937.00000
22.82400	932.00000
22.83100	846.00000
22.83800	923.00000
22.84500	922.00000
22.85200	828.00000
22.85900	918.00000
22.86600	913.00000
22.87300	913.00000
22.88000	898.00000
22.88700	907.00000
22.89400	906.00000
22.90100	903.00000
22.90800	902.00000
22.91500	898.00000
22.92200	897.00000
22.92900	893.00000
22.93600	885.00000
22.94300	890.00000
22.95000	884.00000
22.95700	876.00000
22.96400	817.00000
22.97100	861.00000
22.97800	853.00000
22.98500	844.00000
22.99200	794.00000
22.99900	863.00000
23.00600	822.00000
23.01300	822.00000
23.02000	802.00000
23.02700	793.00000
23.03400	826.00000
23.04100	854.00000
23.04800	772.00000
23.05500	753.00000
23.06200	812.00000
23.06900	819.00000
23.07600	837.00000
23.08300	701.00000
23.09000	780.00000
