3.00470	5075.85000
3.02220	5062.37000
3.03970	5047.43000
3.05720	5033.58000
3.07470	5022.85000
3.09220	5013.23000
3.10970	5007.69000
3.12720	5000.37000
3.14470	4993.20000
3.16220	4988.57000
3.17970	4982.85000
3.19720	4981.69000
3.21470	4981.26000
3.23220	4987.98000
3.24970	5008.25000
3.26720	5056.07000
3.28470	5166.19000
3.30220	5300.46000
3.31970	5322.46000
3.33720	5203.21000
3.35470	5063.77000
3.37220	4986.91000
3.38970	4949.20000
3.40720	4924.93000
3.42470	4910.07000
3.44220	4893.00000
3.45970	4881.98000
3.47720	4874.71000
3.49470	4863.99000
3.51220	4856.53000
3.52970	4847.17000
3.54720	4840.11000
3.56470	4841.90000
3.58220	4840.39000
3.59970	4843.42000
3.61720	4848.76000
3.63470	4852.21000
3.65220	4863.63000
3.66970	4871.99000
3.68720	4885.56000
3.70470	4908.26000
3.72220	4931.53000
3.73970	4968.81000
3.75720	5026.32000
3.77470	5132.20000
3.79220	5373.17000
3.80970	5968.05000
3.82720	7656.07000
3.84470	12328.00000
3.86220	22383.70000
3.87970	34665.70000
3.89720	37259.00000
3.91470	26843.70000
3.93220	14690.50000
3.94970	8333.10000
3.96720	6062.54000
3.98470	5319.85000
4.00220	5055.20000
4.01970	4949.42000
4.03720	4895.44000
4.05470	4867.03000
4.07220	4850.74000
4.08970	4840.00000
4.10720	4838.57000
4.12470	4836.92000
4.14220	4840.67000
4.15970	4850.52000
4.17720	4858.17000
4.19470	4871.28000
4.21220	4889.37000
4.22970	4916.21000
4.24720	4962.90000
4.26470	5037.17000
4.28220	5199.79000
4.29970	5639.66000
4.31720	7010.19000
4.33470	11091.50000
4.35220	19540.50000
4.36970	27769.40000
4.38720	26612.50000
4.40470	17530.40000
4.42220	9932.74000
4.43970	6689.83000
4.45720	5614.92000
4.47470	5278.92000
4.49220	5164.09000
4.50970	5130.06000
4.52720	5128.69000
4.54470	5154.63000
4.56220	5227.88000
4.57970	5357.69000
4.59720	5562.21000
4.61470	5920.13000
4.63220	6663.09000
4.64970	8409.80000
4.66720	13050.70000
4.68470	24332.30000
4.70220	41193.90000
4.71970	49793.40000
4.73720	39663.00000
4.75470	22267.60000
4.77220	11503.40000
4.78970	7355.36000
4.80720	5969.45000
4.82470	5477.28000
4.84220	5274.98000
4.85970	5169.30000
4.87720	5093.02000
4.89470	5023.97000
4.91220	4968.52000
4.92970	4931.58000
4.94720	4902.17000
4.96470	4881.75000
4.98220	4865.02000
4.99970	4844.88000
5.01720	4827.10000
5.03470	4807.68000
5.05220	4791.97000
5.06970	4779.94000
5.08720	4767.22000
5.10470	4759.65000
5.12220	4753.57000
5.13970	4746.66000
5.15720	4743.99000
5.17470	4739.32000
5.19220	4737.89000
5.20970	4737.74000
5.22720	4737.73000
5.24470	4738.17000
5.26220	4736.59000
5.27970	4737.36000
5.29720	4742.94000
5.31470	4745.21000
5.33220	4751.54000
5.34970	4756.26000
5.36720	4760.10000
5.38470	4767.49000
5.40220	4773.97000
5.41970	4790.76000
5.43720	4817.34000
5.45470	4864.14000
5.47220	4963.71000
5.48970	5153.13000
5.50720	5414.09000
5.52470	5565.26000
5.54220	5446.42000
5.55970	5192.09000
5.57720	5004.04000
5.59470	4917.82000
5.61220	4892.38000
5.62970	4886.31000
5.64720	4888.32000
5.66470	4889.66000
5.68220	4886.16000
5.69970	4884.44000
5.71720	4885.92000
5.73470	4889.73000
5.75220	4895.80000
5.76970	4899.74000
5.78720	4907.08000
5.80470	4915.21000
5.82220	4920.27000
5.83970	4929.46000
5.85720	4938.72000
5.87470	4949.86000
5.89220	4963.79000
5.90970	4974.10000
5.92720	4986.03000
5.94470	4998.41000
5.96220	5014.85000
5.97970	5049.69000
5.99720	5120.69000
6.01470	5254.36000
6.03220	5394.53000
6.04970	5403.07000
6.06720	5274.59000
6.08470	5136.06000
6.10220	5058.47000
6.11970	5027.94000
6.13720	5009.29000
6.15470	4998.10000
6.17220	4986.20000
6.18970	4973.13000
6.20720	4967.59000
6.22470	4961.24000
6.24220	4957.94000
6.25970	4960.77000
6.27720	4962.70000
6.29470	4967.09000
6.31220	4968.46000
6.32970	4968.71000
6.34720	4974.26000
6.36470	4977.31000
6.38220	4984.90000
6.39970	4995.08000
6.41720	5003.54000
6.43470	5018.18000
6.45220	5033.38000
6.46970	5052.05000
6.48720	5080.56000
6.50470	5112.14000
6.52220	5164.37000
6.53970	5264.14000
6.55720	5495.53000
6.57470	6141.18000
6.59220	7797.80000
6.60970	10904.60000
6.62720	14352.70000
6.64470	15755.40000
6.66220	14391.20000
6.67970	11511.20000
6.69720	8681.91000
6.71470	6969.29000
6.73220	6608.65000
6.74970	7882.83000
6.76720	12068.60000
6.78470	19664.50000
6.80220	25626.90000
6.81970	23321.90000
6.83720	15469.30000
6.85470	9315.99000
6.87220	6560.17000
6.88970	5609.18000
6.90720	5282.43000
6.92470	5151.61000
6.94220	5096.07000
6.95970	5066.56000
6.97720	5052.92000
6.99470	5053.32000
7.01220	5075.46000
7.02970	5181.24000
7.04720	5489.27000
7.06470	6078.22000
7.08220	6616.73000
7.09970	6594.14000
7.11720	6175.88000
7.13470	5926.67000
7.15220	5943.47000
7.16970	5903.71000
7.18720	5646.48000
7.20470	5347.02000
7.22220	5165.67000
7.23970	5080.94000
7.25720	5046.96000
7.27470	5035.43000
7.29220	5038.14000
7.30970	5062.53000
7.32720	5115.29000
7.34470	5224.77000
7.36220	5463.84000
7.37970	6018.34000
7.39720	7381.92000
7.41470	10343.50000
7.43220	15057.20000
7.44970	19500.60000
7.46720	19990.80000
7.48470	15866.40000
7.50220	10707.00000
7.51970	7420.74000
7.53720	5980.72000
7.55470	5441.23000
7.57220	5226.07000
7.58970	5132.47000
7.60720	5085.00000
7.62470	5070.90000
7.64220	5114.39000
7.65970	5255.69000
7.67720	5504.47000
7.69470	5693.49000
7.71220	5639.40000
7.72970	5489.31000
7.74720	5529.26000
7.76470	5797.30000
7.78220	6000.09000
7.79970	5848.68000
7.81720	5478.17000
7.83470	5187.29000
7.85220	5037.14000
7.86970	4995.22000
7.88720	5042.15000
7.90470	5118.08000
7.92220	5101.12000
7.93970	4963.93000
7.95720	4818.56000
7.97470	4729.55000
7.99220	4683.26000
8.00970	4664.15000
8.02720	4648.82000
8.04470	4638.34000
8.06220	4634.25000
8.07970	4630.94000
8.09720	4635.19000
8.11470	4643.52000
8.13220	4664.86000
8.14970	4739.96000
8.16720	4946.11000
8.18470	5518.65000
8.20220	6810.55000
8.21970	8804.96000
8.23720	10646.70000
8.25470	11669.10000
8.27220	12234.90000
8.28970	12305.40000
8.30720	11179.60000
8.32470	8962.94000
8.34220	6809.98000
8.35970	5492.19000
8.37720	4907.68000
8.39470	4671.72000
8.41220	4570.12000
8.42970	4521.40000
8.44720	4488.51000
8.46470	4468.10000
8.48220	4453.93000
8.49970	4443.95000
8.51720	4436.82000
8.53470	4433.08000
8.55220	4430.81000
8.56970	4433.85000
8.58720	4442.54000
8.60470	4458.43000
8.62220	4493.12000
8.63970	4539.73000
8.65720	4584.45000
8.67470	4654.24000
8.69220	4879.42000
8.70970	5559.94000
8.72720	6966.61000
8.74470	8601.95000
8.76220	8946.70000
8.77970	7662.05000
8.79720	6102.63000
8.81470	5167.47000
8.83220	4751.54000
8.84970	4584.93000
8.86720	4487.07000
8.88470	4408.90000
8.90220	4361.29000
8.91970	4342.31000
8.93720	4354.35000
8.95470	4379.50000
8.97220	4397.38000
8.98970	4415.55000
9.00720	4461.39000
9.02470	4548.77000
9.04220	4616.17000
9.05970	4586.02000
9.07720	4467.11000
9.09470	4333.04000
9.11220	4238.50000
9.12970	4184.39000
9.14720	4153.51000
9.16470	4137.33000
9.18220	4131.25000
9.19970	4132.94000
9.21720	4146.62000
9.23470	4194.82000
9.25220	4324.11000
9.26970	4604.92000
9.28720	4994.62000
9.30470	5282.62000
9.32220	5422.49000
9.33970	5736.93000
9.35720	6452.14000
9.37470	7265.48000
9.39220	7907.96000
9.40970	8536.48000
9.42720	9089.06000
9.44470	9243.84000
9.46220	8871.21000
9.47970	7898.97000
9.49720	6500.36000
9.51470	5283.06000
9.53220	4567.28000
9.54970	4245.36000
9.56720	4107.86000
9.58470	4047.80000
9.60220	4019.56000
9.61970	4002.94000
9.63720	3994.58000
9.65470	3997.88000
9.67220	4025.79000
9.68970	4079.58000
9.70720	4125.77000
9.72470	4126.89000
9.74220	4106.05000
9.75970	4113.38000
9.77720	4155.72000
9.79470	4191.31000
9.81220	4176.04000
9.82970	4145.45000
9.84720	4179.93000
9.86470	4381.33000
9.88220	5022.82000
9.89970	6558.51000
9.91720	9124.52000
9.93470	11472.80000
9.95220	11699.90000
9.96970	9842.79000
9.98720	7913.19000
10.00470	7130.93000
10.02220	7197.08000
10.03970	7078.30000
10.05720	6326.57000
10.07470	5466.31000
10.09220	4930.54000
10.10970	4688.00000
10.12720	4606.05000
10.14470	4668.10000
10.16220	4931.81000
10.17970	5301.53000
10.19720	5436.12000
10.21470	5154.49000
10.23220	4729.88000
10.24970	4446.77000
10.26720	4332.12000
10.28470	4295.21000
10.30220	4289.93000
10.31970	4306.56000
10.33720	4349.67000
10.35470	4467.55000
10.37220	4737.18000
10.38970	5274.81000
10.40720	6050.04000
10.42470	6619.58000
10.44220	6473.28000
10.45970	5752.52000
10.47720	5030.25000
10.49470	4603.04000
10.51220	4405.39000
10.52970	4313.25000
10.54720	4296.05000
10.56470	4404.37000
10.58220	4653.26000
10.59970	4874.22000
10.61720	4846.81000
10.63470	4621.21000
10.65220	4429.61000
10.66970	4378.38000
10.68720	4539.48000
10.70470	5132.32000
10.72220	6807.21000
10.73970	10391.20000
10.75720	14716.10000
10.77470	16010.30000
10.79220	12895.70000
10.80970	8647.38000
10.82720	5963.56000
10.84470	4859.00000
10.86220	4580.54000
10.87970	4632.46000
10.89720	4660.41000
10.91470	4501.55000
10.93220	4265.12000
10.94970	4101.45000
10.96720	4057.05000
10.98470	4150.13000
11.00220	4429.30000
11.01970	5032.36000
11.03720	6030.52000
11.05470	7247.47000
11.07220	8329.37000
11.08970	9148.97000
11.10720	9614.64000
11.12470	9244.31000
11.14220	7861.00000
11.15970	6129.94000
11.17720	4856.02000
11.19470	4190.22000
11.21220	3900.42000
11.22970	3786.65000
11.24720	3772.56000
11.26470	3834.87000
11.28220	3899.07000
11.29970	3869.06000
11.31720	3764.28000
11.33470	3684.35000
11.35220	3708.67000
11.36970	3870.06000
11.38720	4157.60000
11.40470	4481.15000
11.42220	4701.01000
11.43970	4841.89000
11.45720	5041.59000
11.47470	5301.66000
11.49220	5477.70000
11.50970	5434.96000
11.52720	5098.86000
11.54470	4563.95000
11.56220	4094.12000
11.57970	3817.73000
11.59720	3708.21000
11.61470	3710.99000
11.63220	3732.99000
11.64970	3664.47000
11.66720	3533.19000
11.68470	3450.98000
11.70220	3421.24000
11.71970	3386.60000
11.73720	3310.10000
11.75470	3205.63000
11.77220	3118.70000
11.78970	3062.89000
11.80720	3030.59000
11.82470	3010.28000
11.84220	2998.26000
11.85970	2990.72000
11.87720	2985.83000
11.89470	2990.90000
11.91220	3002.04000
11.92970	3034.68000
11.94720	3096.88000
11.96470	3189.91000
11.98220	3301.42000
11.99970	3372.44000
12.01720	3364.92000
12.03470	3368.77000
12.05220	3550.26000
12.06970	4009.09000
12.08720	4630.33000
12.10470	5140.52000
12.12220	5463.80000
12.13970	5738.01000
12.15720	5914.26000
12.17470	5900.09000
12.19220	5722.68000
12.20970	5308.59000
12.22720	4622.93000
12.24470	3905.23000
12.26220	3411.23000
12.27970	3177.42000
12.29720	3122.09000
12.31470	3169.80000
12.33220	3298.37000
12.34970	3533.73000
12.36720	3861.99000
12.38470	4106.99000
12.40220	4043.54000
12.41970	3681.60000
12.43720	3273.79000
12.45470	2989.57000
12.47220	2833.66000
12.48970	2749.39000
12.50720	2704.79000
12.52470	2682.21000
12.54220	2670.07000
12.55970	2664.83000
12.57720	2669.73000
12.59470	2685.64000
12.61220	2717.08000
12.62970	2776.45000
12.64720	2876.33000
12.66470	3018.25000
12.68220	3136.04000
12.69970	3128.67000
12.71720	2981.40000
12.73470	2803.68000
12.75220	2682.30000
12.76970	2627.13000
12.78720	2614.66000
12.80470	2628.50000
12.82220	2654.13000
12.83970	2657.85000
12.85720	2630.94000
12.87470	2593.26000
12.89220	2565.27000
12.90970	2555.33000
12.92720	2566.74000
12.94470	2613.02000
12.96220	2750.55000
12.97970	3127.85000
12.99720	4006.36000
13.01470	5487.08000
13.03220	6949.38000
13.04970	7394.93000
13.06720	6579.24000
13.08470	5186.33000
13.10220	4042.81000
13.11970	3535.18000
13.13720	3583.27000
13.15470	3900.53000
13.17220	4210.07000
13.18970	4352.38000
13.20720	4298.41000
13.22470	4136.99000
13.24220	3965.01000
13.25970	3869.35000
13.27720	3869.68000
13.29470	3891.19000
13.31220	3853.11000
13.32970	3797.50000
13.34720	3794.24000
13.36470	3798.54000
13.38220	3709.98000
13.39970	3506.95000
13.41720	3228.40000
13.43470	2918.34000
13.45220	2657.22000
13.46970	2494.19000
13.48720	2409.04000
13.50470	2368.57000
13.52220	2351.68000
13.53970	2348.78000
13.55720	2369.81000
13.57470	2437.67000
13.59220	2607.19000
13.60970	2918.51000
13.62720	3221.85000
13.64470	3241.68000
13.66220	2962.59000
13.67970	2640.37000
13.69720	2437.44000
13.71470	2343.87000
13.73220	2306.78000
13.74970	2296.75000
13.76720	2302.74000
13.78470	2324.54000
13.80220	2384.37000
13.81970	2513.68000
13.83720	2741.37000
13.85470	3022.49000
13.87220	3210.16000
13.88970	3195.40000
13.90720	3010.93000
13.92470	2772.39000
13.94220	2585.25000
13.95970	2481.11000
13.97720	2434.63000
13.99470	2415.20000
14.01220	2406.03000
14.02970	2404.53000
14.04720	2412.74000
14.06470	2439.27000
14.08220	2492.76000
14.09970	2603.04000
14.11720	2828.77000
14.13470	3257.62000
14.15220	3895.68000
14.16970	4495.09000
14.18720	4637.79000
14.20470	4222.20000
14.22220	3622.27000
14.23970	3214.30000
14.25720	3046.06000
14.27470	2993.05000
14.29220	2998.71000
14.30970	3067.06000
14.32720	3173.35000
14.34470	3240.91000
14.36220	3220.80000
14.37970	3164.57000
14.39720	3175.44000
14.41470	3321.24000
14.43220	3649.69000
14.44970	4136.71000
14.46720	4532.46000
14.48470	4581.23000
14.50220	4405.24000
14.51970	4277.17000
14.53720	4228.38000
14.55470	4192.86000
14.57220	4178.29000
14.58970	4162.75000
14.60720	4089.41000
14.62470	3988.83000
14.64220	3905.02000
14.65970	3804.24000
14.67720	3627.18000
14.69470	3399.11000
14.71220	3174.86000
14.72970	2966.70000
14.74720	2783.26000
14.76470	2657.56000
14.78220	2612.95000
14.79970	2633.36000
14.81720	2723.09000
14.83470	2916.91000
14.85220	3192.91000
14.86970	3437.22000
14.88720	3592.47000
14.90470	3727.14000
14.92220	3913.16000
14.93970	4260.16000
14.95720	4918.27000
14.97470	5636.16000
14.99220	5698.67000
15.00970	4890.70000
15.02720	3816.53000
15.04470	3022.56000
15.06220	2589.02000
15.07970	2381.31000
15.09720	2285.16000
15.11470	2243.62000
15.13220	2231.82000
15.14970	2245.72000
15.16720	2284.30000
15.18470	2330.00000
15.20220	2353.60000
15.21970	2347.48000
15.23720	2324.75000
15.25470	2298.73000
15.27220	2279.37000
15.28970	2265.20000
15.30720	2251.36000
15.32470	2239.76000
15.34220	2246.30000
15.35970	2296.12000
15.37720	2432.47000
15.39470	2723.04000
15.41220	3197.72000
15.42970	3697.98000
15.44720	3940.84000
15.46470	3830.08000
15.48220	3527.23000
15.49970	3230.39000
15.51720	3048.79000
15.53470	2991.15000
15.55220	3006.93000
15.56970	3030.01000
15.58720	3044.70000
15.60470	3080.29000
15.62220	3148.14000
15.63970	3219.23000
15.65720	3246.55000
15.67470	3210.40000
15.69220	3153.40000
15.70970	3110.16000
15.72720	3038.87000
15.74470	2890.66000
15.76220	2701.94000
15.77970	2574.83000
15.79720	2572.07000
15.81470	2676.94000
15.83220	2797.38000
15.84970	2841.91000
15.86720	2772.47000
15.88470	2621.99000
15.90220	2481.64000
15.91970	2445.66000
15.93720	2539.82000
15.95470	2747.96000
15.97220	3041.40000
15.98970	3362.95000
16.00720	3612.94000
16.02470	3723.28000
16.04220	3692.87000
16.05970	3553.33000
16.07720	3374.91000
16.09470	3197.52000
16.11220	2990.49000
16.12970	2748.67000
16.14720	2542.38000
16.16470	2430.64000
16.18220	2402.29000
16.19970	2401.89000
16.21720	2390.81000
16.23470	2361.28000
16.25220	2325.19000
16.26970	2286.27000
16.28720	2245.74000
16.30470	2208.52000
16.32220	2179.52000
16.33970	2167.53000
16.35720	2188.40000
16.37470	2245.10000
16.39220	2314.23000
16.40970	2380.20000
16.42720	2485.76000
16.44470	2690.60000
16.46220	2978.07000
16.47970	3271.23000
16.49720	3507.09000
16.51470	3649.93000
16.53220	3647.62000
16.54970	3521.91000
16.56720	3416.26000
16.58470	3439.63000
16.60220	3538.88000
16.61970	3601.19000
16.63720	3586.49000
16.65470	3486.82000
16.67220	3258.06000
16.68970	2912.30000
16.70720	2573.21000
16.72470	2336.58000
16.74220	2207.36000
16.75970	2149.10000
16.77720	2129.71000
16.79470	2127.00000
16.81220	2124.14000
16.82970	2117.56000
16.84720	2117.46000
16.86470	2145.70000
16.88220	2241.33000
16.89970	2458.75000
16.91720	2776.68000
16.93470	3002.63000
16.95220	2942.95000
16.96970	2689.55000
16.98720	2461.76000
17.00470	2342.95000
17.02220	2305.63000
17.03970	2328.56000
17.05720	2397.65000
17.07470	2488.65000
17.09220	2601.62000
17.10970	2743.84000
17.12720	2873.32000
17.14470	2916.08000
17.16220	2834.71000
17.17970	2694.41000
17.19720	2603.08000
17.21470	2614.17000
17.23220	2697.79000
17.24970	2798.24000
17.26720	2900.84000
17.28470	3017.02000
17.30220	3118.45000
17.31970	3141.75000
17.33720	3043.83000
17.35470	2842.92000
17.37220	2615.60000
17.38970	2450.57000
17.40720	2386.74000
17.42470	2449.10000
17.44220	2665.05000
17.45970	3053.07000
17.47720	3651.74000
17.49470	4557.25000
17.51220	5648.79000
17.52970	6374.21000
17.54720	6319.59000
17.56470	5717.80000
17.58220	4989.01000
17.59970	4428.84000
17.61720	4087.88000
17.63470	3825.81000
17.65220	3542.90000
17.66970	3284.54000
17.68720	3125.60000
17.70470	3077.50000
17.72220	3075.40000
17.73970	3039.85000
17.75720	2940.02000
17.77470	2789.82000
17.79220	2619.40000
17.80970	2470.57000
17.82720	2363.95000
17.84470	2286.38000
17.86220	2234.77000
17.87970	2207.80000
17.89720	2197.76000
17.91470	2186.31000
17.93220	2162.67000
17.94970	2130.79000
17.96720	2105.93000
17.98470	2096.72000
18.00220	2104.75000
18.01970	2129.24000
18.03720	2176.42000
18.05470	2245.56000
18.07220	2316.61000
18.08970	2368.81000
18.10720	2424.18000
18.12470	2535.04000
18.14220	2746.71000
18.15970	3039.66000
18.17720	3301.82000
18.19470	3448.84000
18.21220	3569.03000
18.22970	3722.56000
18.24720	3735.90000
18.26470	3444.55000
18.28220	2967.10000
18.29970	2559.25000
18.31720	2332.91000
18.33470	2258.53000
18.35220	2260.07000
18.36970	2269.15000
18.38720	2250.01000
18.40470	2201.15000
18.42220	2146.17000
18.43970	2128.67000
18.45720	2188.94000
18.47470	2331.64000
18.49220	2477.33000
18.50970	2518.31000
18.52720	2432.62000
18.54470	2296.35000
18.56220	2186.44000
18.57970	2140.88000
18.59720	2152.90000
18.61470	2209.74000
18.63220	2316.95000
18.64970	2477.87000
18.66720	2634.72000
18.68470	2680.17000
18.70220	2564.40000
18.71970	2360.20000
18.73720	2181.94000
18.75470	2081.45000
18.77220	2053.39000
18.78970	2077.09000
18.80720	2126.18000
18.82470	2182.63000
18.84220	2239.98000
18.85970	2286.34000
18.87720	2328.88000
18.89470	2399.96000
18.91220	2534.49000
18.92970	2724.50000
18.94720	2915.79000
18.96470	3045.64000
18.98220	3192.97000
18.99970	3558.02000
19.01720	4117.95000
19.03470	4423.40000
19.05220	4121.62000
19.06970	3397.91000
19.08720	2698.97000
19.10470	2246.36000
19.12220	2024.40000
19.13970	1939.17000
19.15720	1921.07000
19.17470	1931.58000
19.19220	1945.55000
19.20970	1955.89000
19.22720	1970.16000
19.24470	2008.45000
19.26220	2099.10000
19.27970	2263.88000
19.29720	2467.25000
19.31470	2609.83000
19.33220	2624.15000
19.34970	2538.16000
19.36720	2430.07000
19.38470	2347.74000
19.40220	2305.32000
19.41970	2295.96000
19.43720	2329.85000
19.45470	2442.65000
19.47220	2646.13000
19.48970	2893.43000
19.50720	3101.07000
19.52470	3190.70000
19.54220	3149.89000
19.55970	3026.42000
19.57720	2876.47000
19.59470	2712.65000
19.61220	2537.13000
19.62970	2389.03000
19.64720	2318.23000
19.66470	2325.98000
19.68220	2354.98000
19.69970	2356.04000
19.71720	2331.21000
19.73470	2301.25000
19.75220	2276.11000
19.76970	2254.62000
19.78720	2222.65000
19.80470	2164.80000
19.82220	2090.12000
19.83970	2029.39000
19.85720	2005.90000
19.87470	2018.22000
19.89220	2062.48000
19.90970	2157.05000
19.92720	2357.52000
19.94470	2705.09000
19.96220	3111.50000
19.97970	3350.89000
19.99720	3295.31000
20.01470	3040.03000
20.03220	2753.94000
20.04970	2515.60000
20.06720	2327.38000
20.08470	2206.84000
20.10220	2203.18000
20.11970	2346.62000
20.13720	2593.42000
20.15470	2821.09000
20.17220	2918.17000
20.18970	2872.57000
20.20720	2756.25000
20.22470	2618.87000
20.24220	2453.02000
20.25970	2259.12000
20.27720	2072.77000
20.29470	1933.59000
20.31220	1847.21000
20.32970	1797.40000
20.34720	1766.90000
20.36470	1746.71000
20.38220	1733.65000
20.39970	1728.09000
20.41720	1735.10000
20.43470	1760.44000
20.45220	1807.30000
20.46970	1855.40000
20.48720	1875.61000
20.50470	1871.12000
20.52220	1882.60000
20.53970	1951.98000
20.55720	2083.39000
20.57470	2209.34000
20.59220	2236.57000
20.60970	2169.54000
20.62720	2083.44000
20.64470	2018.29000
20.66220	1985.53000
20.67970	1995.11000
20.69720	2043.09000
20.71470	2099.38000
20.73220	2132.95000
20.74970	2144.86000
20.76720	2158.49000
20.78470	2185.18000
20.80220	2220.75000
20.81970	2254.50000
20.83720	2272.67000
20.85470	2276.08000
20.87220	2279.11000
20.88970	2297.65000
20.90720	2346.23000
20.92470	2427.38000
20.94220	2499.65000
20.95970	2487.11000
20.97720	2352.71000
20.99470	2164.23000
21.01220	2023.93000
21.02970	1968.41000
21.04720	1984.60000
21.06470	2038.40000
21.08220	2079.47000
21.09970	2077.06000
21.11720	2043.47000
21.13470	2000.02000
21.15220	1951.09000
21.16970	1900.79000
21.18720	1865.49000
21.20470	1850.60000
21.22220	1859.10000
21.23970	1906.15000
21.25720	2013.06000
21.27470	2191.10000
21.29220	2394.79000
21.30970	2517.02000
21.32720	2504.18000
21.34470	2437.55000
21.36220	2406.97000
21.37970	2412.93000
21.39720	2402.48000
21.41470	2344.84000
21.43220	2274.70000
21.44970	2259.64000
21.46720	2322.48000
21.48470	2433.04000
21.50220	2540.34000
21.51970	2588.90000
21.53720	2544.96000
21.55470	2430.68000
21.57220	2307.43000
21.58970	2225.46000
21.60720	2205.91000
21.62470	2242.80000
21.64220	2295.83000
21.65970	2317.73000
21.67720	2280.22000
21.69470	2180.80000
21.71220	2050.88000
21.72970	1946.83000
21.74720	1910.53000
21.76470	1945.74000
21.78220	2015.59000
21.79970	2054.45000
21.81720	2022.58000
21.83470	1948.55000
21.85220	1883.00000
21.86970	1838.55000
21.88720	1798.92000
21.90470	1759.36000
21.92220	1730.32000
21.93970	1725.73000
21.95720	1749.99000
21.97470	1800.55000
21.99220	1866.36000
22.00970	1914.90000
22.02720	1916.50000
22.04470	1881.15000
22.06220	1848.73000
22.07970	1855.32000
22.09720	1928.67000
22.11470	2062.34000
22.13220	2191.62000
22.14970	2256.65000
22.16720	2257.94000
22.18470	2228.77000
22.20220	2196.04000
22.21970	2175.09000
22.23720	2168.90000
22.25470	2169.80000
22.27220	2165.30000
22.28970	2143.44000
22.30720	2100.26000
22.32470	2050.04000
22.34220	2007.64000
22.35970	1972.79000
22.37720	1936.36000
22.39470	1892.37000
22.41220	1842.11000
22.42970	1799.72000
22.44720	1777.21000
22.46470	1774.24000
22.48220	1785.74000
22.49970	1806.67000
22.51720	1830.81000
22.53470	1839.20000
22.55220	1816.71000
22.56970	1761.52000
22.58720	1694.24000
22.60470	1640.24000
22.62220	1604.65000
22.63970	1584.29000
22.65720	1575.52000
22.67470	1576.27000
22.69220	1581.72000
22.70970	1588.34000
22.72720	1597.16000
22.74470	1610.27000
22.76220	1627.18000
22.77970	1639.28000
22.79720	1636.93000
22.81470	1623.47000
22.83220	1608.37000
22.84970	1598.88000
22.86720	1598.51000
22.88470	1606.96000
22.90220	1624.28000
22.91970	1648.84000
22.93720	1675.96000
22.95470	1707.15000
22.97220	1743.61000
22.98970	1777.83000
23.00720	1796.88000
23.02470	1800.62000
23.04220	1799.82000
23.05970	1797.55000
23.07720	1790.41000
23.09470	1779.54000
23.11220	1775.41000
23.12970	1790.42000
23.14720	1836.00000
23.16470	1906.29000
23.18220	1969.13000
23.19970	1988.11000
23.21720	1970.10000
23.23470	1956.87000
23.25220	1968.97000
23.26970	1995.77000
23.28720	2003.51000
23.30470	1963.38000
23.32220	1881.23000
23.33970	1793.90000
23.35720	1734.82000
23.37470	1714.18000
23.39220	1728.73000
23.40970	1770.17000
23.42720	1824.78000
23.44470	1878.40000
23.46220	1926.61000
23.47970	1986.16000
23.49720	2062.56000
23.51470	2133.35000
23.53220	2177.07000
23.54970	2195.25000
23.56720	2191.86000
23.58470	2168.51000
23.60220	2132.59000
23.61970	2097.29000
23.63720	2069.38000
23.65470	2053.09000
23.67220	2052.87000
23.68970	2058.19000
23.70720	2044.05000
23.72470	2003.25000
23.74220	1952.39000
23.75970	1916.45000
23.77720	1905.54000
23.79470	1916.52000
23.81220	1923.86000
23.82970	1905.59000
23.84720	1866.53000
23.86470	1825.43000
23.88220	1794.64000
23.89970	1775.23000
23.91720	1765.61000
23.93470	1763.37000
23.95220	1770.60000
23.96970	1805.17000
23.98720	1899.12000
24.00470	2084.31000
24.02220	2351.85000
24.03970	2599.61000
24.05720	2689.06000
24.07470	2585.81000
24.09220	2378.57000
24.10970	2171.10000
24.12720	2020.20000
24.14470	1936.92000
24.16220	1894.12000
24.17970	1852.73000
24.19720	1796.18000
24.21470	1736.47000
24.23220	1688.61000
24.24970	1662.04000
24.26720	1652.93000
24.28470	1657.64000
24.30220	1675.58000
24.31970	1708.71000
24.33720	1754.86000
24.35470	1813.00000
24.37220	1889.80000
24.38970	1988.46000
24.40720	2083.87000
24.42470	2138.32000
24.44220	2137.67000
24.45970	2096.72000
24.47720	2033.88000
24.49470	1968.21000
24.51220	1911.48000
24.52970	1864.07000
24.54720	1820.97000
24.56470	1781.58000
24.58220	1748.91000
24.59970	1729.44000
24.61720	1730.52000
24.63470	1759.04000
24.65220	1822.55000
24.66970	1915.71000
24.68720	1999.66000
24.70470	2030.24000
24.72220	2013.38000
24.73970	1997.57000
24.75720	2027.55000
24.77470	2109.09000
24.79220	2198.71000
24.80970	2225.02000
24.82720	2165.24000
24.84470	2082.76000
24.86220	2054.16000
24.87970	2070.63000
24.89720	2064.83000
24.91470	2011.56000
24.93220	1955.03000
24.94970	1924.81000
24.96720	1907.64000
24.98470	1890.30000
25.00220	1881.33000
25.01970	1887.74000
25.03720	1902.22000
25.05470	1908.78000
25.07220	1891.85000
25.08970	1851.81000
25.10720	1801.75000
25.12470	1752.71000
25.14220	1711.86000
25.15970	1682.95000
25.17720	1668.36000
25.19470	1667.46000
25.21220	1680.24000
25.22970	1708.55000
25.24720	1751.94000
25.26470	1809.17000
25.28220	1876.16000
25.29970	1953.49000
25.31720	2053.37000
25.33470	2179.91000
25.35220	2292.92000
25.36970	2336.12000
25.38720	2318.77000
25.40470	2309.67000
25.42220	2355.58000
25.43970	2437.89000
25.45720	2520.36000
25.47470	2576.99000
25.49220	2584.34000
25.50970	2520.86000
25.52720	2401.75000
25.54470	2270.06000
25.56220	2159.28000
25.57970	2073.95000
25.59720	2001.34000
25.61470	1932.87000
25.63220	1869.34000
25.64970	1811.48000
25.66720	1763.06000
25.68470	1727.97000
25.70220	1704.76000
25.71970	1694.63000
25.73720	1711.46000
25.75470	1764.24000
25.77220	1842.44000
25.78970	1921.73000
25.80720	1988.19000
25.82470	2025.60000
25.84220	2019.17000
25.85970	1976.62000
25.87720	1917.24000
25.89470	1857.12000
25.91220	1809.96000
25.92970	1792.22000
25.94720	1822.76000
25.96470	1910.00000
25.98220	2025.04000
25.99970	2096.16000
26.01720	2072.99000
26.03470	1970.64000
26.05220	1843.05000
26.06970	1739.00000
26.08720	1680.05000
26.10470	1663.21000
26.12220	1668.85000
26.13970	1675.63000
26.15720	1679.47000
26.17470	1689.60000
26.19220	1718.24000
26.20970	1779.84000
26.22720	1878.51000
26.24470	1993.00000
26.26220	2081.79000
26.27970	2114.14000
26.29720	2092.47000
26.31470	2043.41000
26.33220	1985.44000
26.34970	1921.35000
26.36720	1853.33000
26.38470	1791.36000
26.40220	1746.18000
26.41970	1722.29000
26.43720	1713.82000
26.45470	1714.31000
26.47220	1719.92000
26.48970	1730.08000
26.50720	1749.27000
26.52470	1776.94000
26.54220	1804.13000
26.55970	1815.73000
26.57720	1807.19000
26.59470	1786.12000
26.61220	1761.53000
26.62970	1740.11000
26.64720	1724.71000
26.66470	1716.92000
26.68220	1718.19000
26.69970	1729.87000
26.71720	1748.47000
26.73470	1768.65000
26.75220	1777.25000
26.76970	1773.98000
26.78720	1770.92000
26.80470	1779.07000
26.82220	1796.63000
26.83970	1815.34000
26.85720	1827.94000
26.87470	1833.75000
26.89220	1840.28000
26.90970	1850.79000
26.92720	1865.91000
26.94470	1880.30000
26.96220	1884.86000
26.97970	1871.20000
26.99720	1844.77000
27.01470	1818.21000
27.03220	1798.36000
27.04970	1788.27000
27.06720	1798.45000
27.08470	1838.39000
27.10220	1906.27000
27.11970	1974.80000
27.13720	2004.78000
27.15470	1974.95000
27.17220	1896.08000
27.18970	1803.60000
27.20720	1733.79000
27.22470	1704.02000
27.24220	1714.94000
27.25970	1754.52000
27.27720	1805.47000
27.29470	1847.74000
27.31220	1866.76000
27.32970	1857.18000
27.34720	1824.36000
27.36470	1782.12000
27.38220	1743.48000
27.39970	1714.74000
27.41720	1697.11000
27.43470	1691.05000
27.45220	1692.04000
27.46970	1696.11000
27.48720	1699.85000
27.50470	1700.53000
27.52220	1700.77000
27.53970	1705.45000
27.55720	1707.88000
27.57470	1703.47000
27.59220	1696.17000
27.60970	1695.97000
27.62720	1709.86000
27.64470	1743.86000
27.66220	1796.40000
27.67970	1854.08000
27.69720	1903.40000
27.71470	1939.47000
27.73220	1960.19000
27.74970	1970.00000
27.76720	1979.25000
27.78470	1995.68000
27.80220	2010.13000
27.81970	2009.00000
27.83720	1994.05000
27.85470	1983.70000
27.87220	1990.90000
27.88970	2014.36000
27.90720	2042.52000
27.92470	2061.35000
27.94220	2062.93000
27.95970	2045.67000
27.97720	2020.04000
27.99470	1997.01000
28.01220	1970.92000
28.02970	1931.84000
28.04720	1883.60000
28.06470	1840.12000
28.08220	1808.31000
28.09970	1785.32000
28.11720	1774.78000
28.13470	1783.13000
28.15220	1809.23000
28.16970	1836.69000
28.18720	1859.04000
28.20470	1872.68000
28.22220	1873.95000
28.23970	1857.79000
28.25720	1827.15000
28.27470	1791.60000
28.29220	1763.22000
28.30970	1752.70000
28.32720	1757.87000
28.34470	1769.38000
28.36220	1780.84000
28.37970	1791.08000
28.39720	1801.47000
28.41470	1816.73000
28.43220	1834.92000
28.44970	1845.96000
28.46720	1844.75000
28.48470	1835.02000
28.50220	1821.36000
28.51970	1804.97000
28.53720	1791.47000
28.55470	1791.09000
28.57220	1810.15000
28.58970	1841.88000
28.60720	1872.32000
28.62470	1884.55000
28.64220	1876.23000
28.65970	1850.89000
28.67720	1818.02000
28.69470	1791.03000
28.71220	1776.51000
28.72970	1775.97000
28.74720	1783.58000
28.76470	1791.69000
28.78220	1791.50000
28.79970	1777.12000
28.81720	1748.15000
28.83470	1712.13000
28.85220	1680.24000
28.86970	1659.00000
28.88720	1648.55000
28.90470	1644.28000
28.92220	1646.01000
28.93970	1656.35000
28.95720	1675.61000
28.97470	1702.42000
28.99220	1721.47000
29.00970	1711.95000
29.02720	1680.02000
29.04470	1648.57000
29.06220	1631.80000
29.07970	1633.09000
29.09720	1651.57000
29.11470	1683.22000
29.13220	1714.86000
29.14970	1724.38000
29.16720	1703.32000
29.18470	1669.04000
29.20220	1643.89000
29.21970	1639.56000
29.23720	1657.54000
29.25470	1694.33000
29.27220	1744.56000
29.28970	1791.29000
29.30720	1813.86000
29.32470	1807.04000
29.34220	1787.85000
29.35970	1779.29000
29.37720	1793.06000
29.39470	1822.24000
29.41220	1854.30000
29.42970	1875.06000
29.44720	1876.70000
29.46470	1860.74000
29.48220	1838.29000
29.49970	1819.92000
29.51720	1807.25000
29.53470	1797.49000
29.55220	1788.30000
29.56970	1776.74000
29.58720	1760.64000
29.60470	1739.85000
29.62220	1717.22000
29.63970	1699.49000
29.65720	1687.25000
29.67470	1676.14000
29.69220	1667.12000
29.70970	1661.67000
29.72720	1656.42000
29.74470	1654.60000
29.76220	1654.77000
29.77970	1660.33000
29.79720	1673.89000
29.81470	1688.46000
29.83220	1694.60000
29.84970	1689.97000
29.86720	1679.37000
29.88470	1666.57000
29.90220	1655.92000
29.91970	1653.00000
29.93720	1658.83000
29.95470	1665.91000
29.97220	1663.65000
29.98970	1654.78000
30.00720	1643.20000
30.02470	1631.49000
30.04220	1619.82000
30.05970	1612.25000
30.07720	1615.64000
30.09470	1631.28000
30.11220	1648.05000
30.12970	1655.63000
30.14720	1654.99000
30.16470	1655.40000
30.18220	1658.70000
30.19970	1665.22000
30.21720	1677.35000
30.23470	1693.42000
30.25220	1712.79000
30.26970	1729.41000
30.28720	1733.88000
30.30470	1724.76000
30.32220	1705.08000
30.33970	1686.13000
30.35720	1676.00000
30.37470	1684.98000
30.39220	1718.67000
30.40970	1759.14000
30.42720	1777.51000
30.44470	1758.58000
30.46220	1716.98000
30.47970	1668.17000
30.49720	1626.50000
30.51470	1596.02000
30.53220	1577.01000
30.54970	1566.93000
30.56720	1567.43000
30.58470	1577.20000
30.60220	1591.13000
30.61970	1602.47000
30.63720	1608.82000
30.65470	1612.29000
30.67220	1616.20000
30.68970	1623.66000
30.70720	1629.78000
30.72470	1632.35000
30.74220	1632.35000
30.75970	1633.16000
30.77720	1642.99000
30.79470	1661.12000
30.81220	1670.84000
30.82970	1663.55000
30.84720	1641.36000
30.86470	1612.29000
30.88220	1582.52000
30.89970	1552.90000
30.91720	1529.25000
30.93470	1514.28000
30.95220	1508.39000
30.96970	1508.43000
30.98720	1516.58000
31.00470	1528.24000
31.02220	1539.69000
31.03970	1549.91000
31.05720	1557.02000
31.07470	1560.66000
31.09220	1562.15000
31.10970	1560.65000
31.12720	1558.34000
31.14470	1557.94000
31.16220	1563.06000
31.17970	1570.87000
31.19720	1574.32000
31.21470	1572.53000
31.23220	1566.63000
31.24970	1557.87000
31.26720	1552.46000
31.28470	1551.37000
31.30220	1554.23000
31.31970	1565.33000
31.33720	1579.09000
31.35470	1594.08000
31.37220	1604.30000
31.38970	1613.83000
31.40720	1625.59000
31.42470	1638.25000
31.44220	1647.97000
31.45970	1650.18000
31.47720	1646.67000
31.49470	1640.60000
31.51220	1637.21000
31.52970	1636.28000
31.54720	1634.00000
31.56470	1621.80000
31.58220	1602.68000
31.59970	1583.55000
31.61720	1575.83000
31.63470	1582.56000
31.65220	1597.93000
31.66970	1611.41000
31.68720	1610.27000
31.70470	1599.40000
31.72220	1582.45000
31.73970	1569.49000
31.75720	1563.16000
31.77470	1558.45000
31.79220	1557.47000
31.80970	1559.70000
31.82720	1564.10000
31.84470	1567.09000
31.86220	1567.20000
31.87970	1565.97000
31.89720	1564.56000
31.91470	1561.62000
31.93220	1555.07000
31.94970	1549.20000
31.96720	1548.62000
31.98470	1558.65000
32.00220	1572.73000
32.01970	1586.16000
32.03720	1589.47000
32.05470	1581.11000
32.07220	1564.98000
32.08970	1545.55000
32.10720	1527.29000
32.12470	1514.29000
32.14220	1506.04000
32.15970	1500.19000
32.17720	1497.86000
32.19470	1495.20000
32.21220	1496.51000
32.22970	1506.49000
32.24720	1518.92000
32.26470	1531.56000
32.28220	1536.81000
32.29970	1540.27000
32.31720	1546.33000
32.33470	1562.23000
32.35220	1581.60000
32.36970	1598.02000
32.38720	1605.96000
32.40470	1604.04000
32.42220	1592.17000
32.43970	1574.12000
32.45720	1561.78000
32.47470	1552.89000
32.49220	1547.88000
32.50970	1546.39000
32.52720	1548.93000
32.54470	1559.23000
32.56220	1584.22000
32.57970	1621.60000
32.59720	1659.13000
32.61470	1677.69000
32.63220	1676.83000
32.64970	1662.47000
32.66720	1641.58000
32.68470	1616.29000
32.70220	1590.90000
32.71970	1565.79000
32.73720	1548.39000
32.75470	1537.36000
32.77220	1531.37000
32.78970	1529.54000
32.80720	1529.41000
32.82470	1533.44000
32.84220	1538.68000
32.85970	1543.79000
32.87720	1548.25000
32.89470	1552.27000
32.91220	1551.63000
32.92970	1545.92000
32.94720	1536.79000
32.96470	1525.66000
32.98220	1517.42000
32.99970	1511.17000
33.01720	1501.59000
33.03470	1493.75000
33.05220	1490.56000
33.06970	1488.79000
33.08720	1490.46000
33.10470	1499.68000
33.12220	1514.92000
33.13970	1535.56000
33.15720	1557.79000
33.17470	1574.55000
33.19220	1588.59000
33.20970	1600.50000
33.22720	1609.76000
33.24470	1618.65000
33.26220	1632.02000
33.27970	1656.42000
33.29720	1696.41000
33.31470	1740.59000
33.33220	1776.62000
33.34970	1785.27000
33.36720	1770.01000
33.38470	1736.42000
33.40220	1694.56000
33.41970	1659.38000
33.43720	1630.73000
33.45470	1615.32000
33.47220	1613.23000
33.48970	1610.07000
33.50720	1594.89000
33.52470	1567.61000
33.54220	1534.63000
33.55970	1507.55000
33.57720	1486.89000
33.59470	1476.20000
33.61220	1475.16000
33.62970	1473.27000
33.64720	1473.46000
33.66470	1476.44000
33.68220	1479.02000
33.69970	1477.20000
33.71720	1480.61000
33.73470	1479.67000
33.75220	1474.88000
33.76970	1472.86000
33.78720	1474.49000
33.80470	1476.63000
33.82220	1481.33000
33.83970	1487.36000
33.85720	1498.55000
33.87470	1512.21000
33.89220	1521.81000
33.90970	1522.76000
33.92720	1511.15000
33.94470	1495.60000
33.96220	1486.07000
33.97970	1474.13000
33.99720	1467.66000
34.01470	1467.39000
34.03220	1469.95000
34.04970	1471.65000
34.06720	1470.60000
34.08470	1468.85000
34.10220	1474.45000
34.11970	1480.84000
34.13720	1485.87000
34.15470	1491.71000
34.17220	1495.77000
34.18970	1499.70000
34.20720	1510.48000
34.22470	1523.46000
34.24220	1535.86000
34.25970	1549.89000
34.27720	1563.44000
34.29470	1569.86000
34.31220	1574.72000
34.32970	1569.35000
34.34720	1557.93000
34.36470	1535.46000
34.38220	1504.03000
34.39970	1468.25000
34.41720	1434.89000
34.43470	1410.24000
34.45220	1392.12000
34.46970	1385.25000
34.48720	1382.58000
34.50470	1386.16000
34.52220	1390.57000
34.53970	1394.70000
34.55720	1406.36000
34.57470	1420.51000
34.59220	1437.76000
34.60970	1460.27000
34.62720	1485.23000
34.64470	1513.97000
34.66220	1529.55000
34.67970	1541.05000
34.69720	1543.98000
34.71470	1537.67000
34.73220	1524.24000
34.74970	1512.63000
34.76720	1499.80000
34.78470	1493.57000
34.80220	1496.33000
34.81970	1513.01000
34.83720	1534.04000
34.85470	1546.00000
34.87220	1548.93000
34.88970	1544.73000
34.90720	1530.91000
34.92470	1520.71000
34.94220	1510.72000
