3.68000	3069.00000
3.69000	3054.00000
3.70000	3058.00000
3.71000	3048.00000
3.72000	3064.00000
3.73000	3046.00000
3.74000	3066.00000
3.75000	3041.00000
3.76000	3054.00000
3.77000	3076.00000
3.78000	3054.00000
3.79000	3050.00000
3.80000	3093.00000
3.81000	3031.00000
3.82000	3085.00000
3.83000	3087.00000
3.84000	3079.00000
3.85000	3020.00000
3.86000	3059.00000
3.87000	3042.00000
3.88000	3079.00000
3.89000	3069.00000
3.90000	3072.00000
3.91000	3015.00000
3.92000	3050.00000
3.93000	3052.00000
3.94000	3080.00000
3.95000	3069.00000
3.96000	3076.00000
3.97000	3061.00000
3.98000	3078.00000
3.99000	3054.00000
4.00000	3108.00000
4.01000	3079.00000
4.02000	3066.00000
4.03000	3035.00000
4.04000	3078.00000
4.05000	3063.00000
4.06000	3108.00000
4.07000	3066.00000
4.08000	3107.00000
4.09000	3068.00000
4.10000	3110.00000
4.11000	3097.00000
4.12000	3115.00000
4.13000	3096.00000
4.14000	3079.00000
4.15000	3073.00000
4.16000	3131.00000
4.17000	3106.00000
4.18000	3164.00000
4.19000	3165.00000
4.20000	3194.00000
4.21000	3150.00000
4.22000	3194.00000
4.23000	3262.00000
4.24000	3326.00000
4.25000	3380.00000
4.26000	3388.00000
4.27000	3316.00000
4.28000	3245.00000
4.29000	3181.00000
4.30000	3182.00000
4.31000	3173.00000
4.32000	3151.00000
4.33000	3137.00000
4.34000	3147.00000
4.35000	3147.00000
4.36000	3179.00000
4.37000	3156.00000
4.38000	3171.00000
4.39000	3108.00000
4.40000	3160.00000
4.41000	3152.00000
4.42000	3170.00000
4.43000	3151.00000
4.44000	3182.00000
4.45000	3169.00000
4.46000	3209.00000
4.47000	3202.00000
4.48000	3205.00000
4.49000	3231.00000
4.50000	3225.00000
4.51000	3235.00000
4.52000	3216.00000
4.53000	3235.00000
4.54000	3275.00000
4.55000	3267.00000
4.56000	3272.00000
4.57000	3240.00000
4.58000	3276.00000
4.59000	3330.00000
4.60000	3350.00000
4.61000	3333.00000
4.62000	3384.00000
4.63000	3378.00000
4.64000	3419.00000
4.65000	3468.00000
4.66000	3532.00000
4.67000	3595.00000
4.68000	3702.00000
4.69000	3787.00000
4.70000	3967.00000
4.71000	4304.00000
4.72000	4824.00000
4.73000	5759.00000
4.74000	7168.00000
4.75000	9024.00000
4.76000	11470.00000
4.77000	13899.00000
4.78000	14770.00000
4.79000	12654.00000
4.80000	9122.00000
4.81000	6530.00000
4.82000	5005.00000
4.83000	4281.00000
4.84000	3932.00000
4.85000	3743.00000
4.86000	3653.00000
4.87000	3571.00000
4.88000	3544.00000
4.89000	3527.00000
4.90000	3494.00000
4.91000	3490.00000
4.92000	3503.00000
4.93000	3502.00000
4.94000	3575.00000
4.95000	3537.00000
4.96000	3647.00000
4.97000	3718.00000
4.98000	3861.00000
4.99000	3976.00000
5.00000	4319.00000
5.01000	4681.00000
5.02000	5114.00000
5.03000	5324.00000
5.04000	5483.00000
5.05000	5835.00000
5.06000	6157.00000
5.07000	5954.00000
5.08000	5209.00000
5.09000	4441.00000
5.10000	3990.00000
5.11000	3777.00000
5.12000	3680.00000
5.13000	3627.00000
5.14000	3619.00000
5.15000	3622.00000
5.16000	3557.00000
5.17000	3531.00000
5.18000	3559.00000
5.19000	3592.00000
5.20000	3618.00000
5.21000	3670.00000
5.22000	3662.00000
5.23000	3714.00000
5.24000	3845.00000
5.25000	3863.00000
5.26000	3827.00000
5.27000	3741.00000
5.28000	3645.00000
5.29000	3579.00000
5.30000	3596.00000
5.31000	3580.00000
5.32000	3599.00000
5.33000	3582.00000
5.34000	3611.00000
5.35000	3568.00000
5.36000	3588.00000
5.37000	3622.00000
5.38000	3643.00000
5.39000	3629.00000
5.40000	3620.00000
5.41000	3570.00000
5.42000	3654.00000
5.43000	3643.00000
5.44000	3642.00000
5.45000	3617.00000
5.46000	3630.00000
5.47000	3616.00000
5.48000	3675.00000
5.49000	3653.00000
5.50000	3708.00000
5.51000	3686.00000
5.52000	3694.00000
5.53000	3667.00000
5.54000	3727.00000
5.55000	3709.00000
5.56000	3777.00000
5.57000	3755.00000
5.58000	3767.00000
5.59000	3756.00000
5.60000	3831.00000
5.61000	3846.00000
5.62000	3863.00000
5.63000	3867.00000
5.64000	3878.00000
5.65000	3910.00000
5.66000	3957.00000
5.67000	3978.00000
5.68000	4053.00000
5.69000	4033.00000
5.70000	4048.00000
5.71000	4066.00000
5.72000	4089.00000
5.73000	4126.00000
5.74000	4188.00000
5.75000	4275.00000
5.76000	4308.00000
5.77000	4347.00000
5.78000	4518.00000
5.79000	4464.00000
5.80000	4648.00000
5.81000	4759.00000
5.82000	4876.00000
5.83000	4990.00000
5.84000	5125.00000
5.85000	5338.00000
5.86000	5529.00000
5.87000	5696.00000
5.88000	5919.00000
5.89000	6149.00000
5.90000	6497.00000
5.91000	6714.00000
5.92000	7169.00000
5.93000	7509.00000
5.94000	8007.00000
5.95000	8464.00000
5.96000	9358.00000
5.97000	10362.00000
5.98000	12045.00000
5.99000	14790.00000
6.00000	19413.00000
6.01000	26937.00000
6.02000	39576.00000
6.03000	55532.00000
6.04000	71385.00000
6.05000	71298.00000
6.06000	54091.00000
6.07000	36110.00000
6.08000	26498.00000
6.09000	23862.00000
6.10000	26281.00000
6.11000	31884.00000
6.12000	38359.00000
6.13000	40438.00000
6.14000	33782.00000
6.15000	22920.00000
6.16000	15353.00000
6.17000	11378.00000
6.18000	9127.00000
6.19000	7818.00000
6.20000	6974.00000
6.21000	6336.00000
6.22000	5948.00000
6.23000	5638.00000
6.24000	5396.00000
6.25000	5106.00000
6.26000	4929.00000
6.27000	4688.00000
6.28000	4597.00000
6.29000	4468.00000
6.30000	4398.00000
6.31000	4262.00000
6.32000	4193.00000
6.33000	4201.00000
6.34000	4225.00000
6.35000	4171.00000
6.36000	4163.00000
6.37000	4171.00000
6.38000	4189.00000
6.39000	4180.00000
6.40000	4341.00000
6.41000	4485.00000
6.42000	4759.00000
6.43000	5249.00000
6.44000	5849.00000
6.45000	6185.00000
6.46000	5754.00000
6.47000	4975.00000
6.48000	4372.00000
6.49000	4054.00000
6.50000	3984.00000
6.51000	3947.00000
6.52000	3971.00000
6.53000	3986.00000
6.54000	3969.00000
6.55000	4085.00000
6.56000	4300.00000
6.57000	4521.00000
6.58000	4698.00000
6.59000	4631.00000
6.60000	4448.00000
6.61000	4360.00000
6.62000	4441.00000
6.63000	4565.00000
6.64000	4657.00000
6.65000	4417.00000
6.66000	4112.00000
6.67000	3887.00000
6.68000	3772.00000
6.69000	3705.00000
6.70000	3721.00000
6.71000	3695.00000
6.72000	3711.00000
6.73000	3641.00000
6.74000	3648.00000
6.75000	3644.00000
6.76000	3693.00000
6.77000	3684.00000
6.78000	3726.00000
6.79000	3691.00000
6.80000	3694.00000
6.81000	3627.00000
6.82000	3643.00000
6.83000	3635.00000
6.84000	3631.00000
6.85000	3611.00000
6.86000	3661.00000
6.87000	3648.00000
6.88000	3637.00000
6.89000	3623.00000
6.90000	3685.00000
6.91000	3621.00000
6.92000	3638.00000
6.93000	3666.00000
6.94000	3685.00000
6.95000	3693.00000
6.96000	3736.00000
6.97000	3768.00000
6.98000	3863.00000
6.99000	4043.00000
7.00000	4233.00000
7.01000	4408.00000
7.02000	4359.00000
7.03000	4102.00000
7.04000	3874.00000
7.05000	3732.00000
7.06000	3714.00000
7.07000	3686.00000
7.08000	3677.00000
7.09000	3629.00000
7.10000	3643.00000
7.11000	3660.00000
7.12000	3690.00000
7.13000	3679.00000
7.14000	3654.00000
7.15000	3649.00000
7.16000	3655.00000
7.17000	3695.00000
7.18000	3739.00000
7.19000	3753.00000
7.20000	3811.00000
7.21000	3778.00000
7.22000	3791.00000
7.23000	3794.00000
7.24000	3880.00000
7.25000	3884.00000
7.26000	3920.00000
7.27000	3865.00000
7.28000	4023.00000
7.29000	4186.00000
7.30000	4533.00000
7.31000	4949.00000
7.32000	5247.00000
7.33000	4947.00000
7.34000	4468.00000
7.35000	4122.00000
7.36000	3951.00000
7.37000	3838.00000
7.38000	3825.00000
7.39000	3781.00000
7.40000	3842.00000
7.41000	3792.00000
7.42000	3848.00000
7.43000	3913.00000
7.44000	4006.00000
7.45000	4147.00000
7.46000	4290.00000
7.47000	4421.00000
7.48000	4380.00000
7.49000	4219.00000
7.50000	4136.00000
7.51000	3989.00000
7.52000	4008.00000
7.53000	3968.00000
7.54000	4035.00000
7.55000	4001.00000
7.56000	4026.00000
7.57000	4041.00000
7.58000	4057.00000
7.59000	4042.00000
7.60000	4145.00000
7.61000	4108.00000
7.62000	4184.00000
7.63000	4227.00000
7.64000	4390.00000
7.65000	4580.00000
7.66000	4883.00000
7.67000	5394.00000
7.68000	6137.00000
7.69000	7137.00000
7.70000	8265.00000
7.71000	8611.00000
7.72000	8187.00000
7.73000	7433.00000
7.74000	7297.00000
7.75000	7686.00000
7.76000	8866.00000
7.77000	10364.00000
7.78000	11829.00000
7.79000	11227.00000
7.80000	9117.00000
7.81000	7189.00000
7.82000	6053.00000
7.83000	5481.00000
7.84000	5154.00000
7.85000	4933.00000
7.86000	4807.00000
7.87000	4693.00000
7.88000	4642.00000
7.89000	4559.00000
7.90000	4547.00000
7.91000	4563.00000
7.92000	4639.00000
7.93000	4741.00000
7.94000	4925.00000
7.95000	5169.00000
7.96000	5328.00000
7.97000	5214.00000
7.98000	4938.00000
7.99000	4689.00000
8.00000	4584.00000
8.01000	4557.00000
8.02000	4537.00000
8.03000	4536.00000
8.04000	4557.00000
8.05000	4574.00000
8.06000	4634.00000
8.07000	4679.00000
8.08000	4938.00000
8.09000	5178.00000
8.10000	5692.00000
8.11000	6423.00000
8.12000	7814.00000
8.13000	9432.00000
8.14000	10885.00000
8.15000	10515.00000
8.16000	8423.00000
8.17000	6642.00000
8.18000	5669.00000
8.19000	5217.00000
8.20000	5115.00000
8.21000	5006.00000
8.22000	5022.00000
8.23000	5003.00000
8.24000	5086.00000
8.25000	5097.00000
8.26000	5229.00000
8.27000	5296.00000
8.28000	5424.00000
8.29000	5546.00000
8.30000	5711.00000
8.31000	5836.00000
8.32000	6068.00000
8.33000	6314.00000
8.34000	6604.00000
8.35000	6881.00000
8.36000	7271.00000
8.37000	7654.00000
8.38000	8281.00000
8.39000	8842.00000
8.40000	9569.00000
8.41000	10268.00000
8.42000	11230.00000
8.43000	12250.00000
8.44000	13487.00000
8.45000	14814.00000
8.46000	16584.00000
8.47000	18457.00000
8.48000	21283.00000
8.49000	25048.00000
8.50000	31386.00000
8.51000	40668.00000
8.52000	56035.00000
8.53000	75334.00000
8.54000	93328.00000
8.55000	94710.00000
8.56000	90142.00000
8.57000	94112.00000
8.58000	107177.00000
8.59000	122704.00000
8.60000	157011.00000
8.61000	208612.00000
8.62000	242786.00000
8.63000	196139.00000
8.64000	115593.00000
8.65000	65597.00000
8.66000	40342.00000
8.67000	28044.00000
8.68000	21574.00000
8.69000	17745.00000
8.70000	15362.00000
8.71000	13514.00000
8.72000	12162.00000
8.73000	11014.00000
8.74000	10204.00000
8.75000	9615.00000
8.76000	9399.00000
8.77000	9396.00000
8.78000	9814.00000
8.79000	10090.00000
8.80000	10191.00000
8.81000	10589.00000
8.82000	11927.00000
8.83000	13962.00000
8.84000	15553.00000
8.85000	14549.00000
8.86000	11750.00000
8.87000	8972.00000
8.88000	7131.00000
8.89000	6111.00000
8.90000	5572.00000
8.91000	5203.00000
8.92000	4945.00000
8.93000	4813.00000
8.94000	4832.00000
8.95000	4983.00000
8.96000	5393.00000
8.97000	5863.00000
8.98000	6260.00000
8.99000	5869.00000
9.00000	5272.00000
9.01000	4955.00000
9.02000	4927.00000
9.03000	5190.00000
9.04000	5556.00000
9.05000	5510.00000
9.06000	4984.00000
9.07000	4416.00000
9.08000	4080.00000
9.09000	3879.00000
9.10000	3778.00000
9.11000	3733.00000
9.12000	3667.00000
9.13000	3556.00000
9.14000	3526.00000
9.15000	3481.00000
9.16000	3484.00000
9.17000	3443.00000
9.18000	3450.00000
9.19000	3455.00000
9.20000	3475.00000
9.21000	3395.00000
9.22000	3403.00000
9.23000	3417.00000
9.24000	3384.00000
9.25000	3307.00000
9.26000	3318.00000
9.27000	3328.00000
9.28000	3333.00000
9.29000	3278.00000
9.30000	3296.00000
9.31000	3284.00000
9.32000	3283.00000
9.33000	3290.00000
9.34000	3305.00000
9.35000	3319.00000
9.36000	3307.00000
9.37000	3262.00000
9.38000	3312.00000
9.39000	3261.00000
9.40000	3265.00000
9.41000	3253.00000
9.42000	3306.00000
9.43000	3296.00000
9.44000	3357.00000
9.45000	3434.00000
9.46000	3504.00000
9.47000	3562.00000
9.48000	3486.00000
9.49000	3394.00000
9.50000	3371.00000
9.51000	3383.00000
9.52000	3481.00000
9.53000	3604.00000
9.54000	3866.00000
9.55000	4010.00000
9.56000	4191.00000
9.57000	4069.00000
9.58000	3828.00000
9.59000	3608.00000
9.60000	3418.00000
9.61000	3282.00000
9.62000	3255.00000
9.63000	3200.00000
9.64000	3164.00000
9.65000	3145.00000
9.66000	3159.00000
9.67000	3138.00000
9.68000	3179.00000
9.69000	3171.00000
9.70000	3176.00000
9.71000	3218.00000
9.72000	3215.00000
9.73000	3247.00000
9.74000	3308.00000
9.75000	3372.00000
9.76000	3543.00000
9.77000	3624.00000
9.78000	3661.00000
9.79000	3599.00000
9.80000	3604.00000
9.81000	3708.00000
9.82000	3995.00000
9.83000	4513.00000
9.84000	5314.00000
9.85000	6256.00000
9.86000	6740.00000
9.87000	6198.00000
9.88000	5136.00000
9.89000	4408.00000
9.90000	3923.00000
9.91000	3664.00000
9.92000	3562.00000
9.93000	3500.00000
9.94000	3578.00000
9.95000	3669.00000
9.96000	3928.00000
9.97000	4210.00000
9.98000	4399.00000
9.99000	4655.00000
10.00000	4807.00000
10.01000	4649.00000
10.02000	4496.00000
10.03000	4579.00000
10.04000	4834.00000
10.05000	4783.00000
10.06000	4398.00000
10.07000	3918.00000
10.08000	3654.00000
10.09000	3481.00000
10.10000	3482.00000
10.11000	3462.00000
10.12000	3605.00000
10.13000	3736.00000
10.14000	4008.00000
10.15000	4119.00000
10.16000	4078.00000
10.17000	3784.00000
10.18000	3558.00000
10.19000	3397.00000
10.20000	3359.00000
10.21000	3287.00000
10.22000	3271.00000
10.23000	3285.00000
10.24000	3345.00000
10.25000	3359.00000
10.26000	3388.00000
10.27000	3421.00000
10.28000	3506.00000
10.29000	3528.00000
10.30000	3637.00000
10.31000	3740.00000
10.32000	3806.00000
10.33000	3913.00000
10.34000	4126.00000
10.35000	4255.00000
10.36000	4527.00000
10.37000	4707.00000
10.38000	5028.00000
10.39000	5289.00000
10.40000	5722.00000
10.41000	5930.00000
10.42000	6180.00000
10.43000	6240.00000
10.44000	6431.00000
10.45000	6754.00000
10.46000	7410.00000
10.47000	8612.00000
10.48000	10917.00000
10.49000	14985.00000
10.50000	22477.00000
10.51000	34189.00000
10.52000	48650.00000
10.53000	54677.00000
10.54000	49739.00000
10.55000	44937.00000
10.56000	38996.00000
10.57000	27702.00000
10.58000	17517.00000
10.59000	11841.00000
10.60000	8785.00000
10.61000	7199.00000
10.62000	6246.00000
10.63000	5643.00000
10.64000	5335.00000
10.65000	5029.00000
10.66000	4895.00000
10.67000	4910.00000
10.68000	5082.00000
10.69000	5487.00000
10.70000	6052.00000
10.71000	6478.00000
10.72000	6678.00000
10.73000	6458.00000
10.74000	6689.00000
10.75000	7537.00000
10.76000	8999.00000
10.77000	9777.00000
10.78000	8797.00000
10.79000	6874.00000
10.80000	5392.00000
10.81000	4524.00000
10.82000	4025.00000
10.83000	3777.00000
10.84000	3605.00000
10.85000	3542.00000
10.86000	3506.00000
10.87000	3499.00000
10.88000	3588.00000
10.89000	3532.00000
10.90000	3498.00000
10.91000	3394.00000
10.92000	3350.00000
10.93000	3327.00000
10.94000	3424.00000
10.95000	3511.00000
10.96000	3544.00000
10.97000	3458.00000
10.98000	3310.00000
10.99000	3199.00000
11.00000	3156.00000
11.01000	3133.00000
11.02000	3156.00000
11.03000	3156.00000
11.04000	3117.00000
11.05000	3035.00000
11.06000	3050.00000
11.07000	3012.00000
11.08000	3024.00000
11.09000	3044.00000
11.10000	3074.00000
11.11000	3080.00000
11.12000	3141.00000
11.13000	3152.00000
11.14000	3241.00000
11.15000	3314.00000
11.16000	3251.00000
11.17000	3174.00000
11.18000	3132.00000
11.19000	3141.00000
11.20000	3193.00000
11.21000	3215.00000
11.22000	3386.00000
11.23000	3541.00000
11.24000	3873.00000
11.25000	4211.00000
11.26000	4487.00000
11.27000	4178.00000
11.28000	3766.00000
11.29000	3398.00000
11.30000	3277.00000
11.31000	3149.00000
11.32000	3170.00000
11.33000	3190.00000
11.34000	3193.00000
11.35000	3224.00000
11.36000	3316.00000
11.37000	3404.00000
11.38000	3433.00000
11.39000	3377.00000
11.40000	3312.00000
11.41000	3198.00000
11.42000	3159.00000
11.43000	3163.00000
11.44000	3165.00000
11.45000	3190.00000
11.46000	3191.00000
11.47000	3268.00000
11.48000	3386.00000
11.49000	3478.00000
11.50000	3739.00000
11.51000	3887.00000
11.52000	3964.00000
11.53000	3827.00000
11.54000	3611.00000
11.55000	3452.00000
11.56000	3390.00000
11.57000	3386.00000
11.58000	3406.00000
11.59000	3426.00000
11.60000	3559.00000
11.61000	3710.00000
11.62000	3930.00000
11.63000	3920.00000
11.64000	3854.00000
11.65000	3670.00000
11.66000	3591.00000
11.67000	3521.00000
11.68000	3505.00000
11.69000	3563.00000
11.70000	3673.00000
11.71000	3734.00000
11.72000	3876.00000
11.73000	3885.00000
11.74000	4019.00000
11.75000	4139.00000
11.76000	4419.00000
11.77000	4623.00000
11.78000	4606.00000
11.79000	4327.00000
11.80000	4120.00000
11.81000	4017.00000
11.82000	3923.00000
11.83000	3907.00000
11.84000	3942.00000
11.85000	3940.00000
11.86000	3969.00000
11.87000	3961.00000
11.88000	4039.00000
11.89000	4048.00000
11.90000	4160.00000
11.91000	4196.00000
11.92000	4315.00000
11.93000	4403.00000
11.94000	4502.00000
11.95000	4561.00000
11.96000	4726.00000
11.97000	4876.00000
11.98000	5073.00000
11.99000	5241.00000
12.00000	5408.00000
12.01000	5682.00000
12.02000	6012.00000
12.03000	6401.00000
12.04000	7042.00000
12.05000	7796.00000
12.06000	9158.00000
12.07000	11083.00000
12.08000	14516.00000
12.09000	20264.00000
12.10000	29910.00000
12.11000	41876.00000
12.12000	50373.00000
12.13000	45050.00000
12.14000	31999.00000
12.15000	21518.00000
12.16000	15376.00000
12.17000	11844.00000
12.18000	9997.00000
12.19000	8920.00000
12.20000	8489.00000
12.21000	8369.00000
12.22000	8634.00000
12.23000	9256.00000
12.24000	10271.00000
12.25000	12148.00000
12.26000	15361.00000
12.27000	19858.00000
12.28000	25745.00000
12.29000	28862.00000
12.30000	25506.00000
12.31000	18833.00000
12.32000	14192.00000
12.33000	12056.00000
12.34000	11642.00000
12.35000	11822.00000
12.36000	11315.00000
12.37000	9519.00000
12.38000	7775.00000
12.39000	6605.00000
12.40000	5951.00000
12.41000	5588.00000
12.42000	5437.00000
12.43000	5419.00000
12.44000	5544.00000
12.45000	5501.00000
12.46000	5056.00000
12.47000	4569.00000
12.48000	4304.00000
12.49000	4160.00000
12.50000	4086.00000
12.51000	4153.00000
12.52000	4146.00000
12.53000	4081.00000
12.54000	3896.00000
12.55000	3715.00000
12.56000	3683.00000
12.57000	3615.00000
12.58000	3634.00000
12.59000	3561.00000
12.60000	3564.00000
12.61000	3513.00000
12.62000	3464.00000
12.63000	3391.00000
12.64000	3390.00000
12.65000	3341.00000
12.66000	3351.00000
12.67000	3292.00000
12.68000	3309.00000
12.69000	3300.00000
12.70000	3316.00000
12.71000	3297.00000
12.72000	3314.00000
12.73000	3298.00000
12.74000	3266.00000
12.75000	3297.00000
12.76000	3349.00000
12.77000	3362.00000
12.78000	3397.00000
12.79000	3379.00000
12.80000	3416.00000
12.81000	3443.00000
12.82000	3492.00000
12.83000	3526.00000
12.84000	3556.00000
12.85000	3533.00000
12.86000	3590.00000
12.87000	3626.00000
12.88000	3662.00000
12.89000	3671.00000
12.90000	3668.00000
12.91000	3648.00000
12.92000	3741.00000
12.93000	3788.00000
12.94000	3875.00000
12.95000	3805.00000
12.96000	3829.00000
12.97000	3845.00000
12.98000	3933.00000
12.99000	4059.00000
13.00000	4283.00000
13.01000	4640.00000
13.02000	5208.00000
13.03000	6040.00000
13.04000	7470.00000
13.05000	9183.00000
13.06000	10592.00000
13.07000	10103.00000
13.08000	8177.00000
13.09000	6478.00000
13.10000	5431.00000
13.11000	4787.00000
13.12000	4465.00000
13.13000	4327.00000
13.14000	4336.00000
13.15000	4417.00000
13.16000	4698.00000
13.17000	5123.00000
13.18000	5671.00000
13.19000	6167.00000
13.20000	6222.00000
13.21000	5968.00000
13.22000	5974.00000
13.23000	6218.00000
13.24000	6490.00000
13.25000	6182.00000
13.26000	5612.00000
13.27000	5227.00000
13.28000	5173.00000
13.29000	5213.00000
13.30000	5225.00000
13.31000	5108.00000
13.32000	4922.00000
13.33000	4708.00000
13.34000	4704.00000
13.35000	4678.00000
13.36000	4810.00000
13.37000	4830.00000
13.38000	4957.00000
13.39000	4973.00000
13.40000	5138.00000
13.41000	5236.00000
13.42000	5383.00000
13.43000	5548.00000
13.44000	5716.00000
13.45000	5873.00000
13.46000	6178.00000
13.47000	6449.00000
13.48000	6946.00000
13.49000	7609.00000
13.50000	8717.00000
13.51000	10297.00000
13.52000	12922.00000
13.53000	15264.00000
13.54000	15864.00000
13.55000	14226.00000
13.56000	13251.00000
13.57000	13815.00000
13.58000	16026.00000
13.59000	18109.00000
13.60000	18097.00000
13.61000	14824.00000
13.62000	11567.00000
13.63000	9654.00000
13.64000	8798.00000
13.65000	8533.00000
13.66000	8859.00000
13.67000	9765.00000
13.68000	11474.00000
13.69000	14007.00000
13.70000	17600.00000
13.71000	19783.00000
13.72000	18114.00000
13.73000	14276.00000
13.74000	11365.00000
13.75000	9356.00000
13.76000	7833.00000
13.77000	7027.00000
13.78000	6599.00000
13.79000	6318.00000
13.80000	6009.00000
13.81000	5611.00000
13.82000	5366.00000
13.83000	5349.00000
13.84000	5647.00000
13.85000	5862.00000
13.86000	5795.00000
13.87000	5261.00000
13.88000	4822.00000
13.89000	4575.00000
13.90000	4637.00000
13.91000	4744.00000
13.92000	5069.00000
13.93000	5166.00000
13.94000	5157.00000
13.95000	4846.00000
13.96000	4540.00000
13.97000	4417.00000
13.98000	4375.00000
13.99000	4448.00000
14.00000	4573.00000
14.01000	4478.00000
14.02000	4530.00000
14.03000	4490.00000
14.04000	4364.00000
14.05000	4047.00000
14.06000	3903.00000
14.07000	3704.00000
14.08000	3670.00000
14.09000	3621.00000
14.10000	3591.00000
14.11000	3541.00000
14.12000	3556.00000
14.13000	3595.00000
14.14000	3653.00000
14.15000	3624.00000
14.16000	3624.00000
14.17000	3620.00000
14.18000	3739.00000
14.19000	3801.00000
14.20000	3949.00000
14.21000	4108.00000
14.22000	4276.00000
14.23000	4354.00000
14.24000	4404.00000
14.25000	4266.00000
14.26000	4129.00000
14.27000	4074.00000
14.28000	4153.00000
14.29000	4262.00000
14.30000	4431.00000
14.31000	4482.00000
14.32000	4543.00000
14.33000	4573.00000
14.34000	4777.00000
14.35000	5148.00000
14.36000	5631.00000
14.37000	6313.00000
14.38000	7287.00000
14.39000	8736.00000
14.40000	10149.00000
14.41000	11044.00000
14.42000	11835.00000
14.43000	13084.00000
14.44000	14427.00000
14.45000	13824.00000
14.46000	11344.00000
14.47000	9052.00000
14.48000	7533.00000
14.49000	6587.00000
14.50000	6194.00000
14.51000	6161.00000
14.52000	6167.00000
14.53000	6036.00000
14.54000	5675.00000
14.55000	5356.00000
14.56000	5124.00000
14.57000	5028.00000
14.58000	5068.00000
14.59000	5065.00000
14.60000	5247.00000
14.61000	5443.00000
14.62000	5780.00000
14.63000	6172.00000
14.64000	6532.00000
14.65000	6784.00000
14.66000	6695.00000
14.67000	6554.00000
14.68000	6463.00000
14.69000	6506.00000
14.70000	6543.00000
14.71000	6673.00000
14.72000	6973.00000
14.73000	7201.00000
14.74000	7584.00000
14.75000	7916.00000
14.76000	8325.00000
14.77000	8643.00000
14.78000	9158.00000
14.79000	9732.00000
14.80000	10642.00000
14.81000	11765.00000
14.82000	13868.00000
14.83000	16967.00000
14.84000	22876.00000
14.85000	32702.00000
14.86000	47953.00000
14.87000	60953.00000
14.88000	59197.00000
14.89000	48322.00000
14.90000	42928.00000
14.91000	42509.00000
14.92000	40756.00000
14.93000	33042.00000
14.94000	26414.00000
14.95000	23604.00000
14.96000	25019.00000
14.97000	29353.00000
14.98000	36826.00000
14.99000	41152.00000
15.00000	40022.00000
15.01000	35710.00000
15.02000	28433.00000
15.03000	21515.00000
15.04000	17702.00000
15.05000	14977.00000
15.06000	12497.00000
15.07000	10564.00000
15.08000	9209.00000
15.09000	8328.00000
15.10000	7821.00000
15.11000	7565.00000
15.12000	7522.00000
15.13000	7617.00000
15.14000	7981.00000
15.15000	8536.00000
15.16000	9051.00000
15.17000	8743.00000
15.18000	7892.00000
15.19000	6866.00000
15.20000	6000.00000
15.21000	5477.00000
15.22000	5156.00000
15.23000	4975.00000
15.24000	4991.00000
15.25000	4924.00000
15.26000	4881.00000
15.27000	4567.00000
15.28000	4333.00000
15.29000	4089.00000
15.30000	3953.00000
15.31000	3806.00000
15.32000	3799.00000
15.33000	3710.00000
15.34000	3676.00000
15.35000	3673.00000
15.36000	3700.00000
15.37000	3609.00000
15.38000	3613.00000
15.39000	3592.00000
15.40000	3564.00000
15.41000	3578.00000
15.42000	3523.00000
15.43000	3534.00000
15.44000	3596.00000
15.45000	3599.00000
15.46000	3687.00000
15.47000	3659.00000
15.48000	3672.00000
15.49000	3638.00000
15.50000	3687.00000
15.51000	3694.00000
15.52000	3723.00000
15.53000	3808.00000
15.54000	3917.00000
15.55000	3994.00000
15.56000	4246.00000
15.57000	4520.00000
15.58000	4879.00000
15.59000	5182.00000
15.60000	5486.00000
15.61000	5688.00000
15.62000	6024.00000
15.63000	6349.00000
15.64000	7267.00000
15.65000	8629.00000
15.66000	10452.00000
15.67000	11159.00000
15.68000	10051.00000
15.69000	8085.00000
15.70000	6460.00000
15.71000	5444.00000
15.72000	4756.00000
15.73000	4367.00000
15.74000	4184.00000
15.75000	4004.00000
15.76000	4008.00000
15.77000	3931.00000
15.78000	3941.00000
15.79000	3847.00000
15.80000	3795.00000
15.81000	3731.00000
15.82000	3795.00000
15.83000	3777.00000
15.84000	3830.00000
15.85000	3882.00000
15.86000	3904.00000
15.87000	3722.00000
15.88000	3565.00000
15.89000	3461.00000
15.90000	3353.00000
15.91000	3304.00000
15.92000	3273.00000
15.93000	3227.00000
15.94000	3206.00000
15.95000	3206.00000
15.96000	3279.00000
15.97000	3243.00000
15.98000	3251.00000
15.99000	3210.00000
16.00000	3203.00000
16.01000	3148.00000
16.02000	3164.00000
16.03000	3147.00000
16.04000	3192.00000
16.05000	3163.00000
16.06000	3155.00000
16.07000	3155.00000
16.08000	3171.00000
16.09000	3161.00000
16.10000	3181.00000
16.11000	3200.00000
16.12000	3247.00000
16.13000	3304.00000
16.14000	3332.00000
16.15000	3321.00000
16.16000	3322.00000
16.17000	3289.00000
16.18000	3325.00000
16.19000	3319.00000
16.20000	3411.00000
16.21000	3471.00000
16.22000	3573.00000
16.23000	3583.00000
16.24000	3677.00000
16.25000	3791.00000
16.26000	3914.00000
16.27000	3981.00000
16.28000	4040.00000
16.29000	4195.00000
16.30000	4458.00000
16.31000	4752.00000
16.32000	5067.00000
16.33000	5311.00000
16.34000	5172.00000
16.35000	4563.00000
16.36000	4074.00000
16.37000	3720.00000
16.38000	3509.00000
16.39000	3433.00000
16.40000	3450.00000
16.41000	3493.00000
16.42000	3618.00000
16.43000	3684.00000
16.44000	3749.00000
16.45000	3679.00000
16.46000	3514.00000
16.47000	3437.00000
16.48000	3400.00000
16.49000	3363.00000
16.50000	3356.00000
16.51000	3333.00000
16.52000	3392.00000
16.53000	3430.00000
16.54000	3502.00000
16.55000	3505.00000
16.56000	3488.00000
16.57000	3447.00000
16.58000	3480.00000
16.59000	3452.00000
16.60000	3510.00000
16.61000	3567.00000
16.62000	3721.00000
16.63000	3877.00000
16.64000	4044.00000
16.65000	4015.00000
16.66000	3896.00000
16.67000	3796.00000
16.68000	3815.00000
16.69000	3772.00000
16.70000	3836.00000
16.71000	3797.00000
16.72000	3981.00000
16.73000	4221.00000
16.74000	4567.00000
16.75000	5111.00000
16.76000	5624.00000
16.77000	5775.00000
16.78000	5455.00000
16.79000	4867.00000
16.80000	4479.00000
16.81000	4222.00000
16.82000	4151.00000
16.83000	4233.00000
16.84000	4471.00000
16.85000	4649.00000
16.86000	4629.00000
16.87000	4377.00000
16.88000	4177.00000
16.89000	3981.00000
16.90000	3848.00000
16.91000	3790.00000
16.92000	3819.00000
16.93000	3872.00000
16.94000	3993.00000
16.95000	4097.00000
16.96000	4118.00000
16.97000	4089.00000
16.98000	4112.00000
16.99000	4122.00000
17.00000	4335.00000
17.01000	4483.00000
17.02000	4769.00000
17.03000	4987.00000
17.04000	5084.00000
17.05000	5137.00000
17.06000	5367.00000
17.07000	5564.00000
17.08000	5781.00000
17.09000	6085.00000
17.10000	6791.00000
17.11000	7977.00000
17.12000	10107.00000
17.13000	12406.00000
17.14000	13321.00000
17.15000	11392.00000
17.16000	9280.00000
17.17000	7929.00000
17.18000	7399.00000
17.19000	7449.00000
17.20000	7863.00000
17.21000	8349.00000
17.22000	8487.00000
17.23000	8359.00000
17.24000	8597.00000
17.25000	9655.00000
17.26000	11992.00000
17.27000	15912.00000
17.28000	22157.00000
17.29000	28577.00000
17.30000	29529.00000
17.31000	22190.00000
17.32000	15334.00000
17.33000	11926.00000
17.34000	10419.00000
17.35000	9455.00000
17.36000	8358.00000
17.37000	7123.00000
17.38000	6193.00000
17.39000	5533.00000
17.40000	5197.00000
17.41000	4859.00000
17.42000	4690.00000
17.43000	4553.00000
17.44000	4578.00000
17.45000	4575.00000
17.46000	4571.00000
17.47000	4499.00000
17.48000	4400.00000
17.49000	4325.00000
17.50000	4351.00000
17.51000	4425.00000
17.52000	4538.00000
17.53000	4565.00000
17.54000	4466.00000
17.55000	4290.00000
17.56000	4227.00000
17.57000	4150.00000
17.58000	4279.00000
17.59000	4375.00000
17.60000	4521.00000
17.61000	4584.00000
17.62000	4576.00000
17.63000	4475.00000
17.64000	4328.00000
17.65000	4227.00000
17.66000	4224.00000
17.67000	4129.00000
17.68000	4032.00000
17.69000	3898.00000
17.70000	3777.00000
17.71000	3691.00000
17.72000	3656.00000
17.73000	3680.00000
17.74000	3724.00000
17.75000	3729.00000
17.76000	3745.00000
17.77000	3745.00000
17.78000	3825.00000
17.79000	3895.00000
17.80000	4076.00000
17.81000	4202.00000
17.82000	4351.00000
17.83000	4559.00000
17.84000	4968.00000
17.85000	5506.00000
17.86000	6149.00000
17.87000	6579.00000
17.88000	6392.00000
17.89000	5747.00000
17.90000	5263.00000
17.91000	5018.00000
17.92000	5034.00000
17.93000	5298.00000
17.94000	5787.00000
17.95000	6287.00000
17.96000	7070.00000
17.97000	7823.00000
17.98000	7969.00000
17.99000	7231.00000
18.00000	6559.00000
18.01000	6156.00000
18.02000	5979.00000
18.03000	5925.00000
18.04000	6011.00000
18.05000	5637.00000
18.06000	5284.00000
18.07000	5036.00000
18.08000	4998.00000
18.09000	5053.00000
18.10000	5111.00000
18.11000	5179.00000
18.12000	5261.00000
18.13000	5278.00000
18.14000	5302.00000
18.15000	5340.00000
18.16000	5406.00000
18.17000	5459.00000
18.18000	5713.00000
18.19000	6113.00000
18.20000	6987.00000
18.21000	8160.00000
18.22000	9044.00000
18.23000	8568.00000
18.24000	7493.00000
18.25000	6726.00000
18.26000	6413.00000
18.27000	6274.00000
18.28000	6596.00000
18.29000	7125.00000
18.30000	8210.00000
18.31000	9817.00000
18.32000	11412.00000
18.33000	11264.00000
18.34000	10215.00000
18.35000	9804.00000
18.36000	9921.00000
18.37000	9832.00000
18.38000	9835.00000
18.39000	9757.00000
18.40000	10095.00000
18.41000	10565.00000
18.42000	10625.00000
18.43000	9822.00000
18.44000	8916.00000
18.45000	8346.00000
18.46000	8105.00000
18.47000	7749.00000
18.48000	7005.00000
18.49000	6248.00000
18.50000	5477.00000
18.51000	4922.00000
18.52000	4551.00000
18.53000	4337.00000
18.54000	4198.00000
18.55000	4094.00000
18.56000	4072.00000
18.57000	4085.00000
18.58000	4160.00000
18.59000	4305.00000
18.60000	4491.00000
18.61000	4659.00000
18.62000	5010.00000
18.63000	4985.00000
18.64000	4696.00000
18.65000	4303.00000
18.66000	4007.00000
18.67000	3850.00000
18.68000	3769.00000
18.69000	3746.00000
18.70000	3763.00000
18.71000	3759.00000
18.72000	3795.00000
18.73000	3815.00000
18.74000	3771.00000
18.75000	3719.00000
18.76000	3726.00000
18.77000	3746.00000
18.78000	3786.00000
18.79000	3792.00000
18.80000	3825.00000
18.81000	3779.00000
18.82000	3808.00000
18.83000	3774.00000
18.84000	3785.00000
18.85000	3851.00000
18.86000	3954.00000
18.87000	4055.00000
18.88000	4137.00000
18.89000	4104.00000
18.90000	4195.00000
18.91000	4237.00000
18.92000	4501.00000
18.93000	4875.00000
18.94000	5414.00000
18.95000	5909.00000
18.96000	6692.00000
18.97000	7595.00000
18.98000	8133.00000
18.99000	7477.00000
19.00000	6463.00000
19.01000	5748.00000
19.02000	5184.00000
19.03000	4858.00000
19.04000	4722.00000
19.05000	4643.00000
19.06000	4698.00000
19.07000	4777.00000
19.08000	4915.00000
19.09000	4984.00000
19.10000	5148.00000
19.11000	5296.00000
19.12000	5511.00000
19.13000	5650.00000
19.14000	5884.00000
19.15000	6119.00000
19.16000	6702.00000
19.17000	7609.00000
19.18000	9255.00000
19.19000	10972.00000
19.20000	11948.00000
19.21000	11497.00000
19.22000	11540.00000
19.23000	12595.00000
19.24000	14801.00000
19.25000	15888.00000
19.26000	14047.00000
19.27000	11084.00000
19.28000	8863.00000
19.29000	7511.00000
19.30000	6722.00000
19.31000	6179.00000
19.32000	5947.00000
19.33000	5760.00000
19.34000	5759.00000
19.35000	5805.00000
19.36000	6075.00000
19.37000	6456.00000
19.38000	7084.00000
19.39000	7682.00000
19.40000	8354.00000
19.41000	8571.00000
19.42000	9010.00000
19.43000	9941.00000
19.44000	11539.00000
19.45000	13430.00000
19.46000	15560.00000
19.47000	15390.00000
19.48000	12673.00000
19.49000	9723.00000
19.50000	7726.00000
19.51000	6463.00000
19.52000	5742.00000
19.53000	5340.00000
19.54000	5109.00000
19.55000	4810.00000
19.56000	4683.00000
19.57000	4449.00000
19.58000	4359.00000
19.59000	4225.00000
19.60000	4243.00000
19.61000	4190.00000
19.62000	4157.00000
19.63000	4163.00000
19.64000	4100.00000
19.65000	4035.00000
19.66000	4092.00000
19.67000	4010.00000
19.68000	4022.00000
19.69000	4000.00000
19.70000	4101.00000
19.71000	4152.00000
19.72000	4303.00000
19.73000	4389.00000
19.74000	4434.00000
19.75000	4408.00000
19.76000	4460.00000
19.77000	4599.00000
19.78000	4896.00000
19.79000	5205.00000
19.80000	5559.00000
19.81000	5700.00000
19.82000	5694.00000
19.83000	5373.00000
19.84000	5106.00000
19.85000	4791.00000
19.86000	4552.00000
19.87000	4328.00000
19.88000	4260.00000
19.89000	4202.00000
19.90000	4168.00000
19.91000	4083.00000
19.92000	3980.00000
19.93000	3914.00000
19.94000	3921.00000
19.95000	3967.00000
19.96000	4090.00000
19.97000	4081.00000
19.98000	4050.00000
19.99000	3977.00000
20.00000	3947.00000
20.01000	4011.00000
20.02000	4114.00000
20.03000	4215.00000
20.04000	4342.00000
20.05000	4502.00000
20.06000	4647.00000
20.07000	4690.00000
20.08000	4677.00000
20.09000	4556.00000
20.10000	4438.00000
20.11000	4431.00000
20.12000	4571.00000
20.13000	4827.00000
20.14000	5344.00000
20.15000	6030.00000
20.16000	6967.00000
20.17000	7518.00000
20.18000	7301.00000
20.19000	6350.00000
20.20000	5677.00000
20.21000	5250.00000
20.22000	5065.00000
20.23000	4835.00000
20.24000	4745.00000
20.25000	4673.00000
20.26000	4798.00000
20.27000	4963.00000
20.28000	5243.00000
20.29000	5660.00000
20.30000	6089.00000
20.31000	6111.00000
20.32000	5897.00000
20.33000	5631.00000
20.34000	5377.00000
20.35000	5285.00000
20.36000	5305.00000
20.37000	5504.00000
20.38000	5905.00000
20.39000	6330.00000
20.40000	6530.00000
20.41000	6203.00000
20.42000	5732.00000
20.43000	5196.00000
20.44000	4998.00000
20.45000	4832.00000
20.46000	4574.00000
20.47000	4314.00000
20.48000	4188.00000
20.49000	4145.00000
20.50000	4196.00000
20.51000	4322.00000
20.52000	4438.00000
20.53000	4427.00000
20.54000	4318.00000
20.55000	4225.00000
20.56000	4216.00000
20.57000	4225.00000
20.58000	4280.00000
20.59000	4220.00000
20.60000	4270.00000
20.61000	4178.00000
20.62000	4130.00000
20.63000	3953.00000
20.64000	3843.00000
20.65000	3701.00000
20.66000	3720.00000
20.67000	3704.00000
20.68000	3826.00000
20.69000	3893.00000
20.70000	4040.00000
20.71000	4208.00000
20.72000	4516.00000
20.73000	4835.00000
20.74000	5435.00000
20.75000	5998.00000
20.76000	6270.00000
20.77000	5930.00000
20.78000	5431.00000
20.79000	5032.00000
20.80000	4811.00000
20.81000	4690.00000
20.82000	4665.00000
20.83000	4770.00000
20.84000	4991.00000
20.85000	4960.00000
20.86000	4728.00000
20.87000	4417.00000
20.88000	4168.00000
20.89000	3935.00000
20.90000	3871.00000
20.91000	3833.00000
20.92000	3777.00000
20.93000	3754.00000
20.94000	3781.00000
20.95000	3733.00000
20.96000	3835.00000
20.97000	3856.00000
20.98000	3828.00000
20.99000	3780.00000
21.00000	3762.00000
21.01000	3759.00000
21.02000	3774.00000
21.03000	3849.00000
21.04000	4051.00000
21.05000	4174.00000
21.06000	4313.00000
21.07000	4346.00000
21.08000	4485.00000
21.09000	4665.00000
21.10000	5135.00000
21.11000	5886.00000
21.12000	7197.00000
21.13000	9132.00000
21.14000	11461.00000
21.15000	11984.00000
21.16000	10295.00000
21.17000	8585.00000
21.18000	7815.00000
21.19000	7745.00000
21.20000	8244.00000
21.21000	8584.00000
21.22000	8707.00000
21.23000	8385.00000
21.24000	7945.00000
21.25000	7196.00000
21.26000	6605.00000
21.27000	6160.00000
21.28000	5877.00000
21.29000	5779.00000
21.30000	5999.00000
21.31000	6246.00000
21.32000	6157.00000
21.33000	5609.00000
21.34000	4958.00000
21.35000	4486.00000
21.36000	4205.00000
21.37000	4036.00000
21.38000	3966.00000
21.39000	3947.00000
21.40000	3992.00000
21.41000	4019.00000
21.42000	4044.00000
21.43000	3958.00000
21.44000	3891.00000
21.45000	3845.00000
21.46000	3818.00000
21.47000	3826.00000
21.48000	3860.00000
21.49000	3861.00000
21.50000	3914.00000
21.51000	3828.00000
21.52000	3780.00000
21.53000	3759.00000
21.54000	3744.00000
21.55000	3763.00000
21.56000	3873.00000
21.57000	3969.00000
21.58000	4187.00000
21.59000	4263.00000
21.60000	4179.00000
21.61000	4098.00000
21.62000	4133.00000
21.63000	4207.00000
21.64000	4413.00000
21.65000	4662.00000
21.66000	4961.00000
21.67000	5130.00000
21.68000	4996.00000
21.69000	4649.00000
21.70000	4432.00000
21.71000	4239.00000
21.72000	4197.00000
21.73000	4131.00000
21.74000	4131.00000
21.75000	4149.00000
21.76000	4214.00000
21.77000	4229.00000
21.78000	4265.00000
21.79000	4233.00000
21.80000	4390.00000
21.81000	4456.00000
21.82000	4547.00000
21.83000	4646.00000
21.84000	4786.00000
21.85000	4957.00000
21.86000	5144.00000
21.87000	5219.00000
21.88000	5379.00000
21.89000	5646.00000
21.90000	5966.00000
21.91000	5762.00000
21.92000	5351.00000
21.93000	4962.00000
21.94000	4788.00000
21.95000	4607.00000
21.96000	4472.00000
21.97000	4385.00000
21.98000	4384.00000
21.99000	4409.00000
22.00000	4536.00000
22.01000	4782.00000
22.02000	5107.00000
22.03000	5509.00000
22.04000	5989.00000
22.05000	5967.00000
22.06000	5607.00000
22.07000	5154.00000
22.08000	4846.00000
22.09000	4761.00000
22.10000	4742.00000
22.11000	4808.00000
22.12000	5026.00000
22.13000	5327.00000
22.14000	5887.00000
22.15000	6583.00000
22.16000	7256.00000
22.17000	7325.00000
22.18000	6830.00000
22.19000	6099.00000
22.20000	5519.00000
22.21000	5106.00000
22.22000	4806.00000
22.23000	4452.00000
22.24000	4166.00000
22.25000	3986.00000
22.26000	3914.00000
22.27000	3845.00000
22.28000	3973.00000
22.29000	3994.00000
22.30000	4062.00000
22.31000	4028.00000
22.32000	4003.00000
22.33000	4015.00000
22.34000	4068.00000
22.35000	4107.00000
22.36000	4083.00000
22.37000	4039.00000
22.38000	4076.00000
22.39000	4072.00000
22.40000	4142.00000
22.41000	4243.00000
22.42000	4454.00000
22.43000	4521.00000
22.44000	4584.00000
22.45000	4631.00000
22.46000	4681.00000
22.47000	4700.00000
22.48000	4905.00000
22.49000	5181.00000
22.50000	5697.00000
22.51000	6183.00000
22.52000	6786.00000
22.53000	7230.00000
22.54000	7594.00000
22.55000	7259.00000
22.56000	6645.00000
22.57000	5982.00000
22.58000	5542.00000
22.59000	5298.00000
22.60000	5165.00000
22.61000	4980.00000
22.62000	4919.00000
22.63000	4881.00000
22.64000	4918.00000
22.65000	4994.00000
22.66000	5169.00000
22.67000	5343.00000
22.68000	5655.00000
22.69000	5961.00000
22.70000	6308.00000
22.71000	6550.00000
22.72000	6912.00000
22.73000	7585.00000
22.74000	8897.00000
22.75000	10843.00000
22.76000	13172.00000
22.77000	13747.00000
22.78000	12162.00000
22.79000	9999.00000
22.80000	8585.00000
22.81000	7992.00000
22.82000	8157.00000
22.83000	8857.00000
22.84000	10468.00000
22.85000	12315.00000
22.86000	13229.00000
22.87000	11908.00000
22.88000	10605.00000
22.89000	10000.00000
22.90000	9885.00000
22.91000	9182.00000
22.92000	8423.00000
22.93000	8000.00000
22.94000	8404.00000
22.95000	9198.00000
22.96000	10687.00000
22.97000	12292.00000
22.98000	13500.00000
22.99000	12900.00000
23.00000	11908.00000
23.01000	10906.00000
23.02000	9191.00000
23.03000	7575.00000
23.04000	6497.00000
23.05000	5941.00000
23.06000	5680.00000
23.07000	5638.00000
23.08000	5792.00000
23.09000	5945.00000
23.10000	5760.00000
23.11000	5324.00000
23.12000	5035.00000
23.13000	4892.00000
23.14000	4887.00000
23.15000	4909.00000
23.16000	5018.00000
23.17000	4999.00000
23.18000	4815.00000
23.19000	4625.00000
23.20000	4406.00000
23.21000	4256.00000
23.22000	4213.00000
23.23000	4212.00000
23.24000	4299.00000
23.25000	4346.00000
23.26000	4431.00000
23.27000	4499.00000
23.28000	4525.00000
23.29000	4445.00000
23.30000	4600.00000
23.31000	4769.00000
23.32000	5116.00000
23.33000	5541.00000
23.34000	6097.00000
23.35000	6701.00000
23.36000	7258.00000
23.37000	7311.00000
23.38000	6951.00000
23.39000	6275.00000
23.40000	5588.00000
23.41000	4988.00000
23.42000	4608.00000
23.43000	4336.00000
23.44000	4243.00000
23.45000	4198.00000
23.46000	4201.00000
23.47000	4244.00000
23.48000	4436.00000
23.49000	4650.00000
23.50000	4928.00000
23.51000	4993.00000
23.52000	4800.00000
23.53000	4376.00000
23.54000	4041.00000
23.55000	3798.00000
23.56000	3689.00000
23.57000	3570.00000
23.58000	3562.00000
23.59000	3527.00000
23.60000	3508.00000
23.61000	3530.00000
23.62000	3598.00000
23.63000	3583.00000
23.64000	3679.00000
23.65000	3719.00000
23.66000	3894.00000
23.67000	3988.00000
23.68000	4116.00000
23.69000	4219.00000
23.70000	4366.00000
23.71000	4514.00000
23.72000	4706.00000
23.73000	4724.00000
23.74000	4685.00000
23.75000	4620.00000
23.76000	4759.00000
23.77000	5038.00000
23.78000	5467.00000
23.79000	5842.00000
23.80000	6063.00000
23.81000	5849.00000
23.82000	5213.00000
23.83000	4559.00000
23.84000	4144.00000
23.85000	3834.00000
23.86000	3697.00000
23.87000	3577.00000
23.88000	3546.00000
23.89000	3470.00000
23.90000	3507.00000
23.91000	3483.00000
23.92000	3544.00000
23.93000	3546.00000
23.94000	3552.00000
23.95000	3537.00000
23.96000	3595.00000
23.97000	3646.00000
23.98000	3689.00000
23.99000	3664.00000
24.00000	3621.00000
24.01000	3571.00000
24.02000	3567.00000
24.03000	3561.00000
24.04000	3640.00000
24.05000	3733.00000
24.06000	3823.00000
24.07000	3881.00000
24.08000	4024.00000
24.09000	4144.00000
24.10000	4229.00000
24.11000	4203.00000
24.12000	4077.00000
24.13000	3936.00000
24.14000	3832.00000
24.15000	3697.00000
24.16000	3701.00000
24.17000	3705.00000
24.18000	3806.00000
24.19000	3838.00000
24.20000	3947.00000
24.21000	4110.00000
24.22000	4229.00000
24.23000	4144.00000
24.24000	4029.00000
24.25000	3948.00000
24.26000	4020.00000
24.27000	4034.00000
24.28000	4091.00000
24.29000	4035.00000
24.30000	3940.00000
24.31000	3808.00000
24.32000	3736.00000
24.33000	3743.00000
24.34000	3806.00000
24.35000	3858.00000
24.36000	3939.00000
24.37000	4124.00000
24.38000	4311.00000
24.39000	4285.00000
24.40000	4151.00000
24.41000	4015.00000
24.42000	3929.00000
24.43000	3883.00000
24.44000	3937.00000
24.45000	3888.00000
24.46000	3846.00000
24.47000	3737.00000
24.48000	3721.00000
24.49000	3701.00000
24.50000	3779.00000
24.51000	3853.00000
24.52000	4091.00000
24.53000	4294.00000
24.54000	4380.00000
24.55000	4131.00000
24.56000	3963.00000
24.57000	3785.00000
24.58000	3687.00000
24.59000	3563.00000
24.60000	3545.00000
24.61000	3547.00000
24.62000	3564.00000
24.63000	3504.00000
24.64000	3547.00000
24.65000	3485.00000
24.66000	3499.00000
24.67000	3548.00000
24.68000	3645.00000
24.69000	3757.00000
24.70000	3950.00000
24.71000	4132.00000
24.72000	4354.00000
24.73000	4398.00000
24.74000	4294.00000
24.75000	4051.00000
24.76000	3958.00000
24.77000	3867.00000
24.78000	3837.00000
24.79000	3835.00000
24.80000	3961.00000
24.81000	4063.00000
24.82000	4240.00000
24.83000	4397.00000
24.84000	4468.00000
24.85000	4378.00000
24.86000	4361.00000
24.87000	4358.00000
24.88000	4567.00000
24.89000	4782.00000
24.90000	4937.00000
24.91000	5059.00000
24.92000	4991.00000
24.93000	4835.00000
24.94000	4710.00000
24.95000	4731.00000
24.96000	4852.00000
24.97000	5059.00000
24.98000	5346.00000
24.99000	5310.00000
25.00000	5098.00000
25.01000	4825.00000
25.02000	4661.00000
25.03000	4586.00000
25.04000	4627.00000
25.05000	4628.00000
25.06000	4629.00000
25.07000	4522.00000
25.08000	4389.00000
25.09000	4336.00000
25.10000	4408.00000
25.11000	4471.00000
25.12000	4522.00000
25.13000	4393.00000
25.14000	4427.00000
25.15000	4393.00000
25.16000	4659.00000
25.17000	5054.00000
25.18000	5492.00000
25.19000	5743.00000
25.20000	5441.00000
25.21000	4909.00000
25.22000	4586.00000
25.23000	4408.00000
25.24000	4327.00000
25.25000	4264.00000
25.26000	4237.00000
25.27000	4209.00000
25.28000	4271.00000
25.29000	4297.00000
25.30000	4509.00000
25.31000	4490.00000
25.32000	4334.00000
25.33000	4102.00000
25.34000	4071.00000
25.35000	3973.00000
25.36000	3963.00000
25.37000	3958.00000
25.38000	3943.00000
25.39000	3934.00000
25.40000	4000.00000
25.41000	4073.00000
25.42000	4235.00000
25.43000	4389.00000
25.44000	4563.00000
25.45000	4696.00000
25.46000	4745.00000
25.47000	4679.00000
25.48000	4581.00000
25.49000	4390.00000
25.50000	4213.00000
25.51000	4014.00000
25.52000	3918.00000
25.53000	3879.00000
25.54000	3910.00000
25.55000	4016.00000
25.56000	4117.00000
25.57000	4139.00000
25.58000	4182.00000
25.59000	4118.00000
25.60000	4106.00000
25.61000	4001.00000
25.62000	3949.00000
25.63000	3856.00000
25.64000	3844.00000
25.65000	3867.00000
25.66000	3979.00000
25.67000	4045.00000
25.68000	4146.00000
25.69000	4287.00000
25.70000	4553.00000
25.71000	4894.00000
25.72000	5297.00000
25.73000	5534.00000
25.74000	5420.00000
25.75000	5107.00000
25.76000	4845.00000
25.77000	4694.00000
25.78000	4661.00000
25.79000	4601.00000
25.80000	4617.00000
25.81000	4770.00000
25.82000	5077.00000
25.83000	5288.00000
25.84000	5367.00000
25.85000	5459.00000
25.86000	5783.00000
25.87000	6277.00000
25.88000	6700.00000
25.89000	6447.00000
25.90000	5977.00000
25.91000	5590.00000
25.92000	5404.00000
25.93000	5375.00000
25.94000	5365.00000
25.95000	5309.00000
25.96000	5271.00000
25.97000	5185.00000
25.98000	5119.00000
25.99000	4999.00000
26.00000	5020.00000
26.01000	5106.00000
26.02000	5381.00000
26.03000	5709.00000
26.04000	6038.00000
26.05000	6406.00000
26.06000	6935.00000
26.07000	7082.00000
26.08000	6567.00000
26.09000	5685.00000
26.10000	5119.00000
26.11000	4760.00000
26.12000	4609.00000
26.13000	4603.00000
26.14000	4680.00000
26.15000	4821.00000
26.16000	5196.00000
26.17000	5563.00000
26.18000	5938.00000
26.19000	6323.00000
26.20000	6690.00000
26.21000	6779.00000
26.22000	6514.00000
26.23000	5863.00000
26.24000	5265.00000
26.25000	4817.00000
26.26000	4622.00000
26.27000	4420.00000
26.28000	4422.00000
26.29000	4412.00000
26.30000	4486.00000
26.31000	4509.00000
26.32000	4594.00000
26.33000	4728.00000
26.34000	4894.00000
26.35000	5067.00000
26.36000	5330.00000
26.37000	5328.00000
26.38000	5359.00000
26.39000	5152.00000
26.40000	4912.00000
26.41000	4566.00000
26.42000	4340.00000
26.43000	4077.00000
26.44000	3979.00000
26.45000	3888.00000
26.46000	3845.00000
26.47000	3792.00000
26.48000	3794.00000
26.49000	3817.00000
26.50000	3901.00000
26.51000	3981.00000
26.52000	4124.00000
26.53000	4241.00000
26.54000	4448.00000
26.55000	4617.00000
26.56000	4837.00000
26.57000	4943.00000
26.58000	4918.00000
26.59000	4654.00000
26.60000	4334.00000
26.61000	4165.00000
26.62000	4081.00000
26.63000	4002.00000
26.64000	4039.00000
26.65000	4118.00000
26.66000	4272.00000
26.67000	4469.00000
26.68000	4797.00000
26.69000	5049.00000
26.70000	5267.00000
26.71000	5345.00000
26.72000	5406.00000
26.73000	5341.00000
26.74000	5429.00000
26.75000	5544.00000
26.76000	5632.00000
26.77000	5550.00000
26.78000	5193.00000
26.79000	4786.00000
26.80000	4432.00000
26.81000	4146.00000
26.82000	3947.00000
26.83000	3797.00000
26.84000	3742.00000
26.85000	3679.00000
26.86000	3644.00000
26.87000	3587.00000
26.88000	3586.00000
26.89000	3573.00000
26.90000	3637.00000
26.91000	3696.00000
26.92000	3754.00000
26.93000	3866.00000
26.94000	3931.00000
26.95000	3975.00000
26.96000	3915.00000
26.97000	3874.00000
26.98000	3911.00000
26.99000	3990.00000
27.00000	4122.00000
27.01000	4196.00000
27.02000	4301.00000
27.03000	4262.00000
27.04000	4330.00000
27.05000	4284.00000
27.06000	4485.00000
27.07000	4654.00000
27.08000	4957.00000
27.09000	5042.00000
27.10000	4984.00000
27.11000	4711.00000
27.12000	4588.00000
27.13000	4507.00000
27.14000	4536.00000
27.15000	4591.00000
27.16000	4628.00000
27.17000	4557.00000
27.18000	4566.00000
27.19000	4521.00000
27.20000	4737.00000
27.21000	4952.00000
27.22000	5159.00000
27.23000	5080.00000
27.24000	5086.00000
27.25000	5062.00000
27.26000	5100.00000
27.27000	4975.00000
27.28000	4677.00000
27.29000	4335.00000
27.30000	4090.00000
27.31000	3943.00000
27.32000	3910.00000
27.33000	3873.00000
27.34000	3914.00000
27.35000	4006.00000
27.36000	4188.00000
27.37000	4379.00000
27.38000	4651.00000
27.39000	4789.00000
27.40000	4722.00000
27.41000	4519.00000
27.42000	4384.00000
27.43000	4348.00000
27.44000	4391.00000
27.45000	4475.00000
27.46000	4651.00000
27.47000	4617.00000
27.48000	4588.00000
27.49000	4463.00000
27.50000	4307.00000
27.51000	4189.00000
27.52000	4101.00000
27.53000	4075.00000
27.54000	4083.00000
27.55000	4146.00000
27.56000	4314.00000
27.57000	4508.00000
27.58000	4891.00000
27.59000	5145.00000
27.60000	5326.00000
27.61000	5469.00000
27.62000	5590.00000
27.63000	5402.00000
27.64000	4980.00000
27.65000	4577.00000
27.66000	4382.00000
27.67000	4204.00000
27.68000	4232.00000
27.69000	4262.00000
27.70000	4311.00000
27.71000	4362.00000
27.72000	4484.00000
27.73000	4469.00000
27.74000	4392.00000
27.75000	4217.00000
27.76000	4108.00000
27.77000	4019.00000
27.78000	3951.00000
27.79000	3888.00000
27.80000	3879.00000
27.81000	3895.00000
27.82000	3926.00000
27.83000	3910.00000
27.84000	3902.00000
27.85000	3850.00000
27.86000	3892.00000
27.87000	3947.00000
27.88000	4008.00000
27.89000	4010.00000
27.90000	4023.00000
27.91000	4009.00000
27.92000	4015.00000
27.93000	4035.00000
27.94000	4066.00000
27.95000	4123.00000
27.96000	4225.00000
27.97000	4294.00000
27.98000	4237.00000
27.99000	4138.00000
28.00000	4139.00000
28.01000	4201.00000
28.02000	4297.00000
28.03000	4495.00000
28.04000	4724.00000
28.05000	4806.00000
28.06000	4860.00000
28.07000	4729.00000
28.08000	4567.00000
28.09000	4417.00000
28.10000	4337.00000
28.11000	4343.00000
28.12000	4414.00000
28.13000	4430.00000
28.14000	4346.00000
28.15000	4205.00000
28.16000	4022.00000
28.17000	3896.00000
28.18000	3861.00000
28.19000	3807.00000
28.20000	3710.00000
28.21000	3724.00000
28.22000	3798.00000
28.23000	3879.00000
28.24000	3910.00000
28.25000	3864.00000
28.26000	3854.00000
28.27000	3881.00000
28.28000	4027.00000
28.29000	4145.00000
28.30000	4182.00000
28.31000	4028.00000
28.32000	3875.00000
28.33000	3739.00000
28.34000	3702.00000
28.35000	3652.00000
28.36000	3660.00000
28.37000	3652.00000
28.38000	3726.00000
28.39000	3702.00000
28.40000	3759.00000
28.41000	3704.00000
28.42000	3690.00000
28.43000	3638.00000
28.44000	3611.00000
28.45000	3635.00000
28.46000	3709.00000
28.47000	3699.00000
28.48000	3717.00000
28.49000	3621.00000
28.50000	3563.00000
28.51000	3494.00000
28.52000	3531.00000
28.53000	3547.00000
28.54000	3604.00000
28.55000	3582.00000
28.56000	3607.00000
28.57000	3614.00000
28.58000	3606.00000
28.59000	3702.00000
28.60000	3826.00000
28.61000	3967.00000
28.62000	4172.00000
28.63000	4230.00000
28.64000	4187.00000
28.65000	4117.00000
28.66000	4178.00000
28.67000	4370.00000
28.68000	4692.00000
28.69000	4982.00000
28.70000	5084.00000
28.71000	4885.00000
28.72000	4745.00000
28.73000	4659.00000
28.74000	4622.00000
28.75000	4683.00000
28.76000	4879.00000
28.77000	5263.00000
28.78000	5900.00000
28.79000	6656.00000
28.80000	7549.00000
28.81000	7862.00000
28.82000	7493.00000
28.83000	6801.00000
28.84000	6234.00000
28.85000	5765.00000
28.86000	5551.00000
28.87000	5311.00000
28.88000	5142.00000
28.89000	4837.00000
28.90000	4460.00000
28.91000	4174.00000
28.92000	3951.00000
28.93000	3821.00000
28.94000	3724.00000
28.95000	3652.00000
28.96000	3647.00000
28.97000	3634.00000
28.98000	3606.00000
28.99000	3584.00000
29.00000	3675.00000
29.01000	3681.00000
29.02000	3789.00000
29.03000	3795.00000
29.04000	3787.00000
29.05000	3724.00000
29.06000	3693.00000
29.07000	3633.00000
29.08000	3651.00000
29.09000	3628.00000
29.10000	3593.00000
29.11000	3513.00000
29.12000	3570.00000
29.13000	3542.00000
29.14000	3675.00000
29.15000	3812.00000
29.16000	3927.00000
29.17000	4051.00000
29.18000	4155.00000
29.19000	4060.00000
29.20000	3938.00000
29.21000	3794.00000
29.22000	3668.00000
29.23000	3605.00000
29.24000	3567.00000
29.25000	3558.00000
29.26000	3687.00000
29.27000	3813.00000
29.28000	3957.00000
29.29000	3964.00000
29.30000	3809.00000
29.31000	3620.00000
29.32000	3513.00000
29.33000	3458.00000
29.34000	3430.00000
29.35000	3378.00000
29.36000	3420.00000
29.37000	3416.00000
29.38000	3439.00000
29.39000	3403.00000
29.40000	3420.00000
29.41000	3399.00000
29.42000	3431.00000
29.43000	3392.00000
29.44000	3378.00000
29.45000	3335.00000
29.46000	3326.00000
29.47000	3312.00000
29.48000	3367.00000
29.49000	3398.00000
29.50000	3488.00000
29.51000	3615.00000
29.52000	3801.00000
29.53000	3878.00000
29.54000	3980.00000
29.55000	3893.00000
29.56000	3808.00000
29.57000	3666.00000
29.58000	3608.00000
29.59000	3510.00000
29.60000	3438.00000
29.61000	3367.00000
29.62000	3396.00000
29.63000	3417.00000
29.64000	3377.00000
29.65000	3289.00000
29.66000	3298.00000
29.67000	3322.00000
29.68000	3389.00000
29.69000	3421.00000
29.70000	3499.00000
29.71000	3587.00000
29.72000	3710.00000
29.73000	3826.00000
29.74000	3927.00000
29.75000	4073.00000
29.76000	4128.00000
29.77000	4175.00000
29.78000	4192.00000
29.79000	4110.00000
29.80000	3964.00000
29.81000	3800.00000
29.82000	3692.00000
29.83000	3617.00000
29.84000	3592.00000
29.85000	3543.00000
29.86000	3584.00000
29.87000	3557.00000
29.88000	3549.00000
29.89000	3516.00000
29.90000	3560.00000
29.91000	3578.00000
29.92000	3625.00000
29.93000	3611.00000
29.94000	3598.00000
29.95000	3581.00000
29.96000	3687.00000
29.97000	3873.00000
29.98000	4194.00000
29.99000	4584.00000
30.00000	5003.00000
30.01000	5045.00000
30.02000	4820.00000
30.03000	4495.00000
30.04000	4309.00000
30.05000	4092.00000
30.06000	3996.00000
30.07000	3876.00000
30.08000	3855.00000
30.09000	3775.00000
30.10000	3663.00000
30.11000	3586.00000
30.12000	3477.00000
30.13000	3434.00000
30.14000	3416.00000
30.15000	3380.00000
30.16000	3415.00000
30.17000	3386.00000
30.18000	3447.00000
30.19000	3452.00000
30.20000	3528.00000
30.21000	3630.00000
30.22000	3779.00000
30.23000	3943.00000
30.24000	4011.00000
30.25000	3979.00000
30.26000	3892.00000
30.27000	3839.00000
30.28000	3915.00000
30.29000	3833.00000
30.30000	3780.00000
30.31000	3704.00000
30.32000	3649.00000
30.33000	3647.00000
30.34000	3640.00000
30.35000	3703.00000
30.36000	3758.00000
30.37000	3729.00000
30.38000	3762.00000
30.39000	3727.00000
30.40000	3758.00000
30.41000	3737.00000
30.42000	3743.00000
30.43000	3704.00000
30.44000	3776.00000
30.45000	3765.00000
30.46000	3789.00000
30.47000	3785.00000
30.48000	3886.00000
30.49000	3843.00000
30.50000	3926.00000
30.51000	3913.00000
30.52000	3936.00000
30.53000	3958.00000
30.54000	4040.00000
30.55000	4024.00000
30.56000	4018.00000
30.57000	3837.00000
30.58000	3748.00000
30.59000	3611.00000
30.60000	3511.00000
30.61000	3515.00000
30.62000	3521.00000
30.63000	3506.00000
30.64000	3589.00000
30.65000	3654.00000
30.66000	3741.00000
30.67000	3733.00000
30.68000	3790.00000
30.69000	3759.00000
30.70000	3770.00000
30.71000	3739.00000
30.72000	3759.00000
30.73000	3791.00000
30.74000	3812.00000
30.75000	3785.00000
30.76000	3867.00000
30.77000	3924.00000
30.78000	4016.00000
30.79000	4125.00000
30.80000	4149.00000
30.81000	4084.00000
30.82000	3984.00000
30.83000	3819.00000
30.84000	3784.00000
30.85000	3646.00000
30.86000	3648.00000
30.87000	3656.00000
30.88000	3682.00000
30.89000	3678.00000
30.90000	3656.00000
30.91000	3555.00000
30.92000	3531.00000
30.93000	3496.00000
30.94000	3534.00000
30.95000	3552.00000
30.96000	3613.00000
30.97000	3621.00000
30.98000	3776.00000
30.99000	3760.00000
31.00000	3800.00000
31.01000	3729.00000
31.02000	3694.00000
31.03000	3746.00000
31.04000	3827.00000
31.05000	3944.00000
31.06000	4118.00000
31.07000	4193.00000
31.08000	4243.00000
31.09000	4190.00000
31.10000	4188.00000
31.11000	4099.00000
31.12000	4173.00000
31.13000	4168.00000
31.14000	4248.00000
31.15000	4396.00000
31.16000	4650.00000
31.17000	5079.00000
31.18000	5438.00000
31.19000	5415.00000
31.20000	5075.00000
31.21000	4615.00000
31.22000	4319.00000
31.23000	4087.00000
31.24000	3953.00000
31.25000	3891.00000
31.26000	3835.00000
31.27000	3713.00000
31.28000	3684.00000
31.29000	3672.00000
31.30000	3722.00000
31.31000	3717.00000
31.32000	3824.00000
31.33000	3903.00000
31.34000	4065.00000
31.35000	4294.00000
31.36000	4593.00000
31.37000	4598.00000
31.38000	4491.00000
31.39000	4288.00000
31.40000	4217.00000
31.41000	4209.00000
31.42000	4184.00000
31.43000	4110.00000
31.44000	4103.00000
31.45000	4120.00000
31.46000	4229.00000
31.47000	4390.00000
31.48000	4659.00000
31.49000	4811.00000
31.50000	4835.00000
31.51000	4670.00000
31.52000	4543.00000
31.53000	4365.00000
31.54000	4255.00000
31.55000	4166.00000
31.56000	4139.00000
31.57000	4114.00000
31.58000	4108.00000
31.59000	4090.00000
31.60000	4101.00000
31.61000	4146.00000
31.62000	4147.00000
31.63000	4210.00000
31.64000	4352.00000
31.65000	4512.00000
31.66000	4692.00000
31.67000	4732.00000
31.68000	4712.00000
31.69000	4542.00000
31.70000	4460.00000
31.71000	4202.00000
31.72000	4048.00000
31.73000	3909.00000
31.74000	3806.00000
31.75000	3752.00000
31.76000	3734.00000
31.77000	3634.00000
31.78000	3597.00000
31.79000	3528.00000
31.80000	3485.00000
31.81000	3470.00000
31.82000	3488.00000
31.83000	3482.00000
31.84000	3534.00000
31.85000	3560.00000
31.86000	3662.00000
31.87000	3705.00000
31.88000	3819.00000
31.89000	3852.00000
31.90000	3886.00000
31.91000	3862.00000
31.92000	3906.00000
31.93000	3905.00000
31.94000	3950.00000
31.95000	3919.00000
31.96000	3869.00000
31.97000	3759.00000
31.98000	3638.00000
31.99000	3597.00000
32.00000	3552.00000
32.01000	3550.00000
32.02000	3564.00000
32.03000	3686.00000
32.04000	3787.00000
32.05000	3858.00000
32.06000	3949.00000
32.07000	3991.00000
32.08000	3977.00000
32.09000	3957.00000
32.10000	3912.00000
32.11000	3950.00000
32.12000	3929.00000
32.13000	3885.00000
32.14000	3866.00000
32.15000	3834.00000
32.16000	3824.00000
32.17000	3835.00000
32.18000	3902.00000
32.19000	3944.00000
32.20000	4044.00000
32.21000	3995.00000
32.22000	3863.00000
32.23000	3752.00000
32.24000	3660.00000
32.25000	3608.00000
32.26000	3626.00000
32.27000	3529.00000
32.28000	3539.00000
32.29000	3478.00000
32.30000	3526.00000
32.31000	3475.00000
32.32000	3596.00000
32.33000	3694.00000
32.34000	3802.00000
32.35000	3831.00000
32.36000	3922.00000
32.37000	4014.00000
32.38000	4163.00000
32.39000	4175.00000
32.40000	4052.00000
32.41000	3791.00000
32.42000	3639.00000
32.43000	3482.00000
32.44000	3371.00000
32.45000	3337.00000
32.46000	3318.00000
32.47000	3268.00000
32.48000	3292.00000
32.49000	3308.00000
32.50000	3355.00000
32.51000	3387.00000
32.52000	3460.00000
32.53000	3450.00000
32.54000	3492.00000
32.55000	3527.00000
32.56000	3585.00000
32.57000	3572.00000
32.58000	3577.00000
32.59000	3602.00000
32.60000	3689.00000
32.61000	3678.00000
32.62000	3695.00000
32.63000	3614.00000
32.64000	3558.00000
32.65000	3448.00000
32.66000	3415.00000
32.67000	3399.00000
32.68000	3446.00000
32.69000	3495.00000
32.70000	3512.00000
32.71000	3555.00000
32.72000	3633.00000
32.73000	3603.00000
32.74000	3701.00000
32.75000	3721.00000
32.76000	3793.00000
32.77000	3809.00000
32.78000	3947.00000
32.79000	4024.00000
32.80000	4122.00000
32.81000	4172.00000
32.82000	4126.00000
32.83000	4074.00000
32.84000	3985.00000
32.85000	3915.00000
32.86000	3888.00000
32.87000	3901.00000
32.88000	3889.00000
32.89000	3895.00000
32.90000	3983.00000
32.91000	3959.00000
32.92000	4081.00000
32.93000	4135.00000
32.94000	4142.00000
32.95000	4094.00000
32.96000	4015.00000
32.97000	3897.00000
32.98000	3928.00000
32.99000	3875.00000
33.00000	3877.00000
33.01000	3889.00000
33.02000	3975.00000
33.03000	4036.00000
33.04000	4096.00000
33.05000	4085.00000
33.06000	4069.00000
33.07000	4092.00000
33.08000	4131.00000
33.09000	4198.00000
33.10000	4295.00000
33.11000	4341.00000
33.12000	4405.00000
33.13000	4434.00000
33.14000	4480.00000
33.15000	4369.00000
33.16000	4306.00000
33.17000	4130.00000
33.18000	3925.00000
33.19000	3793.00000
33.20000	3699.00000
33.21000	3667.00000
33.22000	3678.00000
33.23000	3597.00000
33.24000	3550.00000
33.25000	3562.00000
33.26000	3562.00000
33.27000	3521.00000
33.28000	3448.00000
33.29000	3405.00000
33.30000	3362.00000
33.31000	3316.00000
33.32000	3360.00000
33.33000	3349.00000
33.34000	3379.00000
33.35000	3332.00000
33.36000	3327.00000
33.37000	3318.00000
33.38000	3360.00000
33.39000	3345.00000
33.40000	3366.00000
33.41000	3356.00000
33.42000	3366.00000
33.43000	3317.00000
33.44000	3338.00000
33.45000	3372.00000
33.46000	3385.00000
33.47000	3412.00000
33.48000	3488.00000
33.49000	3520.00000
33.50000	3614.00000
33.51000	3619.00000
33.52000	3692.00000
33.53000	3648.00000
33.54000	3662.00000
33.55000	3616.00000
33.56000	3715.00000
33.57000	3827.00000
33.58000	3910.00000
33.59000	3885.00000
33.60000	3864.00000
33.61000	3789.00000
33.62000	3858.00000
33.63000	3878.00000
33.64000	3999.00000
33.65000	4061.00000
33.66000	4153.00000
33.67000	4090.00000
33.68000	4059.00000
33.69000	3955.00000
33.70000	3792.00000
33.71000	3653.00000
33.72000	3571.00000
33.73000	3478.00000
33.74000	3431.00000
33.75000	3369.00000
33.76000	3330.00000
33.77000	3299.00000
33.78000	3310.00000
33.79000	3312.00000
33.80000	3299.00000
33.81000	3296.00000
33.82000	3355.00000
33.83000	3409.00000
33.84000	3452.00000
33.85000	3499.00000
33.86000	3589.00000
33.87000	3620.00000
33.88000	3666.00000
33.89000	3634.00000
33.90000	3573.00000
33.91000	3497.00000
33.92000	3466.00000
33.93000	3483.00000
33.94000	3522.00000
33.95000	3476.00000
33.96000	3541.00000
33.97000	3542.00000
33.98000	3673.00000
33.99000	3785.00000
34.00000	3998.00000
34.01000	4084.00000
34.02000	4090.00000
34.03000	4017.00000
34.04000	3926.00000
34.05000	3802.00000
34.06000	3742.00000
34.07000	3634.00000
34.08000	3552.00000
34.09000	3462.00000
34.10000	3389.00000
34.11000	3328.00000
34.12000	3310.00000
34.13000	3271.00000
34.14000	3248.00000
34.15000	3220.00000
34.16000	3214.00000
34.17000	3178.00000
34.18000	3159.00000
34.19000	3148.00000
34.20000	3170.00000
34.21000	3136.00000
34.22000	3149.00000
34.23000	3123.00000
34.24000	3155.00000
34.25000	3181.00000
34.26000	3180.00000
34.27000	3144.00000
34.28000	3151.00000
34.29000	3151.00000
34.30000	3176.00000
34.31000	3200.00000
34.32000	3215.00000
34.33000	3187.00000
34.34000	3181.00000
34.35000	3178.00000
34.36000	3208.00000
34.37000	3183.00000
34.38000	3176.00000
34.39000	3146.00000
34.40000	3137.00000
34.41000	3140.00000
34.42000	3185.00000
34.43000	3194.00000
34.44000	3217.00000
34.45000	3171.00000
34.46000	3177.00000
34.47000	3192.00000
34.48000	3171.00000
34.49000	3148.00000
34.50000	3156.00000
34.51000	3197.00000
34.52000	3222.00000
34.53000	3300.00000
34.54000	3376.00000
34.55000	3377.00000
34.56000	3412.00000
34.57000	3446.00000
34.58000	3565.00000
34.59000	3638.00000
34.60000	3697.00000
34.61000	3654.00000
34.62000	3615.00000
34.63000	3509.00000
34.64000	3478.00000
34.65000	3485.00000
34.66000	3501.00000
34.67000	3525.00000
34.68000	3508.00000
34.69000	3401.00000
34.70000	3342.00000
34.71000	3269.00000
34.72000	3273.00000
34.73000	3247.00000
34.74000	3229.00000
34.75000	3192.00000
34.76000	3220.00000
34.77000	3181.00000
34.78000	3260.00000
34.79000	3296.00000
34.80000	3344.00000
34.81000	3357.00000
34.82000	3370.00000
34.83000	3350.00000
34.84000	3377.00000
34.85000	3374.00000
34.86000	3376.00000
34.87000	3408.00000
34.88000	3494.00000
34.89000	3547.00000
34.90000	3677.00000
34.91000	3698.00000
34.92000	3670.00000
34.93000	3583.00000
34.94000	3568.00000
34.95000	3521.00000
34.96000	3546.00000
34.97000	3478.00000
34.98000	3506.00000
34.99000	3416.00000
35.00000	3418.00000
35.01000	3368.00000
35.02000	3356.00000
35.03000	3305.00000
35.04000	3290.00000
35.05000	3216.00000
35.06000	3185.00000
35.07000	3189.00000
35.08000	3185.00000
35.09000	3141.00000
35.10000	3126.00000
35.11000	3085.00000
35.12000	3082.00000
35.13000	3092.00000
35.14000	3095.00000
35.15000	3083.00000
35.16000	3088.00000
35.17000	3035.00000
35.18000	3070.00000
35.19000	3057.00000
35.20000	3118.00000
35.21000	3163.00000
35.22000	3175.00000
35.23000	3193.00000
35.24000	3223.00000
35.25000	3216.00000
35.26000	3238.00000
35.27000	3181.00000
35.28000	3187.00000
35.29000	3210.00000
35.30000	3225.00000
35.31000	3276.00000
35.32000	3346.00000
35.33000	3374.00000
35.34000	3434.00000
35.35000	3429.00000
35.36000	3628.00000
35.37000	3702.00000
35.38000	3911.00000
35.39000	4036.00000
35.40000	4158.00000
35.41000	4177.00000
35.42000	4185.00000
35.43000	4046.00000
35.44000	3926.00000
35.45000	3844.00000
35.46000	3759.00000
35.47000	3659.00000
35.48000	3621.00000
35.49000	3547.00000
35.50000	3539.00000
35.51000	3463.00000
35.52000	3456.00000
35.53000	3413.00000
35.54000	3403.00000
35.55000	3390.00000
35.56000	3383.00000
35.57000	3366.00000
35.58000	3396.00000
35.59000	3373.00000
35.60000	3412.00000
35.61000	3376.00000
35.62000	3408.00000
35.63000	3333.00000
35.64000	3333.00000
35.65000	3335.00000
35.66000	3350.00000
35.67000	3294.00000
35.68000	3296.00000
35.69000	3306.00000
35.70000	3280.00000
35.71000	3249.00000
35.72000	3304.00000
35.73000	3297.00000
35.74000	3391.00000
35.75000	3417.00000
35.76000	3440.00000
35.77000	3455.00000
35.78000	3497.00000
35.79000	3483.00000
35.80000	3498.00000
35.81000	3444.00000
35.82000	3375.00000
35.83000	3352.00000
35.84000	3340.00000
35.85000	3368.00000
35.86000	3406.00000
35.87000	3381.00000
35.88000	3397.00000
35.89000	3383.00000
35.90000	3491.00000
35.91000	3627.00000
35.92000	3819.00000
35.93000	3978.00000
35.94000	3996.00000
35.95000	3800.00000
35.96000	3629.00000
35.97000	3518.00000
35.98000	3416.00000
35.99000	3378.00000
36.00000	3365.00000
36.01000	3372.00000
36.02000	3418.00000
36.03000	3431.00000
36.04000	3491.00000
36.05000	3501.00000
36.06000	3516.00000
36.07000	3420.00000
36.08000	3421.00000
36.09000	3315.00000
36.10000	3318.00000
36.11000	3353.00000
36.12000	3392.00000
36.13000	3385.00000
36.14000	3479.00000
36.15000	3579.00000
36.16000	3619.00000
36.17000	3694.00000
36.18000	3654.00000
36.19000	3618.00000
36.20000	3609.00000
36.21000	3601.00000
36.22000	3548.00000
36.23000	3547.00000
36.24000	3524.00000
36.25000	3431.00000
36.26000	3410.00000
36.27000	3368.00000
36.28000	3380.00000
36.29000	3434.00000
36.30000	3434.00000
36.31000	3458.00000
36.32000	3438.00000
36.33000	3459.00000
36.34000	3476.00000
36.35000	3455.00000
36.36000	3458.00000
36.37000	3431.00000
36.38000	3432.00000
36.39000	3456.00000
36.40000	3440.00000
36.41000	3404.00000
36.42000	3422.00000
36.43000	3399.00000
36.44000	3501.00000
36.45000	3570.00000
36.46000	3602.00000
36.47000	3616.00000
36.48000	3610.00000
36.49000	3583.00000
36.50000	3577.00000
36.51000	3477.00000
36.52000	3463.00000
36.53000	3401.00000
36.54000	3370.00000
36.55000	3296.00000
36.56000	3306.00000
36.57000	3231.00000
36.58000	3181.00000
36.59000	3118.00000
36.60000	3106.00000
36.61000	3043.00000
36.62000	3104.00000
36.63000	3091.00000
36.64000	3149.00000
36.65000	3200.00000
36.66000	3243.00000
36.67000	3233.00000
36.68000	3303.00000
36.69000	3326.00000
36.70000	3390.00000
36.71000	3440.00000
36.72000	3541.00000
36.73000	3517.00000
36.74000	3587.00000
36.75000	3527.00000
36.76000	3460.00000
36.77000	3390.00000
36.78000	3312.00000
36.79000	3221.00000
36.80000	3185.00000
36.81000	3195.00000
36.82000	3158.00000
36.83000	3150.00000
36.84000	3172.00000
36.85000	3158.00000
36.86000	3225.00000
36.87000	3214.00000
36.88000	3272.00000
36.89000	3256.00000
36.90000	3369.00000
36.91000	3368.00000
36.92000	3407.00000
36.93000	3387.00000
36.94000	3384.00000
36.95000	3281.00000
36.96000	3261.00000
36.97000	3245.00000
36.98000	3228.00000
36.99000	3182.00000
37.00000	3176.00000
37.01000	3142.00000
37.02000	3144.00000
37.03000	3128.00000
37.04000	3125.00000
37.05000	3168.00000
37.06000	3259.00000
37.07000	3287.00000
37.08000	3336.00000
37.09000	3321.00000
37.10000	3334.00000
37.11000	3408.00000
37.12000	3523.00000
37.13000	3598.00000
37.14000	3599.00000
37.15000	3495.00000
37.16000	3453.00000
37.17000	3361.00000
37.18000	3360.00000
37.19000	3290.00000
37.20000	3241.00000
37.21000	3163.00000
37.22000	3115.00000
37.23000	3121.00000
37.24000	3166.00000
37.25000	3190.00000
37.26000	3213.00000
37.27000	3163.00000
37.28000	3157.00000
37.29000	3100.00000
37.30000	3116.00000
37.31000	3084.00000
37.32000	3091.00000
37.33000	3094.00000
37.34000	3146.00000
37.35000	3201.00000
37.36000	3295.00000
37.37000	3364.00000
37.38000	3416.00000
37.39000	3389.00000
37.40000	3388.00000
37.41000	3387.00000
37.42000	3328.00000
37.43000	3308.00000
37.44000	3314.00000
37.45000	3266.00000
37.46000	3349.00000
37.47000	3277.00000
37.48000	3282.00000
37.49000	3221.00000
37.50000	3206.00000
37.51000	3118.00000
37.52000	3086.00000
37.53000	3039.00000
37.54000	3007.00000
37.55000	2979.00000
37.56000	2975.00000
37.57000	2996.00000
37.58000	2977.00000
37.59000	2982.00000
37.60000	3038.00000
37.61000	3071.00000
37.62000	3089.00000
37.63000	3106.00000
37.64000	3161.00000
37.65000	3167.00000
37.66000	3178.00000
37.67000	3220.00000
37.68000	3200.00000
37.69000	3114.00000
37.70000	3073.00000
37.71000	3074.00000
37.72000	3099.00000
37.73000	3076.00000
37.74000	3008.00000
37.75000	3037.00000
37.76000	3052.00000
37.77000	3053.00000
37.78000	3108.00000
37.79000	3141.00000
37.80000	3088.00000
37.81000	3043.00000
37.82000	3050.00000
37.83000	3020.00000
37.84000	2995.00000
37.85000	2976.00000
37.86000	2996.00000
37.87000	2943.00000
37.88000	2966.00000
37.89000	2963.00000
37.90000	2980.00000
37.91000	2948.00000
37.92000	2976.00000
37.93000	2968.00000
37.94000	3105.00000
37.95000	3172.00000
37.96000	3283.00000
37.97000	3308.00000
37.98000	3294.00000
37.99000	3241.00000
38.00000	3171.00000
38.01000	3128.00000
38.02000	3134.00000
38.03000	3166.00000
38.04000	3158.00000
38.05000	3139.00000
38.06000	3222.00000
38.07000	3204.00000
38.08000	3243.00000
38.09000	3200.00000
38.10000	3141.00000
38.11000	3185.00000
38.12000	3233.00000
38.13000	3286.00000
38.14000	3340.00000
38.15000	3286.00000
38.16000	3309.00000
38.17000	3257.00000
38.18000	3201.00000
38.19000	3136.00000
38.20000	3129.00000
38.21000	3089.00000
38.22000	3051.00000
38.23000	3061.00000
38.24000	3077.00000
38.25000	3051.00000
38.26000	3109.00000
38.27000	3087.00000
38.28000	3135.00000
38.29000	3144.00000
38.30000	3246.00000
38.31000	3292.00000
38.32000	3270.00000
38.33000	3250.00000
38.34000	3229.00000
38.35000	3173.00000
38.36000	3162.00000
38.37000	3183.00000
38.38000	3157.00000
38.39000	3171.00000
38.40000	3126.00000
38.41000	3098.00000
38.42000	3145.00000
38.43000	3179.00000
38.44000	3196.00000
38.45000	3189.00000
38.46000	3191.00000
38.47000	3215.00000
38.48000	3262.00000
38.49000	3292.00000
38.50000	3322.00000
38.51000	3354.00000
38.52000	3343.00000
38.53000	3270.00000
38.54000	3234.00000
38.55000	3179.00000
38.56000	3203.00000
38.57000	3108.00000
38.58000	3083.00000
38.59000	3051.00000
38.60000	3040.00000
38.61000	3026.00000
38.62000	3013.00000
38.63000	2970.00000
38.64000	3012.00000
38.65000	3006.00000
38.66000	3007.00000
38.67000	3036.00000
38.68000	3096.00000
38.69000	3057.00000
38.70000	3064.00000
38.71000	3031.00000
38.72000	3014.00000
38.73000	3016.00000
38.74000	3065.00000
38.75000	3049.00000
38.76000	3055.00000
38.77000	3029.00000
38.78000	3004.00000
38.79000	2997.00000
38.80000	3014.00000
38.81000	2996.00000
38.82000	2957.00000
38.83000	2921.00000
38.84000	2931.00000
38.85000	2931.00000
38.86000	2982.00000
38.87000	2955.00000
38.88000	2986.00000
38.89000	2983.00000
38.90000	3001.00000
38.91000	2981.00000
38.92000	2983.00000
38.93000	2994.00000
38.94000	2995.00000
38.95000	3028.00000
38.96000	3043.00000
38.97000	3085.00000
38.98000	3142.00000
38.99000	3110.00000
39.00000	3111.00000
39.01000	3102.00000
39.02000	3107.00000
39.03000	3098.00000
39.04000	3123.00000
39.05000	3229.00000
39.06000	3294.00000
39.07000	3259.00000
39.08000	3282.00000
39.09000	3213.00000
39.10000	3203.00000
39.11000	3127.00000
39.12000	3143.00000
39.13000	3029.00000
39.14000	3004.00000
39.15000	2963.00000
39.16000	3024.00000
39.17000	2988.00000
39.18000	2971.00000
39.19000	2967.00000
39.20000	2992.00000
39.21000	2994.00000
39.22000	3000.00000
39.23000	3047.00000
39.24000	3046.00000
39.25000	3067.00000
39.26000	3046.00000
39.27000	3068.00000
39.28000	3118.00000
39.29000	3121.00000
39.30000	3143.00000
39.31000	3108.00000
39.32000	3126.00000
39.33000	3123.00000
39.34000	3104.00000
39.35000	3148.00000
39.36000	3119.00000
39.37000	3071.00000
39.38000	3078.00000
39.39000	3075.00000
39.40000	3130.00000
39.41000	3127.00000
39.42000	3119.00000
39.43000	3099.00000
39.44000	3103.00000
39.45000	3085.00000
39.46000	3089.00000
39.47000	3065.00000
39.48000	3092.00000
39.49000	3080.00000
39.50000	3149.00000
39.51000	3140.00000
39.52000	3253.00000
39.53000	3283.00000
39.54000	3339.00000
39.55000	3363.00000
39.56000	3434.00000
39.57000	3507.00000
39.58000	3590.00000
39.59000	3596.00000
39.60000	3593.00000
39.61000	3471.00000
39.62000	3420.00000
39.63000	3340.00000
39.64000	3293.00000
39.65000	3291.00000
39.66000	3238.00000
39.67000	3221.00000
39.68000	3251.00000
39.69000	3249.00000
39.70000	3288.00000
39.71000	3271.00000
39.72000	3222.00000
39.73000	3151.00000
39.74000	3143.00000
39.75000	3161.00000
39.76000	3216.00000
39.77000	3265.00000
39.78000	3249.00000
39.79000	3286.00000
39.80000	3289.00000
39.81000	3288.00000
39.82000	3311.00000
39.83000	3236.00000
39.84000	3245.00000
39.85000	3207.00000
39.86000	3188.00000
39.87000	3157.00000
39.88000	3185.00000
39.89000	3156.00000
39.90000	3217.00000
39.91000	3210.00000
39.92000	3300.00000
39.93000	3279.00000
39.94000	3284.00000
39.95000	3227.00000
39.96000	3140.00000
39.97000	3047.00000
39.98000	3054.00000
39.99000	2977.00000
40.00000	3031.00000
40.01000	3041.00000
40.02000	3020.00000
40.03000	2988.00000
40.04000	3032.00000
40.05000	3047.00000
40.06000	3083.00000
40.07000	3079.00000
40.08000	3088.00000
40.09000	3095.00000
40.10000	3101.00000
40.11000	3096.00000
40.12000	3129.00000
40.13000	3036.00000
40.14000	3035.00000
40.15000	2996.00000
40.16000	2986.00000
40.17000	2955.00000
40.18000	2975.00000
40.19000	2976.00000
40.20000	2955.00000
40.21000	2955.00000
40.22000	2974.00000
40.23000	2916.00000
40.24000	2943.00000
40.25000	2914.00000
40.26000	2899.00000
40.27000	2903.00000
40.28000	2897.00000
40.29000	2889.00000
40.30000	2901.00000
40.31000	2903.00000
40.32000	2924.00000
40.33000	2936.00000
40.34000	2932.00000
40.35000	2919.00000
40.36000	2909.00000
40.37000	2926.00000
40.38000	2904.00000
40.39000	2881.00000
40.40000	2889.00000
40.41000	2893.00000
40.42000	2891.00000
40.43000	2899.00000
40.44000	2868.00000
40.45000	2822.00000
40.46000	2863.00000
40.47000	2878.00000
40.48000	2899.00000
40.49000	2867.00000
40.50000	2869.00000
40.51000	2837.00000
40.52000	2831.00000
40.53000	2854.00000
40.54000	2924.00000
40.55000	2894.00000
40.56000	2964.00000
40.57000	2980.00000
40.58000	3027.00000
40.59000	3042.00000
40.60000	3061.00000
40.61000	3106.00000
40.62000	3135.00000
40.63000	3134.00000
40.64000	3147.00000
40.65000	3194.00000
40.66000	3166.00000
40.67000	3148.00000
40.68000	3176.00000
40.69000	3174.00000
40.70000	3124.00000
40.71000	3077.00000
40.72000	3060.00000
40.73000	3019.00000
40.74000	2970.00000
40.75000	2923.00000
40.76000	2939.00000
40.77000	2929.00000
40.78000	2941.00000
40.79000	2918.00000
40.80000	2937.00000
40.81000	2891.00000
40.82000	2927.00000
40.83000	2900.00000
40.84000	2934.00000
40.85000	2945.00000
40.86000	3005.00000
40.87000	2963.00000
40.88000	3024.00000
40.89000	3040.00000
40.90000	3075.00000
40.91000	3006.00000
40.92000	3017.00000
40.93000	2992.00000
40.94000	2970.00000
40.95000	2995.00000
40.96000	3022.00000
40.97000	3047.00000
40.98000	3090.00000
40.99000	3095.00000
41.00000	3117.00000
41.01000	3142.00000
41.02000	3161.00000
41.03000	3141.00000
41.04000	3123.00000
41.05000	3094.00000
41.06000	3064.00000
41.07000	3008.00000
41.08000	3003.00000
41.09000	2976.00000
41.10000	2960.00000
41.11000	2928.00000
41.12000	2965.00000
41.13000	2956.00000
41.14000	2975.00000
41.15000	2972.00000
41.16000	3007.00000
41.17000	2999.00000
41.18000	2994.00000
41.19000	2975.00000
41.20000	3022.00000
41.21000	3008.00000
41.22000	3020.00000
41.23000	2983.00000
41.24000	3020.00000
41.25000	3065.00000
41.26000	3094.00000
41.27000	3084.00000
41.28000	3137.00000
41.29000	3143.00000
41.30000	3148.00000
41.31000	3148.00000
41.32000	3066.00000
41.33000	3055.00000
41.34000	3018.00000
41.35000	2989.00000
41.36000	2967.00000
41.37000	2962.00000
41.38000	2962.00000
41.39000	2982.00000
41.40000	2944.00000
41.41000	2934.00000
41.42000	2994.00000
41.43000	3009.00000
41.44000	3041.00000
41.45000	3065.00000
41.46000	3117.00000
41.47000	3102.00000
41.48000	3109.00000
41.49000	3089.00000
41.50000	3060.00000
41.51000	3088.00000
41.52000	3088.00000
41.53000	3039.00000
41.54000	3101.00000
41.55000	3104.00000
41.56000	3184.00000
41.57000	3155.00000
41.58000	3203.00000
41.59000	3184.00000
41.60000	3236.00000
41.61000	3214.00000
41.62000	3264.00000
41.63000	3217.00000
41.64000	3181.00000
41.65000	3076.00000
41.66000	3105.00000
41.67000	3074.00000
41.68000	3062.00000
41.69000	2995.00000
41.70000	3007.00000
41.71000	2981.00000
41.72000	3005.00000
41.73000	2957.00000
41.74000	2996.00000
41.75000	2964.00000
41.76000	2911.00000
41.77000	2852.00000
41.78000	2842.00000
41.79000	2825.00000
41.80000	2827.00000
41.81000	2827.00000
41.82000	2807.00000
41.83000	2778.00000
41.84000	2803.00000
41.85000	2774.00000
41.86000	2802.00000
41.87000	2748.00000
41.88000	2799.00000
41.89000	2774.00000
41.90000	2819.00000
41.91000	2778.00000
41.92000	2775.00000
41.93000	2767.00000
41.94000	2752.00000
41.95000	2718.00000
41.96000	2755.00000
41.97000	2698.00000
41.98000	2736.00000
41.99000	2740.00000
42.00000	2733.00000
42.01000	2752.00000
42.02000	2782.00000
42.03000	2774.00000
42.04000	2822.00000
42.05000	2822.00000
42.06000	2804.00000
42.07000	2801.00000
42.08000	2768.00000
42.09000	2775.00000
42.10000	2749.00000
42.11000	2721.00000
42.12000	2713.00000
42.13000	2687.00000
42.14000	2730.00000
42.15000	2721.00000
42.16000	2731.00000
42.17000	2700.00000
42.18000	2721.00000
42.19000	2685.00000
42.20000	2704.00000
42.21000	2735.00000
42.22000	2726.00000
42.23000	2720.00000
42.24000	2715.00000
42.25000	2679.00000
42.26000	2663.00000
42.27000	2673.00000
42.28000	2697.00000
42.29000	2700.00000
42.30000	2692.00000
42.31000	2652.00000
42.32000	2719.00000
42.33000	2700.00000
42.34000	2764.00000
42.35000	2760.00000
42.36000	2775.00000
42.37000	2768.00000
42.38000	2768.00000
42.39000	2780.00000
42.40000	2861.00000
42.41000	2819.00000
42.42000	2845.00000
42.43000	2847.00000
42.44000	2858.00000
42.45000	2833.00000
42.46000	2831.00000
42.47000	2782.00000
42.48000	2758.00000
42.49000	2735.00000
42.50000	2743.00000
42.51000	2744.00000
42.52000	2724.00000
42.53000	2730.00000
42.54000	2700.00000
42.55000	2702.00000
42.56000	2680.00000
42.57000	2667.00000
42.58000	2715.00000
42.59000	2693.00000
42.60000	2686.00000
42.61000	2688.00000
42.62000	2692.00000
42.63000	2655.00000
42.64000	2733.00000
42.65000	2718.00000
42.66000	2706.00000
42.67000	2673.00000
42.68000	2687.00000
42.69000	2701.00000
42.70000	2671.00000
42.71000	2647.00000
42.72000	2662.00000
42.73000	2654.00000
42.74000	2633.00000
42.75000	2649.00000
42.76000	2646.00000
42.77000	2650.00000
42.78000	2669.00000
42.79000	2664.00000
42.80000	2714.00000
42.81000	2699.00000
42.82000	2728.00000
42.83000	2702.00000
42.84000	2677.00000
42.85000	2655.00000
42.86000	2670.00000
42.87000	2612.00000
42.88000	2670.00000
42.89000	2618.00000
42.90000	2659.00000
42.91000	2653.00000
42.92000	2722.00000
42.93000	2689.00000
42.94000	2751.00000
42.95000	2775.00000
42.96000	2797.00000
42.97000	2765.00000
42.98000	2797.00000
42.99000	2787.00000
43.00000	2828.00000
43.01000	2790.00000
43.02000	2830.00000
43.03000	2823.00000
43.04000	2852.00000
43.05000	2870.00000
43.06000	2918.00000
43.07000	2925.00000
43.08000	2911.00000
43.09000	2859.00000
43.10000	2899.00000
43.11000	2840.00000
43.12000	2836.00000
43.13000	2861.00000
43.14000	2845.00000
43.15000	2787.00000
43.16000	2794.00000
43.17000	2809.00000
43.18000	2820.00000
43.19000	2766.00000
43.20000	2754.00000
43.21000	2724.00000
43.22000	2733.00000
43.23000	2708.00000
43.24000	2745.00000
43.25000	2724.00000
43.26000	2733.00000
43.27000	2697.00000
43.28000	2770.00000
43.29000	2757.00000
43.30000	2782.00000
43.31000	2774.00000
43.32000	2774.00000
43.33000	2749.00000
43.34000	2806.00000
43.35000	2818.00000
43.36000	2844.00000
43.37000	2878.00000
43.38000	2823.00000
43.39000	2771.00000
43.40000	2824.00000
43.41000	2809.00000
43.42000	2842.00000
43.43000	2823.00000
43.44000	2813.00000
43.45000	2825.00000
43.46000	2861.00000
43.47000	2846.00000
43.48000	2917.00000
43.49000	2965.00000
43.50000	2959.00000
43.51000	2924.00000
43.52000	2915.00000
43.53000	2860.00000
43.54000	2878.00000
43.55000	2837.00000
43.56000	2811.00000
43.57000	2747.00000
43.58000	2770.00000
43.59000	2763.00000
43.60000	2770.00000
43.61000	2793.00000
43.62000	2806.00000
43.63000	2755.00000
43.64000	2808.00000
43.65000	2760.00000
43.66000	2759.00000
43.67000	2744.00000
43.68000	2720.00000
43.69000	2693.00000
43.70000	2746.00000
43.71000	2765.00000
43.72000	2802.00000
43.73000	2806.00000
43.74000	2835.00000
43.75000	2797.00000
43.76000	2844.00000
43.77000	2832.00000
43.78000	2820.00000
43.79000	2800.00000
43.80000	2825.00000
43.81000	2799.00000
43.82000	2811.00000
43.83000	2852.00000
43.84000	2890.00000
43.85000	2917.00000
43.86000	2950.00000
43.87000	2916.00000
43.88000	2942.00000
43.89000	2884.00000
43.90000	2912.00000
43.91000	2870.00000
43.92000	2863.00000
43.93000	2803.00000
43.94000	2821.00000
43.95000	2857.00000
43.96000	2861.00000
43.97000	2877.00000
43.98000	2863.00000
43.99000	2814.00000
44.00000	2779.00000
44.01000	2788.00000
44.02000	2806.00000
44.03000	2808.00000
44.04000	2811.00000
44.05000	2787.00000
44.06000	2806.00000
44.07000	2781.00000
44.08000	2830.00000
44.09000	2844.00000
44.10000	2832.00000
44.11000	2836.00000
44.12000	2844.00000
44.13000	2855.00000
44.14000	2818.00000
44.15000	2833.00000
44.16000	2811.00000
44.17000	2785.00000
44.18000	2794.00000
44.19000	2779.00000
44.20000	2782.00000
44.21000	2785.00000
44.22000	2742.00000
44.23000	2716.00000
44.24000	2735.00000
44.25000	2740.00000
44.26000	2749.00000
44.27000	2758.00000
44.28000	2764.00000
44.29000	2752.00000
44.30000	2774.00000
44.31000	2766.00000
44.32000	2819.00000
44.33000	2831.00000
44.34000	2791.00000
44.35000	2772.00000
44.36000	2747.00000
44.37000	2745.00000
44.38000	2736.00000
44.39000	2737.00000
44.40000	2770.00000
44.41000	2767.00000
44.42000	2788.00000
44.43000	2773.00000
44.44000	2772.00000
44.45000	2787.00000
44.46000	2797.00000
44.47000	2789.00000
44.48000	2793.00000
44.49000	2788.00000
44.50000	2792.00000
44.51000	2760.00000
44.52000	2776.00000
44.53000	2716.00000
44.54000	2737.00000
44.55000	2714.00000
44.56000	2742.00000
44.57000	2733.00000
44.58000	2747.00000
44.59000	2680.00000
44.60000	2725.00000
44.61000	2741.00000
44.62000	2798.00000
44.63000	2743.00000
44.64000	2767.00000
44.65000	2695.00000
44.66000	2714.00000
44.67000	2661.00000
44.68000	2640.00000
44.69000	2632.00000
44.70000	2615.00000
44.71000	2573.00000
44.72000	2591.00000
44.73000	2608.00000
44.74000	2616.00000
44.75000	2605.00000
44.76000	2631.00000
44.77000	2622.00000
44.78000	2646.00000
44.79000	2640.00000
44.80000	2684.00000
44.81000	2666.00000
44.82000	2638.00000
44.83000	2662.00000
44.84000	2627.00000
44.85000	2637.00000
44.86000	2677.00000
44.87000	2637.00000
44.88000	2678.00000
44.89000	2610.00000
44.90000	2604.00000
44.91000	2610.00000
44.92000	2659.00000
44.93000	2620.00000
44.94000	2664.00000
44.95000	2622.00000
44.96000	2649.00000
44.97000	2649.00000
44.98000	2671.00000
44.99000	2609.00000
45.00000	2606.00000
45.01000	2606.00000
45.02000	2640.00000
45.03000	2652.00000
45.04000	2672.00000
45.05000	2665.00000
45.06000	2660.00000
45.07000	2623.00000
45.08000	2609.00000
45.09000	2639.00000
45.10000	2660.00000
45.11000	2634.00000
45.12000	2627.00000
45.13000	2616.00000
45.14000	2601.00000
45.15000	2615.00000
45.16000	2644.00000
45.17000	2649.00000
45.18000	2683.00000
45.19000	2663.00000
45.20000	2690.00000
45.21000	2725.00000
45.22000	2786.00000
45.23000	2809.00000
45.24000	2831.00000
45.25000	2871.00000
45.26000	2854.00000
45.27000	2882.00000
45.28000	2933.00000
45.29000	2922.00000
45.30000	2976.00000
45.31000	2931.00000
45.32000	2924.00000
45.33000	2929.00000
45.34000	2925.00000
45.35000	2880.00000
45.36000	2880.00000
45.37000	2864.00000
45.38000	2852.00000
45.39000	2823.00000
45.40000	2845.00000
45.41000	2811.00000
45.42000	2812.00000
45.43000	2794.00000
45.44000	2766.00000
45.45000	2747.00000
45.46000	2720.00000
45.47000	2713.00000
45.48000	2699.00000
45.49000	2665.00000
45.50000	2666.00000
45.51000	2662.00000
45.52000	2677.00000
45.53000	2676.00000
45.54000	2661.00000
45.55000	2639.00000
45.56000	2666.00000
45.57000	2655.00000
45.58000	2720.00000
45.59000	2731.00000
45.60000	2735.00000
45.61000	2725.00000
45.62000	2708.00000
45.63000	2676.00000
45.64000	2675.00000
45.65000	2680.00000
45.66000	2748.00000
45.67000	2717.00000
45.68000	2736.00000
45.69000	2774.00000
45.70000	2755.00000
45.71000	2727.00000
45.72000	2720.00000
45.73000	2709.00000
45.74000	2689.00000
45.75000	2671.00000
45.76000	2711.00000
45.77000	2713.00000
45.78000	2716.00000
45.79000	2741.00000
45.80000	2729.00000
45.81000	2731.00000
45.82000	2728.00000
45.83000	2705.00000
45.84000	2722.00000
45.85000	2650.00000
45.86000	2659.00000
45.87000	2654.00000
45.88000	2700.00000
45.89000	2696.00000
45.90000	2697.00000
45.91000	2697.00000
45.92000	2699.00000
45.93000	2673.00000
45.94000	2710.00000
45.95000	2671.00000
45.96000	2652.00000
45.97000	2619.00000
45.98000	2633.00000
45.99000	2660.00000
46.00000	2671.00000
46.01000	2660.00000
46.02000	2622.00000
46.03000	2643.00000
46.04000	2612.00000
46.05000	2603.00000
46.06000	2661.00000
46.07000	2659.00000
46.08000	2641.00000
46.09000	2644.00000
46.10000	2667.00000
46.11000	2653.00000
46.12000	2710.00000
46.13000	2660.00000
46.14000	2671.00000
46.15000	2638.00000
46.16000	2671.00000
46.17000	2615.00000
46.18000	2633.00000
46.19000	2633.00000
46.20000	2629.00000
46.21000	2608.00000
46.22000	2611.00000
46.23000	2626.00000
46.24000	2634.00000
46.25000	2630.00000
46.26000	2644.00000
46.27000	2626.00000
46.28000	2625.00000
46.29000	2644.00000
46.30000	2667.00000
46.31000	2680.00000
46.32000	2679.00000
46.33000	2662.00000
46.34000	2660.00000
46.35000	2692.00000
46.36000	2701.00000
46.37000	2647.00000
46.38000	2659.00000
46.39000	2662.00000
46.40000	2656.00000
46.41000	2626.00000
46.42000	2633.00000
46.43000	2610.00000
46.44000	2609.00000
46.45000	2590.00000
46.46000	2605.00000
46.47000	2611.00000
46.48000	2613.00000
46.49000	2635.00000
46.50000	2633.00000
46.51000	2601.00000
46.52000	2645.00000
46.53000	2606.00000
46.54000	2653.00000
46.55000	2624.00000
46.56000	2646.00000
46.57000	2617.00000
46.58000	2627.00000
46.59000	2611.00000
46.60000	2638.00000
46.61000	2601.00000
46.62000	2595.00000
46.63000	2577.00000
46.64000	2615.00000
46.65000	2614.00000
46.66000	2656.00000
46.67000	2668.00000
46.68000	2653.00000
46.69000	2629.00000
46.70000	2654.00000
46.71000	2643.00000
46.72000	2620.00000
46.73000	2599.00000
46.74000	2591.00000
46.75000	2583.00000
46.76000	2552.00000
46.77000	2561.00000
46.78000	2583.00000
46.79000	2579.00000
46.80000	2581.00000
46.81000	2534.00000
46.82000	2568.00000
46.83000	2565.00000
46.84000	2611.00000
46.85000	2574.00000
46.86000	2573.00000
46.87000	2520.00000
46.88000	2573.00000
46.89000	2597.00000
46.90000	2596.00000
46.91000	2635.00000
46.92000	2621.00000
46.93000	2606.00000
46.94000	2668.00000
46.95000	2643.00000
46.96000	2667.00000
46.97000	2680.00000
46.98000	2666.00000
46.99000	2669.00000
47.00000	2682.00000
47.01000	2658.00000
47.02000	2662.00000
47.03000	2663.00000
47.04000	2709.00000
47.05000	2676.00000
47.06000	2705.00000
47.07000	2688.00000
47.08000	2743.00000
47.09000	2702.00000
47.10000	2647.00000
47.11000	2599.00000
47.12000	2606.00000
47.13000	2611.00000
47.14000	2618.00000
47.15000	2605.00000
47.16000	2583.00000
47.17000	2581.00000
47.18000	2579.00000
47.19000	2568.00000
47.20000	2589.00000
47.21000	2591.00000
47.22000	2611.00000
47.23000	2577.00000
47.24000	2617.00000
47.25000	2604.00000
47.26000	2604.00000
47.27000	2591.00000
47.28000	2584.00000
47.29000	2563.00000
47.30000	2582.00000
47.31000	2560.00000
47.32000	2592.00000
47.33000	2584.00000
47.34000	2599.00000
47.35000	2557.00000
47.36000	2568.00000
47.37000	2561.00000
47.38000	2527.00000
47.39000	2551.00000
47.40000	2577.00000
47.41000	2537.00000
47.42000	2546.00000
47.43000	2555.00000
47.44000	2606.00000
47.45000	2601.00000
47.46000	2585.00000
47.47000	2589.00000
47.48000	2599.00000
47.49000	2568.00000
47.50000	2596.00000
47.51000	2573.00000
47.52000	2597.00000
47.53000	2552.00000
47.54000	2576.00000
47.55000	2552.00000
47.56000	2575.00000
47.57000	2591.00000
47.58000	2566.00000
47.59000	2553.00000
47.60000	2568.00000
47.61000	2566.00000
47.62000	2583.00000
47.63000	2573.00000
47.64000	2563.00000
47.65000	2538.00000
47.66000	2538.00000
47.67000	2545.00000
47.68000	2595.00000
47.69000	2546.00000
47.70000	2571.00000
47.71000	2552.00000
47.72000	2537.00000
47.73000	2523.00000
47.74000	2526.00000
47.75000	2540.00000
47.76000	2541.00000
47.77000	2520.00000
47.78000	2535.00000
47.79000	2513.00000
47.80000	2584.00000
47.81000	2567.00000
47.82000	2540.00000
47.83000	2525.00000
47.84000	2559.00000
47.85000	2568.00000
47.86000	2595.00000
47.87000	2600.00000
47.88000	2588.00000
47.89000	2584.00000
47.90000	2611.00000
47.91000	2606.00000
47.92000	2643.00000
47.93000	2671.00000
47.94000	2631.00000
47.95000	2629.00000
47.96000	2641.00000
47.97000	2604.00000
47.98000	2640.00000
47.99000	2648.00000
48.00000	2615.00000
48.01000	2577.00000
48.02000	2589.00000
48.03000	2594.00000
48.04000	2577.00000
48.05000	2559.00000
48.06000	2548.00000
48.07000	2501.00000
48.08000	2494.00000
48.09000	2498.00000
48.10000	2471.00000
48.11000	2459.00000
48.12000	2480.00000
48.13000	2470.00000
48.14000	2472.00000
48.15000	2487.00000
48.16000	2522.00000
48.17000	2507.00000
48.18000	2532.00000
48.19000	2551.00000
48.20000	2542.00000
48.21000	2543.00000
48.22000	2551.00000
48.23000	2520.00000
48.24000	2512.00000
48.25000	2492.00000
48.26000	2501.00000
48.27000	2479.00000
48.28000	2499.00000
48.29000	2486.00000
48.30000	2508.00000
48.31000	2464.00000
48.32000	2466.00000
48.33000	2472.00000
48.34000	2452.00000
48.35000	2492.00000
48.36000	2444.00000
48.37000	2434.00000
48.38000	2477.00000
48.39000	2422.00000
48.40000	2449.00000
48.41000	2456.00000
48.42000	2473.00000
48.43000	2443.00000
48.44000	2486.00000
48.45000	2491.00000
48.46000	2518.00000
48.47000	2470.00000
48.48000	2479.00000
48.49000	2478.00000
48.50000	2490.00000
48.51000	2469.00000
48.52000	2488.00000
48.53000	2479.00000
48.54000	2454.00000
48.55000	2463.00000
48.56000	2433.00000
48.57000	2417.00000
48.58000	2454.00000
48.59000	2441.00000
48.60000	2441.00000
48.61000	2410.00000
48.62000	2458.00000
48.63000	2435.00000
48.64000	2468.00000
48.65000	2467.00000
48.66000	2466.00000
48.67000	2467.00000
48.68000	2446.00000
48.69000	2446.00000
48.70000	2476.00000
48.71000	2454.00000
48.72000	2469.00000
48.73000	2449.00000
48.74000	2436.00000
48.75000	2444.00000
48.76000	2459.00000
48.77000	2493.00000
48.78000	2501.00000
48.79000	2476.00000
48.80000	2507.00000
48.81000	2494.00000
48.82000	2512.00000
48.83000	2492.00000
48.84000	2524.00000
48.85000	2511.00000
48.86000	2502.00000
48.87000	2501.00000
48.88000	2567.00000
48.89000	2562.00000
48.90000	2576.00000
48.91000	2594.00000
48.92000	2601.00000
48.93000	2613.00000
48.94000	2614.00000
48.95000	2656.00000
48.96000	2626.00000
48.97000	2599.00000
48.98000	2610.00000
48.99000	2596.00000
49.00000	2614.00000
49.01000	2598.00000
49.02000	2626.00000
49.03000	2549.00000
49.04000	2571.00000
49.05000	2518.00000
49.06000	2522.00000
49.07000	2506.00000
49.08000	2475.00000
49.09000	2469.00000
49.10000	2485.00000
49.11000	2448.00000
49.12000	2456.00000
49.13000	2449.00000
49.14000	2473.00000
49.15000	2477.00000
49.16000	2498.00000
49.17000	2464.00000
49.18000	2473.00000
49.19000	2458.00000
49.20000	2443.00000
49.21000	2425.00000
49.22000	2445.00000
49.23000	2456.00000
49.24000	2483.00000
49.25000	2473.00000
49.26000	2471.00000
49.27000	2470.00000
49.28000	2457.00000
49.29000	2449.00000
49.30000	2489.00000
49.31000	2450.00000
49.32000	2434.00000
49.33000	2426.00000
49.34000	2465.00000
49.35000	2466.00000
49.36000	2421.00000
49.37000	2444.00000
49.38000	2441.00000
49.39000	2418.00000
49.40000	2452.00000
49.41000	2468.00000
49.42000	2437.00000
49.43000	2449.00000
49.44000	2463.00000
49.45000	2454.00000
49.46000	2460.00000
49.47000	2466.00000
49.48000	2501.00000
49.49000	2489.00000
49.50000	2492.00000
49.51000	2476.00000
49.52000	2506.00000
49.53000	2463.00000
49.54000	2504.00000
49.55000	2512.00000
49.56000	2494.00000
49.57000	2445.00000
49.58000	2469.00000
49.59000	2434.00000
49.60000	2446.00000
49.61000	2444.00000
49.62000	2440.00000
49.63000	2419.00000
49.64000	2459.00000
49.65000	2434.00000
49.66000	2448.00000
49.67000	2484.00000
49.68000	2484.00000
49.69000	2439.00000
49.70000	2461.00000
49.71000	2463.00000
49.72000	2463.00000
49.73000	2459.00000
49.74000	2453.00000
49.75000	2423.00000
49.76000	2408.00000
49.77000	2392.00000
49.78000	2414.00000
49.79000	2407.00000
49.80000	2393.00000
49.81000	2375.00000
49.82000	2383.00000
49.83000	2361.00000
49.84000	2399.00000
49.85000	2397.00000
49.86000	2374.00000
49.87000	2362.00000
49.88000	2374.00000
49.89000	2362.00000
49.90000	2385.00000
49.91000	2401.00000
49.92000	2385.00000
49.93000	2353.00000
49.94000	2431.00000
49.95000	2390.00000
49.96000	2396.00000
49.97000	2393.00000
49.98000	2391.00000
49.99000	2346.00000
50.00000	2370.00000
50.01000	2370.00000
50.02000	2399.00000
50.03000	2366.00000
50.04000	2360.00000
50.05000	2358.00000
50.06000	2350.00000
50.07000	2350.00000
50.08000	2404.00000
50.09000	2375.00000
50.10000	2357.00000
50.11000	2362.00000
50.12000	2357.00000
50.13000	2345.00000
50.14000	2380.00000
50.15000	2397.00000
50.16000	2394.00000
50.17000	2358.00000
50.18000	2379.00000
50.19000	2366.00000
50.20000	2385.00000
50.21000	2394.00000
50.22000	2402.00000
50.23000	2370.00000
50.24000	2357.00000
50.25000	2377.00000
50.26000	2406.00000
50.27000	2405.00000
50.28000	2431.00000
50.29000	2422.00000
50.30000	2414.00000
50.31000	2418.00000
50.32000	2418.00000
50.33000	2442.00000
50.34000	2415.00000
50.35000	2401.00000
50.36000	2449.00000
50.37000	2436.00000
50.38000	2467.00000
50.39000	2468.00000
50.40000	2484.00000
50.41000	2447.00000
50.42000	2451.00000
50.43000	2442.00000
50.44000	2465.00000
50.45000	2461.00000
50.46000	2490.00000
50.47000	2479.00000
50.48000	2490.00000
50.49000	2491.00000
50.50000	2506.00000
50.51000	2486.00000
50.52000	2493.00000
50.53000	2471.00000
50.54000	2497.00000
50.55000	2467.00000
50.56000	2479.00000
50.57000	2488.00000
50.58000	2467.00000
50.59000	2432.00000
50.60000	2413.00000
50.61000	2410.00000
50.62000	2413.00000
50.63000	2398.00000
50.64000	2408.00000
50.65000	2380.00000
50.66000	2402.00000
50.67000	2426.00000
50.68000	2444.00000
50.69000	2447.00000
50.70000	2438.00000
50.71000	2433.00000
50.72000	2460.00000
50.73000	2447.00000
50.74000	2434.00000
50.75000	2425.00000
50.76000	2396.00000
50.77000	2399.00000
50.78000	2429.00000
50.79000	2421.00000
50.80000	2437.00000
50.81000	2442.00000
50.82000	2457.00000
50.83000	2431.00000
50.84000	2420.00000
50.85000	2435.00000
50.86000	2441.00000
50.87000	2471.00000
50.88000	2433.00000
50.89000	2431.00000
50.90000	2476.00000
50.91000	2435.00000
50.92000	2453.00000
50.93000	2408.00000
50.94000	2398.00000
50.95000	2377.00000
50.96000	2405.00000
50.97000	2392.00000
50.98000	2385.00000
50.99000	2405.00000
51.00000	2394.00000
51.01000	2380.00000
51.02000	2422.00000
51.03000	2385.00000
51.04000	2394.00000
51.05000	2375.00000
51.06000	2386.00000
51.07000	2363.00000
51.08000	2409.00000
51.09000	2371.00000
51.10000	2385.00000
51.11000	2349.00000
51.12000	2368.00000
51.13000	2345.00000
51.14000	2363.00000
51.15000	2335.00000
51.16000	2361.00000
51.17000	2359.00000
51.18000	2361.00000
51.19000	2341.00000
51.20000	2369.00000
51.21000	2339.00000
51.22000	2365.00000
51.23000	2356.00000
51.24000	2348.00000
51.25000	2331.00000
51.26000	2334.00000
51.27000	2331.00000
51.28000	2383.00000
51.29000	2352.00000
51.30000	2333.00000
51.31000	2340.00000
51.32000	2358.00000
51.33000	2336.00000
51.34000	2357.00000
51.35000	2358.00000
51.36000	2367.00000
51.37000	2377.00000
51.38000	2382.00000
51.39000	2374.00000
51.40000	2417.00000
51.41000	2380.00000
51.42000	2343.00000
51.43000	2325.00000
51.44000	2354.00000
51.45000	2312.00000
51.46000	2366.00000
51.47000	2355.00000
51.48000	2357.00000
51.49000	2321.00000
51.50000	2320.00000
51.51000	2341.00000
51.52000	2341.00000
51.53000	2351.00000
51.54000	2359.00000
51.55000	2331.00000
51.56000	2365.00000
51.57000	2345.00000
51.58000	2357.00000
51.59000	2349.00000
51.60000	2378.00000
51.61000	2320.00000
51.62000	2339.00000
51.63000	2350.00000
51.64000	2365.00000
51.65000	2367.00000
51.66000	2356.00000
51.67000	2323.00000
51.68000	2382.00000
51.69000	2358.00000
51.70000	2394.00000
51.71000	2363.00000
51.72000	2362.00000
51.73000	2341.00000
51.74000	2356.00000
51.75000	2343.00000
51.76000	2352.00000
51.77000	2367.00000
51.78000	2379.00000
51.79000	2347.00000
51.80000	2340.00000
51.81000	2337.00000
51.82000	2349.00000
51.83000	2346.00000
51.84000	2335.00000
51.85000	2329.00000
51.86000	2341.00000
51.87000	2345.00000
51.88000	2391.00000
51.89000	2347.00000
51.90000	2355.00000
51.91000	2326.00000
51.92000	2349.00000
51.93000	2352.00000
51.94000	2352.00000
51.95000	2368.00000
51.96000	2366.00000
51.97000	2347.00000
51.98000	2370.00000
51.99000	2384.00000
52.00000	2415.00000
52.01000	2417.00000
52.02000	2448.00000
52.03000	2445.00000
52.04000	2463.00000
52.05000	2458.00000
52.06000	2502.00000
52.07000	2499.00000
52.08000	2485.00000
52.09000	2453.00000
52.10000	2461.00000
52.11000	2429.00000
52.12000	2437.00000
52.13000	2419.00000
52.14000	2451.00000
52.15000	2418.00000
52.16000	2422.00000
52.17000	2413.00000
52.18000	2422.00000
52.19000	2385.00000
52.20000	2388.00000
52.21000	2382.00000
52.22000	2397.00000
52.23000	2391.00000
52.24000	2374.00000
52.25000	2363.00000
52.26000	2344.00000
52.27000	2293.00000
52.28000	2312.00000
52.29000	2323.00000
52.30000	2333.00000
52.31000	2333.00000
52.32000	2297.00000
52.33000	2278.00000
52.34000	2337.00000
52.35000	2292.00000
52.36000	2305.00000
52.37000	2306.00000
52.38000	2344.00000
52.39000	2325.00000
52.40000	2340.00000
52.41000	2333.00000
52.42000	2354.00000
52.43000	2310.00000
52.44000	2315.00000
52.45000	2304.00000
52.46000	2303.00000
52.47000	2272.00000
52.48000	2345.00000
52.49000	2310.00000
52.50000	2307.00000
52.51000	2316.00000
52.52000	2327.00000
52.53000	2313.00000
52.54000	2322.00000
52.55000	2330.00000
52.56000	2340.00000
52.57000	2286.00000
52.58000	2284.00000
52.59000	2297.00000
52.60000	2311.00000
52.61000	2297.00000
52.62000	2320.00000
