8.04120	535.00000
8.06740	539.00000
8.09370	539.00000
8.12000	588.00000
8.14620	531.00000
8.17250	593.00000
8.19870	538.00000
8.22500	591.00000
8.25130	587.00000
8.27750	530.00000
8.30380	575.00000
8.33000	543.00000
8.35630	579.00000
8.38260	556.00000
8.40880	576.00000
8.43510	605.00000
8.46130	571.00000
8.48760	595.00000
8.51390	594.00000
8.54010	593.00000
8.56640	637.00000
8.59260	525.00000
8.61890	587.00000
8.64520	584.00000
8.67140	578.00000
8.69770	585.00000
8.72400	565.00000
8.75020	574.00000
8.77650	549.00000
8.80270	580.00000
8.82900	577.00000
8.85530	600.00000
8.88150	604.00000
8.90780	616.00000
8.93400	614.00000
8.96030	617.00000
8.98660	596.00000
9.01280	568.00000
9.03910	560.00000
9.06530	573.00000
9.09160	644.00000
9.11790	718.00000
9.14410	660.00000
9.17040	701.00000
9.19660	674.00000
9.22290	691.00000
9.24920	658.00000
9.27540	629.00000
9.30170	635.00000
9.32790	653.00000
9.35420	609.00000
9.38050	564.00000
9.40670	574.00000
9.43300	604.00000
9.45920	621.00000
9.48550	555.00000
9.51180	591.00000
9.53800	579.00000
9.56430	601.00000
9.59050	570.00000
9.61680	628.00000
9.64310	551.00000
9.66930	520.00000
9.69560	550.00000
9.72190	540.00000
9.74810	607.00000
9.77440	561.00000
9.80060	571.00000
9.82690	566.00000
9.85320	535.00000
9.87940	560.00000
9.90570	559.00000
9.93190	559.00000
9.95820	564.00000
9.98450	565.00000
10.01070	611.00000
10.03700	534.00000
10.06320	569.00000
10.08950	565.00000
10.11580	539.00000
10.14200	548.00000
10.16830	539.00000
10.19450	535.00000
10.22080	553.00000
10.24710	550.00000
10.27330	559.00000
10.29960	585.00000
10.32580	594.00000
10.35210	576.00000
10.37840	563.00000
10.40460	561.00000
10.43090	576.00000
10.45710	579.00000
10.48340	587.00000
10.50970	641.00000
10.53590	603.00000
10.56220	541.00000
10.58850	568.00000
10.61470	606.00000
10.64100	584.00000
10.66720	507.00000
10.69350	577.00000
10.71980	539.00000
10.74600	557.00000
10.77230	605.00000
10.79850	583.00000
10.82480	643.00000
10.85110	567.00000
10.87730	558.00000
10.90360	575.00000
10.92980	534.00000
10.95610	530.00000
10.98240	583.00000
11.00860	535.00000
11.03490	568.00000
11.06110	620.00000
11.08740	599.00000
11.11370	621.00000
11.13990	636.00000
11.16620	669.00000
11.19240	615.00000
11.21870	715.00000
11.24500	759.00000
11.27120	839.00000
11.29750	1001.00000
11.32370	1291.00000
11.35000	1728.00000
11.37630	2063.00000
11.40250	1930.00000
11.42880	1456.00000
11.45510	1153.00000
11.48130	922.00000
11.50760	1044.00000
11.53380	1180.00000
11.56010	1558.00000
11.58640	2033.00000
11.61260	2163.00000
11.63890	1810.00000
11.66510	1392.00000
11.69140	1502.00000
11.71770	2075.00000
11.74390	3175.00000
11.77020	5731.00000
11.79640	10244.00000
11.82270	16330.00000
11.84900	16134.00000
11.87520	10105.00000
11.90150	4580.00000
11.92770	2266.00000
11.95400	1565.00000
11.98030	1105.00000
12.00650	954.00000
12.03280	947.00000
12.05900	907.00000
12.08530	857.00000
12.11160	828.00000
12.13780	824.00000
12.16410	825.00000
12.19030	805.00000
12.21660	755.00000
12.24290	688.00000
12.26910	620.00000
12.29540	594.00000
12.32160	591.00000
12.34790	582.00000
12.37420	640.00000
12.40040	583.00000
12.42670	576.00000
12.45300	574.00000
12.47920	565.00000
12.50550	616.00000
12.53170	545.00000
12.55800	540.00000
12.58430	548.00000
12.61050	576.00000
12.63680	538.00000
12.66300	516.00000
12.68930	556.00000
12.71560	547.00000
12.74180	567.00000
12.76810	543.00000
12.79430	561.00000
12.82060	613.00000
12.84690	543.00000
12.87310	572.00000
12.89940	579.00000
12.92560	547.00000
12.95190	566.00000
12.97820	592.00000
13.00440	558.00000
13.03070	631.00000
13.05690	621.00000
13.08320	583.00000
13.10950	607.00000
13.13570	677.00000
13.16200	659.00000
13.18820	698.00000
13.21450	783.00000
13.24080	784.00000
13.26700	807.00000
13.29330	762.00000
13.31960	779.00000
13.34580	637.00000
13.37210	641.00000
13.39830	647.00000
13.42460	653.00000
13.45090	538.00000
13.47710	611.00000
13.50340	596.00000
13.52960	598.00000
13.55590	698.00000
13.58220	684.00000
13.60840	667.00000
13.63470	626.00000
13.66090	604.00000
13.68720	563.00000
13.71350	537.00000
13.73970	575.00000
13.76600	542.00000
13.79220	567.00000
13.81850	542.00000
13.84480	578.00000
13.87100	559.00000
13.89730	549.00000
13.92350	551.00000
13.94980	575.00000
13.97610	549.00000
14.00230	582.00000
14.02860	557.00000
14.05480	586.00000
14.08110	600.00000
14.10740	529.00000
14.13360	601.00000
14.15990	665.00000
14.18610	689.00000
14.21240	822.00000
14.23870	863.00000
14.26490	731.00000
14.29120	680.00000
14.31750	589.00000
14.34370	553.00000
14.37000	616.00000
14.39620	559.00000
14.42250	599.00000
14.44880	565.00000
14.47500	569.00000
14.50130	577.00000
14.52750	555.00000
14.55380	631.00000
14.58010	644.00000
14.60630	737.00000
14.63260	808.00000
14.65880	984.00000
14.68510	1470.00000
14.71140	2336.00000
14.73760	3731.00000
14.76390	4627.00000
14.79010	4105.00000
14.81640	2739.00000
14.84270	1658.00000
14.86890	1097.00000
14.89520	825.00000
14.92140	722.00000
14.94770	647.00000
14.97400	639.00000
15.00020	575.00000
15.02650	612.00000
15.05270	637.00000
15.07900	601.00000
15.10530	585.00000
15.13150	578.00000
15.15780	566.00000
15.18410	568.00000
15.21030	595.00000
15.23660	519.00000
15.26280	558.00000
15.28910	552.00000
15.31540	578.00000
15.34160	546.00000
15.36790	576.00000
15.39410	577.00000
15.42040	574.00000
15.44670	595.00000
15.47290	567.00000
15.49920	553.00000
15.52540	572.00000
15.55170	552.00000
15.57800	566.00000
15.60420	560.00000
15.63050	616.00000
15.65670	647.00000
15.68300	576.00000
15.70930	564.00000
15.73550	587.00000
15.76180	555.00000
15.78800	602.00000
15.81430	632.00000
15.84060	586.00000
15.86680	658.00000
15.89310	654.00000
15.91930	688.00000
15.94560	674.00000
15.97190	828.00000
15.99810	860.00000
16.02440	987.00000
16.05060	1033.00000
16.07690	975.00000
16.10320	894.00000
16.12940	735.00000
16.15570	704.00000
16.18200	644.00000
16.20820	642.00000
16.23450	626.00000
16.26070	629.00000
16.28700	638.00000
16.31330	614.00000
16.33950	590.00000
16.36580	567.00000
16.39200	585.00000
16.41830	637.00000
16.44460	593.00000
16.47080	590.00000
16.49710	607.00000
16.52330	577.00000
16.54960	569.00000
16.57590	605.00000
16.60210	616.00000
16.62840	587.00000
16.65460	590.00000
16.68090	591.00000
16.70720	573.00000
16.73340	616.00000
16.75970	601.00000
16.78590	592.00000
16.81220	576.00000
16.83850	600.00000
16.86470	624.00000
16.89100	580.00000
16.91720	583.00000
16.94350	666.00000
16.96980	634.00000
16.99600	631.00000
17.02230	620.00000
17.04860	561.00000
17.07480	616.00000
17.10110	604.00000
17.12730	565.00000
17.15360	611.00000
17.17990	596.00000
17.20610	659.00000
17.23240	609.00000
17.25860	602.00000
17.28490	617.00000
17.31120	618.00000
17.33740	650.00000
17.36370	646.00000
17.38990	664.00000
17.41620	621.00000
17.44250	631.00000
17.46870	632.00000
17.49500	645.00000
17.52120	642.00000
17.54750	624.00000
17.57380	685.00000
17.60000	680.00000
17.62630	632.00000
17.65250	690.00000
17.67880	690.00000
17.70510	667.00000
17.73130	733.00000
17.75760	779.00000
17.78380	834.00000
17.81010	982.00000
17.83640	1270.00000
17.86260	1757.00000
17.88890	3139.00000
17.91510	5907.00000
17.94140	8286.00000
17.96770	8159.00000
17.99390	5996.00000
18.02020	3540.00000
18.04650	1798.00000
18.07270	1155.00000
18.09900	975.00000
18.12520	833.00000
18.15150	754.00000
18.17780	734.00000
18.20400	745.00000
18.23030	722.00000
18.25650	775.00000
18.28280	732.00000
18.30910	764.00000
18.33530	791.00000
18.36160	836.00000
18.38780	912.00000
18.41410	986.00000
18.44040	992.00000
18.46660	1012.00000
18.49290	1101.00000
18.51910	1346.00000
18.54540	1623.00000
18.57170	1500.00000
18.59790	1375.00000
18.62420	1002.00000
18.65040	832.00000
18.67670	779.00000
18.70300	734.00000
18.72920	699.00000
18.75550	782.00000
18.78170	736.00000
18.80800	748.00000
18.83430	664.00000
18.86050	737.00000
18.88680	742.00000
18.91310	851.00000
18.93930	833.00000
18.96560	784.00000
18.99180	777.00000
19.01810	814.00000
19.04440	720.00000
19.07060	753.00000
19.09690	759.00000
19.12310	734.00000
19.14940	685.00000
19.17570	682.00000
19.20190	744.00000
19.22820	697.00000
19.25440	695.00000
19.28070	715.00000
19.30700	707.00000
19.33320	715.00000
19.35950	726.00000
19.38570	725.00000
19.41200	731.00000
19.43830	764.00000
19.46450	762.00000
19.49080	766.00000
19.51700	737.00000
19.54330	754.00000
19.56960	767.00000
19.59580	819.00000
19.62210	853.00000
19.64830	1071.00000
19.67460	1359.00000
19.70090	1753.00000
19.72710	2636.00000
19.75340	3397.00000
19.77960	3337.00000
19.80590	2920.00000
19.83220	2173.00000
19.85840	1637.00000
19.88470	1224.00000
19.91100	1055.00000
19.93720	911.00000
19.96350	827.00000
19.98970	861.00000
20.01600	819.00000
20.04230	826.00000
20.06850	796.00000
20.09480	840.00000
20.12100	892.00000
20.14730	959.00000
20.17360	1009.00000
20.19980	1011.00000
20.22610	963.00000
20.25230	876.00000
20.27860	848.00000
20.30490	835.00000
20.33110	784.00000
20.35740	777.00000
20.38360	707.00000
20.40990	780.00000
20.43620	725.00000
20.46240	733.00000
20.48870	724.00000
20.51490	755.00000
20.54120	718.00000
20.56750	791.00000
20.59370	728.00000
20.62000	765.00000
20.64620	725.00000
20.67250	731.00000
20.69880	765.00000
20.72500	727.00000
20.75130	729.00000
20.77760	714.00000
20.80380	742.00000
20.83010	699.00000
20.85630	722.00000
20.88260	769.00000
20.90890	718.00000
20.93510	711.00000
20.96140	754.00000
20.98760	721.00000
21.01390	707.00000
21.04020	715.00000
21.06640	738.00000
21.09270	701.00000
21.11890	701.00000
21.14520	727.00000
21.17150	695.00000
21.19770	785.00000
21.22400	754.00000
21.25020	713.00000
21.27650	744.00000
21.30280	706.00000
21.32900	763.00000
21.35530	699.00000
21.38150	661.00000
21.40780	735.00000
21.43410	745.00000
21.46030	783.00000
21.48660	735.00000
21.51280	715.00000
21.53910	726.00000
21.56540	753.00000
21.59160	763.00000
21.61790	706.00000
21.64420	790.00000
21.67040	764.00000
21.69670	722.00000
21.72290	827.00000
21.74920	743.00000
21.77550	692.00000
21.80170	748.00000
21.82800	754.00000
21.85420	734.00000
21.88050	716.00000
21.90680	719.00000
21.93300	785.00000
21.95930	708.00000
21.98550	735.00000
22.01180	730.00000
22.03810	759.00000
22.06430	743.00000
22.09060	731.00000
22.11680	748.00000
22.14310	726.00000
22.16940	718.00000
22.19560	747.00000
22.22190	736.00000
22.24810	706.00000
22.27440	730.00000
22.30070	730.00000
22.32690	723.00000
22.35320	685.00000
22.37940	718.00000
22.40570	757.00000
22.43200	758.00000
22.45820	719.00000
22.48450	758.00000
22.51070	757.00000
22.53700	714.00000
22.56330	727.00000
22.58950	782.00000
22.61580	710.00000
22.64210	763.00000
22.66830	709.00000
22.69460	721.00000
22.72080	708.00000
22.74710	714.00000
22.77340	751.00000
22.79960	723.00000
22.82590	752.00000
22.85210	739.00000
22.87840	707.00000
22.90470	733.00000
22.93090	726.00000
22.95720	756.00000
22.98340	728.00000
23.00970	724.00000
23.03600	764.00000
23.06220	869.00000
23.08850	827.00000
23.11470	895.00000
23.14100	1017.00000
23.16730	1213.00000
23.19350	1332.00000
23.21980	1374.00000
23.24600	1308.00000
23.27230	1198.00000
23.29860	1121.00000
23.32480	1013.00000
23.35110	937.00000
23.37730	790.00000
23.40360	842.00000
23.42990	753.00000
23.45610	722.00000
23.48240	747.00000
23.50870	731.00000
23.53490	714.00000
23.56120	750.00000
23.58740	740.00000
23.61370	753.00000
23.64000	720.00000
23.66620	740.00000
23.69250	653.00000
23.71870	739.00000
23.74500	738.00000
23.77130	817.00000
23.79750	820.00000
23.82380	774.00000
23.85000	815.00000
23.87630	802.00000
23.90260	858.00000
23.92880	871.00000
23.95510	1060.00000
23.98130	1159.00000
24.00760	1233.00000
24.03390	1196.00000
24.06010	1143.00000
24.08640	1058.00000
24.11260	963.00000
24.13890	892.00000
24.16520	822.00000
24.19140	766.00000
24.21770	727.00000
24.24390	694.00000
24.27020	735.00000
24.29650	669.00000
24.32270	649.00000
24.34900	704.00000
24.37520	667.00000
24.40150	686.00000
24.42780	653.00000
24.45400	665.00000
24.48030	650.00000
24.50660	629.00000
24.53280	638.00000
24.55910	629.00000
24.58530	628.00000
24.61160	619.00000
24.63790	623.00000
24.66410	647.00000
24.69040	602.00000
24.71660	611.00000
24.74290	615.00000
24.76920	639.00000
24.79540	630.00000
24.82170	606.00000
24.84790	538.00000
24.87420	639.00000
24.90050	631.00000
24.92670	651.00000
24.95300	627.00000
24.97920	662.00000
25.00550	648.00000
25.03180	731.00000
25.05800	644.00000
25.08430	673.00000
25.11050	645.00000
25.13680	612.00000
25.16310	627.00000
25.18930	623.00000
25.21560	589.00000
25.24180	606.00000
25.26810	612.00000
25.29440	594.00000
25.32060	596.00000
25.34690	609.00000
25.37320	612.00000
25.39940	565.00000
25.42570	625.00000
25.45190	626.00000
25.47820	601.00000
25.50450	589.00000
25.53070	636.00000
25.55700	622.00000
25.58320	606.00000
25.60950	615.00000
25.63580	567.00000
25.66200	613.00000
25.68830	608.00000
25.71450	579.00000
25.74080	605.00000
25.76710	553.00000
25.79330	603.00000
25.81960	574.00000
25.84580	549.00000
25.87210	625.00000
25.89840	551.00000
25.92460	570.00000
25.95090	576.00000
25.97710	624.00000
26.00340	580.00000
26.02970	622.00000
26.05590	606.00000
26.08220	661.00000
26.10840	633.00000
26.13470	602.00000
26.16100	578.00000
26.18720	595.00000
26.21350	570.00000
26.23980	556.00000
26.26600	605.00000
26.29230	661.00000
26.31850	642.00000
26.34480	649.00000
26.37110	712.00000
26.39730	762.00000
26.42360	737.00000
26.44980	895.00000
26.47610	949.00000
26.50240	898.00000
26.52860	824.00000
26.55490	770.00000
26.58110	805.00000
26.60740	750.00000
26.63370	643.00000
26.65990	652.00000
26.68620	655.00000
26.71240	616.00000
26.73870	641.00000
26.76500	647.00000
26.79120	589.00000
26.81750	599.00000
26.84370	607.00000
26.87000	647.00000
26.89630	633.00000
26.92250	624.00000
26.94880	597.00000
26.97500	573.00000
27.00130	583.00000
27.02760	516.00000
27.05380	561.00000
27.08010	583.00000
27.10630	520.00000
27.13260	572.00000
27.15890	588.00000
27.18510	571.00000
27.21140	562.00000
27.23770	572.00000
27.26390	542.00000
27.29020	552.00000
27.31640	592.00000
27.34270	575.00000
27.36900	564.00000
27.39520	579.00000
27.42150	554.00000
27.44770	575.00000
27.47400	592.00000
27.50030	540.00000
27.52650	577.00000
27.55280	663.00000
27.57900	651.00000
27.60530	762.00000
27.63160	821.00000
27.65780	823.00000
27.68410	752.00000
27.71030	729.00000
27.73660	681.00000
27.76290	625.00000
27.78910	570.00000
27.81540	578.00000
27.84160	593.00000
27.86790	579.00000
27.89420	569.00000
27.92040	588.00000
27.94670	550.00000
27.97290	589.00000
27.99920	714.00000
28.02550	827.00000
28.05170	934.00000
28.07800	1093.00000
28.10430	1016.00000
28.13050	949.00000
28.15680	849.00000
28.18300	749.00000
28.20930	639.00000
28.23560	587.00000
28.26180	574.00000
28.28810	605.00000
28.31430	597.00000
28.34060	531.00000
28.36690	550.00000
28.39310	545.00000
28.41940	583.00000
28.44560	563.00000
28.47190	585.00000
28.49820	619.00000
28.52440	536.00000
28.55070	551.00000
28.57690	569.00000
28.60320	515.00000
28.62950	548.00000
28.65570	563.00000
28.68200	552.00000
28.70820	579.00000
28.73450	598.00000
28.76080	603.00000
28.78700	683.00000
28.81330	676.00000
28.83950	840.00000
28.86580	931.00000
28.89210	1266.00000
28.91830	1713.00000
28.94460	2116.00000
28.97080	2322.00000
28.99710	2239.00000
29.02340	1960.00000
29.04960	1663.00000
29.07590	1268.00000
29.10220	985.00000
29.12840	822.00000
29.15470	772.00000
29.18090	675.00000
29.20720	674.00000
29.23350	689.00000
29.25970	664.00000
29.28600	624.00000
29.31220	596.00000
29.33850	542.00000
29.36480	533.00000
29.39100	542.00000
29.41730	559.00000
29.44350	593.00000
29.46980	536.00000
29.49610	538.00000
29.52230	549.00000
29.54860	540.00000
29.57480	610.00000
29.60110	563.00000
29.62740	667.00000
29.65360	705.00000
29.67990	763.00000
29.70610	931.00000
29.73240	1065.00000
29.75870	1233.00000
29.78490	1190.00000
29.81120	1173.00000
29.83740	950.00000
29.86370	878.00000
29.89000	735.00000
29.91620	661.00000
29.94250	567.00000
29.96880	602.00000
29.99500	564.00000
30.02130	535.00000
30.04750	535.00000
30.07380	544.00000
30.10010	536.00000
30.12630	494.00000
30.15260	446.00000
30.17880	555.00000
30.20510	475.00000
30.23140	524.00000
30.25760	495.00000
30.28390	499.00000
30.31010	484.00000
30.33640	480.00000
30.36270	600.00000
30.38890	541.00000
30.41520	594.00000
30.44140	609.00000
30.46770	748.00000
30.49400	853.00000
30.52020	991.00000
30.54650	1115.00000
30.57270	1171.00000
30.59900	1045.00000
30.62530	1103.00000
30.65150	894.00000
30.67780	744.00000
30.70400	681.00000
30.73030	610.00000
30.75660	587.00000
30.78280	612.00000
30.80910	503.00000
30.83540	587.00000
30.86160	610.00000
30.88790	645.00000
30.91410	712.00000
30.94040	685.00000
30.96670	731.00000
30.99290	667.00000
31.01920	659.00000
31.04540	673.00000
31.07170	604.00000
31.09800	602.00000
31.12420	648.00000
31.15050	630.00000
31.17670	609.00000
31.20300	647.00000
31.22930	660.00000
31.25550	720.00000
31.28180	768.00000
31.30800	820.00000
31.33430	682.00000
31.36060	730.00000
31.38680	737.00000
31.41310	738.00000
31.43930	741.00000
31.46560	733.00000
31.49190	751.00000
31.51810	709.00000
31.54440	678.00000
31.57060	606.00000
31.59690	586.00000
31.62320	523.00000
31.64940	607.00000
31.67570	569.00000
31.70200	567.00000
31.72820	614.00000
31.75450	537.00000
31.78070	528.00000
31.80700	510.00000
31.83330	554.00000
31.85950	529.00000
31.88580	488.00000
31.91200	521.00000
31.93830	492.00000
31.96460	509.00000
31.99080	522.00000
32.01710	484.00000
32.04330	486.00000
32.06960	458.00000
32.09590	481.00000
32.12210	454.00000
32.14840	478.00000
32.17460	464.00000
32.20090	452.00000
32.22720	431.00000
32.25340	450.00000
32.27970	435.00000
32.30590	469.00000
32.33220	446.00000
32.35850	465.00000
32.38470	465.00000
32.41100	435.00000
32.43720	454.00000
32.46350	474.00000
32.48980	405.00000
32.51600	443.00000
32.54230	479.00000
32.56860	457.00000
32.59480	473.00000
32.62110	449.00000
32.64730	475.00000
32.67360	442.00000
32.69990	429.00000
32.72610	434.00000
32.75240	439.00000
32.77860	451.00000
32.80490	427.00000
32.83120	455.00000
32.85740	455.00000
32.88370	505.00000
32.90990	487.00000
32.93620	474.00000
32.96250	540.00000
32.98870	507.00000
33.01500	537.00000
33.04120	498.00000
33.06750	534.00000
33.09380	453.00000
33.12000	466.00000
33.14630	436.00000
33.17250	475.00000
33.19880	462.00000
33.22510	434.00000
33.25130	435.00000
33.27760	415.00000
33.30380	425.00000
33.33010	417.00000
33.35640	408.00000
33.38260	414.00000
33.40890	426.00000
33.43510	433.00000
33.46140	409.00000
33.48770	405.00000
33.51390	412.00000
33.54020	494.00000
33.56640	418.00000
33.59270	397.00000
33.61900	449.00000
33.64520	436.00000
33.67150	451.00000
33.69780	467.00000
33.72400	423.00000
33.75030	415.00000
33.77650	420.00000
33.80280	423.00000
33.82910	425.00000
33.85530	450.00000
33.88160	433.00000
33.90780	394.00000
33.93410	354.00000
33.96040	414.00000
33.98660	431.00000
34.01290	431.00000
34.03910	414.00000
34.06540	420.00000
34.09170	432.00000
34.11790	429.00000
34.14420	396.00000
34.17040	444.00000
34.19670	404.00000
34.22300	401.00000
34.24920	416.00000
34.27550	457.00000
34.30170	447.00000
34.32800	396.00000
34.35430	383.00000
34.38050	399.00000
34.40680	403.00000
34.43300	411.00000
34.45930	384.00000
34.48560	363.00000
34.51180	439.00000
34.53810	449.00000
34.56440	449.00000
34.59060	420.00000
34.61690	423.00000
34.64310	468.00000
34.66940	442.00000
34.69570	424.00000
34.72190	427.00000
34.74820	492.00000
34.77440	485.00000
34.80070	484.00000
34.82700	480.00000
34.85320	518.00000
34.87950	516.00000
34.90570	542.00000
34.93200	533.00000
34.95830	592.00000
34.98450	565.00000
35.01080	599.00000
35.03700	565.00000
35.06330	534.00000
35.08960	574.00000
35.11580	480.00000
35.14210	499.00000
35.16830	519.00000
35.19460	531.00000
35.22090	528.00000
35.24710	566.00000
35.27340	563.00000
35.29960	606.00000
35.32590	632.00000
35.35220	590.00000
35.37840	639.00000
35.40470	653.00000
35.43100	649.00000
35.45720	604.00000
35.48350	551.00000
35.50970	541.00000
35.53600	539.00000
35.56230	468.00000
35.58850	456.00000
35.61480	484.00000
35.64100	481.00000
35.66730	476.00000
35.69360	421.00000
35.71980	443.00000
35.74610	439.00000
35.77230	398.00000
35.79860	475.00000
35.82490	460.00000
35.85110	457.00000
35.87740	450.00000
35.90360	511.00000
35.92990	536.00000
35.95620	535.00000
35.98240	668.00000
36.00870	626.00000
36.03490	665.00000
36.06120	623.00000
36.08750	600.00000
36.11370	566.00000
36.14000	557.00000
36.16620	556.00000
36.19250	658.00000
36.21880	822.00000
36.24500	996.00000
36.27130	1099.00000
36.29760	1019.00000
36.32380	995.00000
36.35010	1022.00000
36.37630	916.00000
36.40260	752.00000
36.42890	697.00000
36.45510	620.00000
36.48140	493.00000
36.50760	494.00000
36.53390	456.00000
36.56020	429.00000
36.58640	484.00000
36.61270	439.00000
36.63890	427.00000
36.66520	429.00000
36.69150	422.00000
36.71770	444.00000
36.74400	417.00000
36.77020	424.00000
36.79650	430.00000
36.82280	458.00000
36.84900	424.00000
36.87530	426.00000
36.90150	438.00000
36.92780	399.00000
36.95410	444.00000
36.98030	442.00000
37.00660	454.00000
37.03280	475.00000
37.05910	524.00000
37.08540	575.00000
37.11160	603.00000
37.13790	539.00000
37.16410	604.00000
37.19040	563.00000
37.21670	524.00000
37.24290	519.00000
37.26920	535.00000
37.29550	467.00000
37.32170	454.00000
37.34800	478.00000
37.37420	548.00000
37.40050	540.00000
37.42680	568.00000
37.45300	594.00000
37.47930	599.00000
37.50550	712.00000
37.53180	766.00000
37.55810	839.00000
37.58430	872.00000
37.61060	934.00000
37.63680	887.00000
37.66310	755.00000
37.68940	747.00000
37.71560	709.00000
37.74190	630.00000
37.76810	615.00000
37.79440	557.00000
37.82070	565.00000
37.84690	579.00000
37.87320	527.00000
37.89940	586.00000
37.92570	579.00000
37.95200	541.00000
37.97820	549.00000
38.00450	555.00000
38.03070	556.00000
38.05700	536.00000
38.08330	557.00000
38.10950	513.00000
38.13580	536.00000
38.16200	505.00000
38.18830	501.00000
38.21460	459.00000
38.24080	422.00000
38.26710	416.00000
38.29340	412.00000
38.31960	411.00000
38.34590	411.00000
38.37210	442.00000
38.39840	425.00000
38.42470	403.00000
38.45090	408.00000
38.47720	402.00000
38.50340	416.00000
38.52970	439.00000
38.55600	482.00000
38.58220	495.00000
38.60850	568.00000
38.63470	543.00000
38.66100	584.00000
38.68730	607.00000
38.71350	578.00000
38.73980	523.00000
38.76600	524.00000
38.79230	521.00000
38.81860	509.00000
38.84480	422.00000
38.87110	414.00000
38.89730	424.00000
38.92360	424.00000
38.94990	436.00000
38.97610	424.00000
39.00240	376.00000
39.02860	395.00000
39.05490	445.00000
39.08120	425.00000
39.10740	400.00000
39.13370	425.00000
39.16000	417.00000
39.18620	398.00000
39.21250	433.00000
39.23870	448.00000
39.26500	428.00000
39.29130	501.00000
39.31750	474.00000
39.34380	550.00000
39.37000	564.00000
39.39630	638.00000
39.42260	693.00000
39.44880	616.00000
39.47510	596.00000
39.50130	602.00000
39.52760	548.00000
39.55390	500.00000
39.58010	442.00000
39.60640	433.00000
39.63260	414.00000
39.65890	436.00000
39.68520	370.00000
39.71140	408.00000
39.73770	424.00000
39.76390	411.00000
39.79020	416.00000
39.81650	366.00000
39.84270	432.00000
39.86900	384.00000
39.89520	380.00000
39.92150	385.00000
39.94780	406.00000
39.97400	393.00000
40.00030	390.00000
40.02660	405.00000
40.05280	456.00000
40.07910	468.00000
40.10530	531.00000
40.13160	562.00000
40.15790	529.00000
40.18410	538.00000
40.21040	545.00000
40.23660	514.00000
40.26290	462.00000
40.28920	501.00000
40.31540	510.00000
40.34170	512.00000
40.36790	469.00000
40.39420	474.00000
40.42050	444.00000
40.44670	441.00000
40.47300	471.00000
40.49920	444.00000
40.52550	461.00000
40.55180	473.00000
40.57800	467.00000
40.60430	451.00000
40.63050	466.00000
40.65680	486.00000
40.68310	468.00000
40.70930	467.00000
40.73560	412.00000
40.76180	433.00000
40.78810	401.00000
40.81440	423.00000
40.84060	398.00000
40.86690	408.00000
40.89320	418.00000
40.91940	472.00000
40.94570	507.00000
40.97190	514.00000
40.99820	489.00000
41.02450	513.00000
41.05070	444.00000
41.07700	483.00000
41.10320	469.00000
41.12950	404.00000
41.15580	428.00000
41.18200	471.00000
41.20830	410.00000
41.23450	406.00000
41.26080	440.00000
41.28710	392.00000
41.31330	423.00000
41.33960	434.00000
41.36580	426.00000
41.39210	448.00000
41.41840	406.00000
41.44460	380.00000
41.47090	418.00000
41.49710	446.00000
41.52340	414.00000
41.54970	409.00000
41.57590	421.00000
41.60220	418.00000
41.62840	426.00000
41.65470	453.00000
41.68100	468.00000
41.70720	447.00000
41.73350	464.00000
41.75970	469.00000
41.78600	478.00000
41.81230	494.00000
41.83850	537.00000
41.86480	556.00000
41.89110	566.00000
41.91730	639.00000
41.94360	680.00000
41.96980	675.00000
41.99610	699.00000
42.02240	694.00000
42.04860	698.00000
42.07490	615.00000
42.10110	623.00000
42.12740	702.00000
42.15370	648.00000
42.17990	746.00000
42.20620	751.00000
42.23240	760.00000
42.25870	752.00000
42.28500	676.00000
42.31120	633.00000
42.33750	657.00000
42.36370	615.00000
42.39000	516.00000
42.41630	451.00000
42.44250	442.00000
42.46880	467.00000
42.49500	411.00000
42.52130	465.00000
42.54760	422.00000
42.57380	397.00000
42.60010	421.00000
42.62630	430.00000
42.65260	406.00000
42.67890	387.00000
42.70510	367.00000
42.73140	401.00000
42.75760	383.00000
42.78390	350.00000
42.81020	401.00000
42.83640	386.00000
42.86270	382.00000
42.88900	371.00000
42.91520	369.00000
42.94150	410.00000
42.96770	348.00000
42.99400	425.00000
43.02030	397.00000
43.04650	374.00000
43.07280	385.00000
43.09900	357.00000
43.12530	372.00000
43.15160	362.00000
43.17780	367.00000
43.20410	425.00000
43.23030	351.00000
43.25660	395.00000
43.28290	424.00000
43.30910	410.00000
43.33540	439.00000
43.36160	423.00000
43.38790	432.00000
43.41420	406.00000
43.44040	398.00000
43.46670	397.00000
43.49290	377.00000
43.51920	419.00000
43.54550	376.00000
43.57170	372.00000
43.59800	375.00000
43.62420	411.00000
43.65050	445.00000
43.67680	425.00000
43.70300	422.00000
43.72930	475.00000
43.75560	443.00000
43.78180	456.00000
43.80810	451.00000
43.83430	456.00000
43.86060	424.00000
43.88690	433.00000
43.91310	428.00000
43.93940	426.00000
43.96560	434.00000
43.99190	411.00000
44.01820	428.00000
44.04440	402.00000
44.07070	391.00000
44.09690	423.00000
44.12320	421.00000
44.14950	408.00000
44.17570	403.00000
44.20200	400.00000
44.22820	451.00000
44.25450	449.00000
44.28080	413.00000
44.30700	465.00000
44.33330	433.00000
44.35950	428.00000
44.38580	457.00000
44.41210	423.00000
44.43830	400.00000
44.46460	417.00000
44.49080	466.00000
44.51710	401.00000
44.54340	434.00000
44.56960	424.00000
44.59590	367.00000
44.62220	392.00000
44.64840	420.00000
44.67470	389.00000
44.70090	398.00000
44.72720	431.00000
44.75350	426.00000
44.77970	409.00000
44.80600	412.00000
44.83220	392.00000
44.85850	443.00000
44.88480	394.00000
44.91100	387.00000
44.93730	398.00000
44.96350	369.00000
44.98980	380.00000
45.01610	383.00000
45.04230	373.00000
45.06860	414.00000
45.09480	381.00000
45.12110	426.00000
45.14740	376.00000
45.17360	366.00000
45.19990	417.00000
45.22610	388.00000
45.25240	417.00000
45.27870	431.00000
45.30490	457.00000
45.33120	453.00000
45.35740	439.00000
45.38370	436.00000
45.41000	447.00000
45.43620	464.00000
45.46250	443.00000
45.48880	413.00000
45.51500	432.00000
45.54130	454.00000
45.56750	465.00000
45.59380	510.00000
45.62010	454.00000
45.64630	454.00000
45.67260	444.00000
45.69880	428.00000
45.72510	437.00000
45.75140	385.00000
45.77760	442.00000
45.80390	426.00000
45.83010	396.00000
45.85640	415.00000
45.88270	386.00000
45.90890	380.00000
45.93520	386.00000
45.96140	423.00000
45.98770	412.00000
46.01400	359.00000
46.04020	413.00000
46.06650	409.00000
46.09270	376.00000
46.11900	349.00000
46.14530	399.00000
46.17150	372.00000
46.19780	418.00000
46.22400	406.00000
46.25030	405.00000
46.27660	392.00000
46.30280	372.00000
46.32910	417.00000
46.35530	396.00000
46.38160	349.00000
46.40790	402.00000
46.43410	389.00000
46.46040	363.00000
46.48660	381.00000
46.51290	358.00000
46.53920	398.00000
46.56540	422.00000
46.59170	376.00000
46.61800	388.00000
46.64420	378.00000
46.67050	423.00000
46.69670	389.00000
46.72300	420.00000
46.74930	394.00000
46.77550	390.00000
46.80180	397.00000
46.82800	375.00000
46.85430	404.00000
46.88060	407.00000
46.90680	354.00000
46.93310	408.00000
46.95930	418.00000
46.98560	432.00000
47.01190	444.00000
47.03810	426.00000
47.06440	442.00000
47.09060	464.00000
47.11690	465.00000
47.14320	455.00000
47.16940	481.00000
47.19570	473.00000
47.22190	438.00000
47.24820	435.00000
47.27450	466.00000
47.30070	467.00000
47.32700	426.00000
47.35320	480.00000
47.37950	487.00000
47.40580	544.00000
47.43200	501.00000
47.45830	510.00000
47.48460	502.00000
47.51080	491.00000
47.53710	443.00000
47.56330	448.00000
47.58960	499.00000
47.61590	524.00000
47.64210	480.00000
47.66840	520.00000
47.69460	495.00000
47.72090	470.00000
47.74720	421.00000
47.77340	451.00000
47.79970	392.00000
47.82590	376.00000
47.85220	456.00000
47.87850	449.00000
47.90470	399.00000
47.93100	401.00000
47.95720	453.00000
47.98350	436.00000
48.00980	466.00000
48.03600	485.00000
48.06230	531.00000
48.08850	547.00000
48.11480	628.00000
48.14110	617.00000
48.16730	663.00000
48.19360	646.00000
48.21980	618.00000
48.24610	664.00000
48.27240	635.00000
48.29860	568.00000
48.32490	506.00000
48.35120	505.00000
48.37740	500.00000
48.40370	486.00000
48.42990	466.00000
48.45620	449.00000
48.48250	475.00000
48.50870	398.00000
48.53500	397.00000
48.56120	457.00000
48.58750	422.00000
48.61380	381.00000
48.64000	449.00000
48.66630	419.00000
48.69250	398.00000
48.71880	406.00000
48.74510	391.00000
48.77130	427.00000
48.79760	414.00000
48.82380	409.00000
48.85010	366.00000
48.87640	404.00000
48.90260	395.00000
48.92890	424.00000
48.95510	420.00000
48.98140	454.00000
49.00770	482.00000
49.03390	423.00000
49.06020	501.00000
49.08640	476.00000
49.11270	478.00000
49.13900	508.00000
49.16520	486.00000
49.19150	491.00000
49.21780	484.00000
49.24400	480.00000
49.27030	479.00000
49.29650	420.00000
49.32280	452.00000
49.34910	448.00000
49.37530	422.00000
49.40160	481.00000
49.42780	441.00000
49.45410	413.00000
49.48040	448.00000
49.50660	441.00000
49.53290	424.00000
49.55910	429.00000
49.58540	360.00000
49.61170	403.00000
49.63790	381.00000
49.66420	333.00000
49.69040	372.00000
49.71670	357.00000
49.74300	393.00000
49.76920	361.00000
49.79550	345.00000
49.82170	354.00000
49.84800	348.00000
49.87430	362.00000
49.90050	382.00000
49.92680	340.00000
49.95300	345.00000
49.97930	328.00000
50.00560	340.00000
50.03180	363.00000
50.05810	375.00000
50.08430	361.00000
50.11060	354.00000
50.13690	375.00000
50.16310	402.00000
50.18940	382.00000
50.21570	308.00000
50.24190	354.00000
50.26820	372.00000
50.29440	326.00000
50.32070	376.00000
50.34700	339.00000
50.37320	349.00000
50.39950	375.00000
50.42570	372.00000
50.45200	337.00000
50.47830	399.00000
50.50450	305.00000
50.53080	395.00000
50.55700	327.00000
50.58330	377.00000
50.60960	382.00000
50.63580	360.00000
50.66210	350.00000
50.68830	310.00000
50.71460	342.00000
50.74090	356.00000
50.76710	361.00000
50.79340	346.00000
50.81960	413.00000
50.84590	308.00000
50.87220	382.00000
50.89840	342.00000
50.92470	357.00000
50.95090	336.00000
50.97720	317.00000
51.00350	382.00000
51.02970	342.00000
51.05600	389.00000
51.08220	362.00000
51.10850	372.00000
51.13480	379.00000
51.16100	366.00000
51.18730	375.00000
51.21360	359.00000
51.23980	405.00000
51.26610	381.00000
51.29230	398.00000
51.31860	411.00000
51.34490	396.00000
51.37110	392.00000
51.39740	410.00000
51.42360	389.00000
51.44990	368.00000
51.47620	405.00000
51.50240	390.00000
51.52870	361.00000
51.55490	358.00000
51.58120	366.00000
51.60750	358.00000
51.63370	370.00000
51.66000	379.00000
51.68620	353.00000
51.71250	382.00000
51.73880	345.00000
51.76500	296.00000
51.79130	393.00000
51.81750	346.00000
51.84380	367.00000
51.87010	373.00000
51.89630	367.00000
51.92260	350.00000
51.94880	355.00000
51.97510	344.00000
52.00140	365.00000
52.02760	381.00000
52.05390	359.00000
52.08020	376.00000
52.10640	372.00000
52.13270	350.00000
52.15890	346.00000
52.18520	423.00000
52.21150	352.00000
52.23770	369.00000
52.26400	351.00000
52.29020	375.00000
52.31650	391.00000
52.34280	386.00000
52.36900	391.00000
52.39530	359.00000
52.42150	381.00000
52.44780	385.00000
52.47410	442.00000
52.50030	410.00000
52.52660	482.00000
52.55280	467.00000
52.57910	424.00000
52.60540	442.00000
52.63160	442.00000
52.65790	442.00000
52.68410	433.00000
52.71040	390.00000
52.73670	416.00000
52.76290	378.00000
52.78920	429.00000
52.81540	370.00000
52.84170	384.00000
52.86800	367.00000
52.89420	391.00000
52.92050	383.00000
52.94680	384.00000
52.97300	418.00000
52.99930	405.00000
53.02550	395.00000
53.05180	380.00000
53.07810	435.00000
53.10430	373.00000
53.13060	399.00000
53.15680	380.00000
53.18310	345.00000
53.20940	363.00000
53.23560	378.00000
53.26190	365.00000
53.28810	391.00000
53.31440	422.00000
53.34070	347.00000
53.36690	382.00000
53.39320	346.00000
53.41940	363.00000
53.44570	367.00000
53.47200	379.00000
53.49820	398.00000
53.52450	388.00000
53.55070	389.00000
53.57700	331.00000
53.60330	385.00000
53.62950	382.00000
53.65580	361.00000
53.68200	387.00000
53.70830	368.00000
53.73460	353.00000
53.76080	355.00000
53.78710	355.00000
53.81340	357.00000
53.83960	378.00000
53.86590	320.00000
53.89210	361.00000
53.91840	401.00000
53.94470	374.00000
53.97090	343.00000
53.99720	388.00000
54.02340	390.00000
54.04970	382.00000
54.07600	343.00000
54.10220	340.00000
54.12850	360.00000
54.15470	374.00000
54.18100	379.00000
54.20730	383.00000
54.23350	398.00000
54.25980	377.00000
54.28600	390.00000
54.31230	400.00000
54.33860	396.00000
54.36480	423.00000
54.39110	415.00000
54.41730	471.00000
54.44360	421.00000
54.46990	395.00000
54.49610	414.00000
54.52240	444.00000
54.54860	398.00000
54.57490	406.00000
54.60120	430.00000
54.62740	421.00000
54.65370	418.00000
54.67990	433.00000
54.70620	410.00000
54.73250	448.00000
54.75870	445.00000
54.78500	456.00000
54.81130	445.00000
54.83750	446.00000
54.86380	458.00000
54.89000	445.00000
54.91630	467.00000
54.94260	407.00000
54.96880	410.00000
54.99510	402.00000
55.02130	363.00000
55.04760	377.00000
55.07390	372.00000
55.10010	377.00000
55.12640	373.00000
55.15260	392.00000
55.17890	379.00000
55.20520	397.00000
55.23140	381.00000
55.25770	352.00000
55.28390	375.00000
55.31020	370.00000
55.33650	378.00000
55.36270	386.00000
55.38900	419.00000
55.41520	388.00000
55.44150	388.00000
55.46780	402.00000
55.49400	381.00000
55.52030	370.00000
55.54650	391.00000
55.57280	394.00000
55.59910	404.00000
55.62530	433.00000
55.65160	426.00000
55.67780	437.00000
55.70410	413.00000
55.73040	424.00000
55.75660	374.00000
55.78290	442.00000
55.80920	379.00000
55.83540	407.00000
55.86170	399.00000
55.88790	398.00000
55.91420	394.00000
55.94050	399.00000
55.96670	381.00000
55.99300	351.00000
56.01920	350.00000
56.04550	354.00000
56.07180	377.00000
56.09800	342.00000
56.12430	326.00000
56.15050	324.00000
56.17680	363.00000
56.20310	334.00000
56.22930	354.00000
56.25560	358.00000
56.28180	369.00000
56.30810	362.00000
56.33440	377.00000
56.36060	375.00000
56.38690	370.00000
56.41310	378.00000
56.43940	364.00000
56.46570	399.00000
56.49190	372.00000
56.51820	380.00000
56.54440	381.00000
56.57070	394.00000
56.59700	373.00000
56.62320	393.00000
56.64950	376.00000
56.67580	388.00000
56.70200	343.00000
56.72830	377.00000
56.75450	422.00000
56.78080	432.00000
56.80710	423.00000
56.83330	392.00000
56.85960	402.00000
56.88580	398.00000
56.91210	421.00000
56.93840	409.00000
56.96460	433.00000
56.99090	437.00000
57.01710	446.00000
57.04340	479.00000
57.06970	450.00000
57.09590	450.00000
57.12220	444.00000
57.14840	456.00000
57.17470	462.00000
57.20100	422.00000
57.22720	403.00000
57.25350	390.00000
57.27970	416.00000
57.30600	344.00000
57.33230	367.00000
57.35850	357.00000
57.38480	362.00000
57.41100	372.00000
57.43730	358.00000
57.46360	380.00000
57.48980	363.00000
57.51610	359.00000
57.54240	376.00000
57.56860	377.00000
57.59490	368.00000
57.62110	383.00000
57.64740	379.00000
57.67370	350.00000
57.69990	370.00000
57.72620	365.00000
57.75240	375.00000
57.77870	401.00000
57.80500	379.00000
57.83120	392.00000
57.85750	355.00000
57.88370	395.00000
57.91000	397.00000
57.93630	366.00000
57.96250	350.00000
57.98880	394.00000
58.01500	380.00000
58.04130	418.00000
58.06760	385.00000
58.09380	382.00000
58.12010	387.00000
58.14630	411.00000
58.17260	383.00000
58.19890	400.00000
58.22510	400.00000
58.25140	387.00000
58.27760	338.00000
58.30390	382.00000
58.33020	356.00000
58.35640	379.00000
58.38270	371.00000
58.40900	393.00000
58.43520	365.00000
58.46150	359.00000
58.48770	380.00000
58.51400	349.00000
58.54030	375.00000
58.56650	360.00000
58.59280	350.00000
58.61900	417.00000
58.64530	348.00000
58.67160	365.00000
58.69780	360.00000
58.72410	349.00000
58.75030	358.00000
58.77660	414.00000
58.80290	385.00000
58.82910	424.00000
58.85540	364.00000
58.88160	403.00000
58.90790	378.00000
58.93420	359.00000
58.96040	373.00000
58.98670	377.00000
59.01290	383.00000
59.03920	365.00000
59.06550	416.00000
59.09170	384.00000
59.11800	381.00000
59.14420	346.00000
59.17050	375.00000
59.19680	353.00000
59.22300	383.00000
59.24930	370.00000
59.27550	373.00000
59.30180	392.00000
59.32810	432.00000
59.35430	407.00000
59.38060	404.00000
59.40680	428.00000
59.43310	468.00000
59.45940	473.00000
59.48560	421.00000
59.51190	434.00000
59.53820	428.00000
59.56440	424.00000
59.59070	414.00000
59.61690	401.00000
59.64320	403.00000
59.66950	388.00000
59.69570	399.00000
59.72200	363.00000
59.74820	375.00000
59.77450	382.00000
59.80080	400.00000
59.82700	427.00000
59.85330	360.00000
59.87950	357.00000
59.90580	358.00000
59.93210	374.00000
59.95830	368.00000
59.98460	386.00000
60.01080	360.00000
