9.96000	10101.40000
9.98000	10018.30000
10.00000	10008.00000
10.02000	9982.00000
10.04000	10119.80000
10.06000	10115.90000
10.08000	9934.20000
10.10000	9925.40000
10.12000	9843.20000
10.14000	9947.80000
10.16000	9966.20000
10.18000	10012.80000
10.20000	10052.90000
10.22000	10078.70000
10.24000	10127.10000
10.26000	10071.80000
10.28000	9948.30000
10.30000	9839.90000
10.32000	10051.30000
10.34000	10253.40000
10.36000	10077.60000
10.38000	9950.30000
10.40000	10025.50000
10.42000	9911.40000
10.44000	9860.40000
10.46000	9937.30000
10.48000	9920.30000
10.50000	9915.60000
10.52000	9971.70000
10.54000	9782.40000
10.56000	9940.00000
10.58000	10000.10000
10.60000	9888.30000
10.62000	9829.70000
10.64000	10106.30000
10.66000	9866.20000
10.68000	9776.00000
10.70000	9951.50000
10.72000	10111.80000
10.74000	9907.40000
10.76000	9968.40000
10.78000	9768.30000
10.80000	9796.90000
10.82000	10043.60000
10.84000	10027.10000
10.86000	10086.00000
10.88000	9951.90000
10.90000	9936.80000
10.92000	9852.70000
10.94000	9982.30000
10.96000	9771.70000
10.98000	9760.40000
11.00000	9905.90000
11.02000	9780.80000
11.04000	9943.50000
11.06000	9781.20000
11.08000	9761.60000
11.10000	9812.60000
11.12000	9851.20000
11.14000	9852.70000
11.16000	9885.90000
11.18000	9819.80000
11.20000	9777.60000
11.22000	9738.80000
11.24000	9800.20000
11.26000	9756.20000
11.28000	9783.60000
11.30000	9822.50000
11.32000	9856.80000
11.34000	9778.50000
11.36000	9708.80000
11.38000	9788.00000
11.40000	9831.70000
11.42000	9687.40000
11.44000	9636.20000
11.46000	9837.30000
11.48000	9659.20000
11.50000	9585.90000
11.52000	9577.30000
11.54000	9835.60000
11.56000	9847.40000
11.58000	9833.10000
11.60000	9734.30000
11.62000	9765.70000
11.64000	9804.10000
11.66000	9710.80000
11.68000	9649.70000
11.70000	9673.50000
11.72000	9730.00000
11.74000	9668.30000
11.76000	9885.90000
11.78000	9614.20000
11.80000	9521.10000
11.82000	9639.10000
11.84000	9609.70000
11.86000	9803.50000
11.88000	9661.60000
11.90000	9656.20000
11.92000	9738.30000
11.94000	9688.80000
11.96000	9767.30000
11.98000	9633.40000
12.00000	9658.20000
12.02000	9663.40000
12.04000	9669.60000
12.06000	9697.70000
12.08000	9589.00000
12.10000	9573.00000
12.12000	9642.50000
12.14000	9692.30000
12.16000	9519.40000
12.18000	9631.20000
12.20000	9616.40000
12.22000	9704.50000
12.24000	9701.40000
12.26000	9528.60000
12.28000	9533.90000
12.30000	9583.90000
12.32000	9573.30000
12.34000	9635.60000
12.36000	9619.10000
12.38000	9642.70000
12.40000	9583.00000
12.42000	9514.10000
12.44000	9501.80000
12.46000	9535.20000
12.48000	9666.40000
12.50000	9534.60000
12.52000	9534.30000
12.54000	9496.00000
12.56000	9505.20000
12.58000	9441.40000
12.60000	9612.00000
12.62000	9497.80000
12.64000	9448.00000
12.66000	9804.20000
12.68000	9482.40000
12.70000	9578.00000
12.72000	9594.60000
12.74000	9591.10000
12.76000	9530.60000
12.78000	9485.80000
12.80000	9635.30000
12.82000	9520.80000
12.84000	9445.40000
12.86000	9651.30000
12.88000	9609.60000
12.90000	9564.50000
12.92000	9580.20000
12.94000	9570.20000
12.96000	9483.70000
12.98000	9468.20000
13.00000	9326.60000
13.02000	9433.40000
13.04000	9464.00000
13.06000	9564.50000
13.08000	9250.10000
13.10000	9412.80000
13.12000	9504.20000
13.14000	9313.80000
13.16000	9466.90000
13.18000	9589.50000
13.20000	9512.70000
13.22000	9419.70000
13.24000	9520.20000
13.26000	9636.20000
13.28000	9393.80000
13.30000	9472.00000
13.32000	9432.80000
13.34000	9435.30000
13.36000	9319.30000
13.38000	9289.10000
13.40000	9312.70000
13.42000	9403.30000
13.44000	9387.70000
13.46000	9342.70000
13.48000	9390.70000
13.50000	9357.50000
13.52000	9387.70000
13.54000	9311.00000
13.56000	9202.10000
13.58000	9114.60000
13.60000	9357.60000
13.62000	9399.50000
13.64000	9395.00000
13.66000	9271.10000
13.68000	9407.80000
13.70000	9435.60000
13.72000	9381.50000
13.74000	9314.40000
13.76000	9181.80000
13.78000	9135.00000
13.80000	9288.30000
13.82000	9239.00000
13.84000	9411.10000
13.86000	9365.30000
13.88000	9244.20000
13.90000	9294.00000
13.92000	9175.30000
13.94000	9210.10000
13.96000	9133.70000
13.98000	9297.80000
14.00000	9194.40000
14.02000	9195.50000
14.04000	9223.70000
14.06000	9275.70000
14.08000	9282.70000
14.10000	9216.00000
14.12000	9188.40000
14.14000	9310.00000
14.16000	9181.00000
14.18000	9240.10000
14.20000	9014.50000
14.22000	9084.70000
14.24000	9099.10000
14.26000	9087.40000
14.28000	9203.60000
14.30000	9255.90000
14.32000	9156.90000
14.34000	9162.60000
14.36000	9159.20000
14.38000	9193.50000
14.40000	9181.40000
14.42000	9219.00000
14.44000	9195.40000
14.46000	9140.10000
14.48000	9113.60000
14.50000	9056.30000
14.52000	9156.50000
14.54000	9205.10000
14.56000	9363.30000
14.58000	9236.50000
14.60000	9252.80000
14.62000	9198.10000
14.64000	9246.90000
14.66000	9212.20000
14.68000	9332.20000
14.70000	9194.50000
14.72000	9365.10000
14.74000	9257.50000
14.76000	9303.80000
14.78000	9414.60000
14.80000	9347.80000
14.82000	9322.90000
14.84000	9213.40000
14.86000	9182.90000
14.88000	9100.10000
14.90000	9283.10000
14.92000	9219.00000
14.94000	9120.00000
14.96000	9176.40000
14.98000	9042.00000
15.00000	9041.40000
15.02000	9077.30000
15.04000	9162.80000
15.06000	9097.50000
15.08000	9129.60000
15.10000	9230.60000
15.12000	8954.90000
15.14000	9105.60000
15.16000	9116.10000
15.18000	9090.90000
15.20000	9194.80000
15.22000	8944.00000
15.24000	9112.70000
15.26000	8975.90000
15.28000	8914.20000
15.30000	9055.60000
15.32000	9036.20000
15.34000	9119.60000
15.36000	9053.10000
15.38000	9020.00000
15.40000	9311.70000
15.42000	9149.50000
15.44000	9136.30000
15.46000	9110.90000
15.48000	9104.10000
15.50000	9170.30000
15.52000	9255.50000
15.54000	9130.80000
15.56000	9153.00000
15.58000	9172.40000
15.60000	9235.60000
15.62000	9257.20000
15.64000	9292.50000
15.66000	9319.20000
15.68000	9419.40000
15.70000	9414.30000
15.72000	9547.80000
15.74000	9399.00000
15.76000	9262.20000
15.78000	9174.00000
15.80000	9374.90000
15.82000	9229.90000
15.84000	9170.40000
15.86000	9306.70000
15.88000	9371.30000
15.90000	9353.40000
15.92000	9420.00000
15.94000	9321.30000
15.96000	9304.60000
15.98000	9333.60000
16.00000	9286.50000
16.02000	9599.90000
16.04000	9508.60000
16.06000	9711.20000
16.08000	9903.70000
16.10000	10174.20000
16.12000	10286.30000
16.14000	10320.40000
16.16000	10529.30000
16.18000	10870.90000
16.20000	11035.50000
16.22000	11558.60000
16.24000	12379.60000
16.26000	13672.10000
16.28000	15967.50000
16.30000	19882.10000
16.32000	26447.70000
16.34000	36895.80000
16.36000	54252.00000
16.38000	82641.80000
16.40000	116335.00000
16.42000	130412.00000
16.44000	110280.00000
16.46000	81274.20000
16.48000	52188.80000
16.50000	29648.40000
16.52000	18540.90000
16.54000	14255.20000
16.56000	12337.70000
16.58000	11389.20000
16.60000	10791.40000
16.62000	10269.80000
16.64000	10122.10000
16.66000	9789.00000
16.68000	9724.60000
16.70000	9518.90000
16.72000	9428.70000
16.74000	9219.10000
16.76000	9036.00000
16.78000	9126.90000
16.80000	9152.30000
16.82000	9108.70000
16.84000	8948.10000
16.86000	8978.30000
16.88000	9014.90000
16.90000	8999.90000
16.92000	8878.50000
16.94000	8885.50000
16.96000	8838.40000
16.98000	8869.50000
17.00000	8743.80000
17.02000	8807.50000
17.04000	8846.80000
17.06000	8797.80000
17.08000	8721.40000
17.10000	8795.60000
17.12000	8897.60000
17.14000	8717.90000
17.16000	8964.90000
17.18000	8959.10000
17.20000	8887.00000
17.22000	8885.40000
17.24000	8892.00000
17.26000	8751.70000
17.28000	8791.30000
17.30000	8631.40000
17.32000	8680.30000
17.34000	8676.90000
17.36000	8529.90000
17.38000	8538.50000
17.40000	8670.40000
17.42000	8422.00000
17.44000	8647.70000
17.46000	8423.20000
17.48000	8501.40000
17.50000	8529.60000
17.52000	8494.70000
17.54000	8421.30000
17.56000	8422.30000
17.58000	8332.40000
17.60000	8357.80000
17.62000	8301.60000
17.64000	8363.90000
17.66000	8329.60000
17.68000	8203.80000
17.70000	8305.10000
17.72000	8200.60000
17.74000	8285.60000
17.76000	8189.40000
17.78000	8262.90000
17.80000	8248.70000
17.82000	8246.40000
17.84000	8309.40000
17.86000	8248.50000
17.88000	8251.00000
17.90000	8281.10000
17.92000	8420.50000
17.94000	8315.30000
17.96000	8361.60000
17.98000	8288.50000
18.00000	8235.20000
18.02000	8396.30000
18.04000	8700.30000
18.06000	8914.20000
18.08000	9331.70000
18.10000	10128.50000
18.12000	11167.80000
18.14000	12819.60000
18.16000	14520.90000
18.18000	16458.70000
18.20000	17823.10000
18.22000	17219.00000
18.24000	15161.20000
18.26000	13222.20000
18.28000	11176.80000
18.30000	9609.90000
18.32000	8817.20000
18.34000	8490.10000
18.36000	8335.60000
18.38000	8088.20000
18.40000	8037.40000
18.42000	8095.90000
18.44000	8007.70000
18.46000	7752.60000
18.48000	8010.30000
18.50000	7919.30000
18.52000	7912.70000
18.54000	7885.90000
18.56000	7835.20000
18.58000	7813.80000
18.60000	7784.40000
18.62000	7918.30000
18.64000	7757.90000
18.66000	7864.30000
18.68000	7760.70000
18.70000	7756.10000
18.72000	7773.80000
18.74000	7767.80000
18.76000	7704.20000
18.78000	7684.70000
18.80000	7728.90000
18.82000	7705.90000
18.84000	7700.70000
18.86000	7875.70000
18.88000	7711.90000
18.90000	7664.10000
18.92000	7679.50000
18.94000	7661.00000
18.96000	7684.30000
18.98000	7667.80000
19.00000	7588.90000
19.02000	7702.40000
19.04000	7624.20000
19.06000	7695.60000
19.08000	7597.80000
19.10000	7687.20000
19.12000	7663.00000
19.14000	7758.10000
19.16000	7790.80000
19.18000	7611.60000
19.20000	7513.90000
19.22000	7635.00000
19.24000	7635.60000
19.26000	7657.10000
19.28000	7496.50000
19.30000	7403.80000
19.32000	7513.20000
19.34000	7712.80000
19.36000	7504.00000
19.38000	7624.80000
19.40000	7596.50000
19.42000	7432.80000
19.44000	7494.80000
19.46000	7687.60000
19.48000	7641.50000
19.50000	7429.80000
19.52000	7479.90000
19.54000	7499.20000
19.56000	7384.10000
19.58000	7466.10000
19.60000	7643.80000
19.62000	7571.20000
19.64000	7606.60000
19.66000	7609.60000
19.68000	7749.70000
19.70000	7529.30000
19.72000	7776.40000
19.74000	7796.20000
19.76000	7920.30000
19.78000	8075.10000
19.80000	8197.20000
19.82000	8400.20000
19.84000	8871.40000
19.86000	9547.30000
19.88000	10795.80000
19.90000	12788.20000
19.92000	15990.00000
19.94000	20614.30000
19.96000	26672.50000
19.98000	32648.70000
20.00000	34292.00000
20.02000	30777.70000
20.04000	25691.60000
20.06000	20159.30000
20.08000	15045.90000
20.10000	11500.60000
20.12000	9640.80000
20.14000	8727.30000
20.16000	8300.40000
20.18000	8053.60000
20.20000	7871.90000
20.22000	7732.00000
20.24000	7695.20000
20.26000	7886.70000
20.28000	8204.80000
20.30000	8523.60000
20.32000	8951.40000
20.34000	9147.10000
20.36000	8947.50000
20.38000	8581.10000
20.40000	8191.60000
20.42000	7789.50000
20.44000	7530.80000
20.46000	7430.70000
20.48000	7328.80000
20.50000	7297.80000
20.52000	7249.00000
20.54000	7227.90000
20.56000	7146.30000
20.58000	7174.00000
20.60000	7185.70000
20.62000	7090.40000
20.64000	7136.00000
20.66000	7130.90000
20.68000	7117.30000
20.70000	7036.80000
20.72000	7131.20000
20.74000	7058.10000
20.76000	7208.00000
20.78000	7053.00000
20.80000	7028.20000
20.82000	7083.30000
20.84000	7092.90000
20.86000	7069.20000
20.88000	6996.30000
20.90000	7229.20000
20.92000	7146.40000
20.94000	7029.20000
20.96000	7118.10000
20.98000	7075.00000
21.00000	7093.40000
21.02000	6997.40000
21.04000	6980.60000
21.06000	7085.60000
21.08000	7010.80000
21.10000	7075.70000
21.12000	6904.70000
21.14000	6999.40000
21.16000	6989.30000
21.18000	7067.80000
21.20000	7057.80000
21.22000	7059.10000
21.24000	7073.80000
21.26000	7031.40000
21.28000	6959.00000
21.30000	7008.40000
21.32000	6864.20000
21.34000	6882.20000
21.36000	6844.20000
21.38000	6916.60000
21.40000	6891.10000
21.42000	6860.20000
21.44000	7003.60000
21.46000	6960.00000
21.48000	6995.10000
21.50000	7012.90000
21.52000	7118.30000
21.54000	7144.80000
21.56000	7034.30000
21.58000	7058.40000
21.60000	7219.40000
21.62000	7140.60000
21.64000	7186.10000
21.66000	7215.20000
21.68000	7297.50000
21.70000	7434.30000
21.72000	7523.70000
21.74000	7688.20000
21.76000	8034.10000
21.78000	8276.50000
21.80000	8825.50000
21.82000	9583.90000
21.84000	10860.80000
21.86000	12934.30000
21.88000	16197.20000
21.90000	21461.70000
21.92000	28996.30000
21.94000	35821.20000
21.96000	38292.80000
21.98000	34842.70000
22.00000	30025.30000
22.02000	24715.70000
22.04000	18688.40000
22.06000	13904.20000
22.08000	11066.40000
22.10000	9480.50000
22.12000	8814.50000
22.14000	8136.50000
22.16000	7791.70000
22.18000	7493.70000
22.20000	7164.10000
22.22000	7287.00000
22.24000	7023.60000
22.26000	6955.00000
22.28000	6965.30000
22.30000	6912.60000
22.32000	6687.80000
22.34000	6712.50000
22.36000	6736.30000
22.38000	6676.10000
22.40000	6500.60000
22.42000	6560.90000
22.44000	6529.40000
22.46000	6531.10000
22.48000	6617.60000
22.50000	6638.40000
22.52000	6477.20000
22.54000	6385.20000
22.56000	6452.60000
22.58000	6463.70000
22.60000	6329.00000
22.62000	6389.70000
22.64000	6389.10000
22.66000	6529.40000
22.68000	6432.30000
22.70000	6340.10000
22.72000	6372.70000
22.74000	6353.40000
22.76000	6321.40000
22.78000	6298.60000
22.80000	6264.50000
22.82000	6339.20000
22.84000	6386.30000
22.86000	6280.90000
22.88000	6224.70000
22.90000	6409.80000
22.92000	6347.40000
22.94000	6376.90000
22.96000	6342.70000
22.98000	6266.30000
23.00000	6344.20000
23.02000	6237.10000
23.04000	6164.40000
23.06000	6309.30000
23.08000	6216.90000
23.10000	6317.70000
23.12000	6241.90000
23.14000	6305.10000
23.16000	6345.50000
23.18000	6161.40000
23.20000	6272.70000
23.22000	6193.50000
23.24000	6331.80000
23.26000	6307.80000
23.28000	6240.60000
23.30000	6256.20000
23.32000	6262.70000
23.34000	6239.00000
23.36000	6284.90000
23.38000	6081.80000
23.40000	6133.20000
23.42000	6081.70000
23.44000	6056.00000
23.46000	6065.70000
23.48000	6042.80000
23.50000	6079.30000
23.52000	6155.10000
23.54000	5865.00000
23.56000	6035.00000
23.58000	6030.20000
23.60000	6018.50000
23.62000	6063.20000
23.64000	6049.30000
23.66000	6113.60000
23.68000	6067.90000
23.70000	6087.90000
23.72000	5979.00000
23.74000	5967.10000
23.76000	6047.80000
23.78000	6048.10000
23.80000	6031.20000
23.82000	5999.70000
23.84000	5973.50000
23.86000	6030.10000
23.88000	5933.40000
23.90000	5944.80000
23.92000	6039.20000
23.94000	5904.90000
23.96000	6039.40000
23.98000	5992.40000
24.00000	5956.60000
24.02000	5944.00000
24.04000	5890.10000
24.06000	6081.20000
24.08000	5967.70000
24.10000	5925.10000
24.12000	5940.80000
24.14000	6037.70000
24.16000	5863.50000
24.18000	5944.90000
24.20000	5999.10000
24.22000	6049.90000
24.24000	5750.50000
24.26000	5995.50000
24.28000	5923.90000
24.30000	6042.20000
24.32000	6030.20000
24.34000	6176.60000
24.36000	6108.90000
24.38000	6187.00000
24.40000	6254.90000
24.42000	6343.60000
24.44000	6553.00000
24.46000	6697.60000
24.48000	7101.60000
24.50000	7774.10000
24.52000	8905.10000
24.54000	10321.70000
24.56000	12291.40000
24.58000	13453.10000
24.60000	14140.40000
24.62000	14339.00000
24.64000	14018.10000
24.66000	13590.10000
24.68000	14913.40000
24.70000	17988.80000
24.72000	22344.70000
24.74000	24611.50000
24.76000	21757.70000
24.78000	18264.30000
24.80000	16503.30000
24.82000	13347.70000
24.84000	9937.80000
24.86000	7925.70000
24.88000	7049.10000
24.90000	6575.50000
24.92000	6336.50000
24.94000	6160.60000
24.96000	6126.90000
24.98000	6165.90000
25.00000	5993.90000
25.02000	5940.40000
25.04000	5983.80000
25.06000	5904.20000
25.08000	5781.40000
25.10000	5922.80000
25.12000	5850.70000
25.14000	5841.00000
25.16000	5682.30000
25.18000	5898.60000
25.20000	5825.10000
25.22000	5834.40000
25.24000	5912.80000
25.26000	5683.90000
25.28000	5781.60000
25.30000	5774.10000
25.32000	5773.80000
25.34000	5762.70000
25.36000	5744.40000
25.38000	5774.30000
25.40000	5778.50000
25.42000	5746.40000
25.44000	5827.50000
25.46000	6033.40000
25.48000	5791.30000
25.50000	6042.20000
25.52000	6023.80000
25.54000	6157.60000
25.56000	6307.60000
25.58000	6347.40000
25.60000	6429.40000
25.62000	6608.30000
25.64000	6787.60000
25.66000	7208.20000
25.68000	7703.00000
25.70000	8575.20000
25.72000	10198.40000
25.74000	12740.30000
25.76000	17639.60000
25.78000	25753.60000
25.80000	38408.50000
25.82000	49388.50000
25.84000	51475.50000
25.86000	44538.70000
25.88000	38382.50000
25.90000	33174.20000
25.92000	24834.40000
25.94000	17090.90000
25.96000	11890.70000
25.98000	9247.90000
26.00000	8061.20000
26.02000	7374.90000
26.04000	7086.20000
26.06000	6675.00000
26.08000	6568.40000
26.10000	6637.70000
26.12000	6715.90000
26.14000	6927.90000
26.16000	7279.10000
26.18000	7874.90000
26.20000	9106.70000
26.22000	10539.90000
26.24000	11638.10000
26.26000	11529.40000
26.28000	11043.10000
26.30000	10357.30000
26.32000	9531.80000
26.34000	8405.30000
26.36000	7466.10000
26.38000	6810.70000
26.40000	6381.10000
26.42000	6138.90000
26.44000	5901.60000
26.46000	5774.20000
26.48000	5563.90000
26.50000	5579.60000
26.52000	5699.40000
26.54000	5589.40000
26.56000	5590.90000
26.58000	5573.90000
26.60000	5550.60000
26.62000	5475.30000
26.64000	5467.00000
26.66000	5348.00000
26.68000	5366.70000
26.70000	5451.10000
26.72000	5329.20000
26.74000	5344.20000
26.76000	5476.40000
26.78000	5489.50000
26.80000	5323.60000
26.82000	5317.20000
26.84000	5391.70000
26.86000	5411.20000
26.88000	5407.20000
26.90000	5478.50000
26.92000	5579.60000
26.94000	5469.40000
26.96000	5476.30000
26.98000	5416.60000
27.00000	5639.50000
27.02000	5785.30000
27.04000	6067.30000
27.06000	6545.80000
27.08000	7296.60000
27.10000	8088.80000
27.12000	9580.90000
27.14000	10296.00000
27.16000	9931.00000
27.18000	9151.40000
27.20000	8618.30000
27.22000	7953.10000
27.24000	7070.30000
27.26000	6376.00000
27.28000	5924.30000
27.30000	5698.70000
27.32000	5461.20000
27.34000	5262.10000
27.36000	5268.30000
27.38000	5288.10000
27.40000	5208.80000
27.42000	5168.80000
27.44000	5163.40000
27.46000	5121.10000
27.48000	5096.90000
27.50000	5022.50000
27.52000	5073.30000
27.54000	5071.10000
27.56000	5117.90000
27.58000	5119.30000
27.60000	5049.30000
27.62000	5014.70000
27.64000	5022.60000
27.66000	4978.40000
27.68000	5036.50000
27.70000	5043.60000
27.72000	5060.60000
27.74000	5002.70000
27.76000	5031.00000
27.78000	4904.60000
27.80000	4987.20000
27.82000	4986.10000
27.84000	5013.50000
27.86000	4966.40000
27.88000	4990.20000
27.90000	4923.30000
27.92000	4901.40000
27.94000	4965.10000
27.96000	4957.20000
27.98000	4971.20000
28.00000	5003.20000
28.02000	4896.80000
28.04000	4938.20000
28.06000	4866.20000
28.08000	4935.80000
28.10000	4866.40000
28.12000	4785.80000
28.14000	4912.90000
28.16000	4970.60000
28.18000	4913.20000
28.20000	4885.30000
28.22000	4878.10000
28.24000	4958.20000
28.26000	4853.20000
28.28000	4913.90000
28.30000	4768.90000
28.32000	4679.60000
28.34000	4862.60000
28.36000	4886.20000
28.38000	4841.00000
28.40000	4801.90000
28.42000	4719.00000
28.44000	4843.10000
28.46000	4874.40000
28.48000	4809.80000
28.50000	4728.50000
28.52000	4602.40000
28.54000	4886.30000
28.56000	4749.10000
28.58000	4741.70000
28.60000	4779.80000
28.62000	4711.00000
28.64000	4716.70000
28.66000	4803.70000
28.68000	4757.60000
28.70000	4755.70000
28.72000	4842.00000
28.74000	4697.20000
28.76000	4676.30000
28.78000	4722.00000
28.80000	4812.80000
28.82000	4640.40000
28.84000	4752.20000
28.86000	4731.30000
28.88000	4813.30000
28.90000	4675.60000
28.92000	4724.60000
28.94000	4770.90000
28.96000	4674.80000
28.98000	4692.10000
29.00000	4639.40000
29.02000	4746.30000
29.04000	4627.60000
29.06000	4728.10000
29.08000	4659.30000
29.10000	4745.40000
29.12000	4733.10000
29.14000	4653.40000
29.16000	4709.60000
29.18000	4687.20000
29.20000	4650.50000
29.22000	4647.80000
29.24000	4695.60000
29.26000	4653.10000
29.28000	4677.50000
29.30000	4629.30000
29.32000	4620.20000
29.34000	4558.30000
29.36000	4636.70000
29.38000	4692.60000
29.40000	4648.30000
29.42000	4681.80000
29.44000	4600.30000
29.46000	4644.30000
29.48000	4624.50000
29.50000	4596.30000
29.52000	4480.30000
29.54000	4708.60000
29.56000	4644.90000
29.58000	4596.80000
29.60000	4625.50000
29.62000	4731.10000
29.64000	4629.00000
29.66000	4609.50000
29.68000	4622.50000
29.70000	4687.40000
29.72000	4568.30000
29.74000	4500.70000
29.76000	4581.40000
29.78000	4580.20000
29.80000	4633.30000
29.82000	4656.50000
29.84000	4537.60000
29.86000	4667.60000
29.88000	4531.10000
29.90000	4553.80000
29.92000	4565.40000
29.94000	4586.00000
29.96000	4347.30000
29.98000	4564.20000
30.00000	4564.70000
30.02000	4468.60000
30.04000	4597.00000
30.06000	4595.80000
30.08000	4614.90000
30.10000	4586.10000
30.12000	4608.00000
30.14000	4544.40000
30.16000	4609.00000
30.18000	4544.10000
30.20000	4547.20000
30.22000	4609.10000
30.24000	4563.40000
30.26000	4591.10000
30.28000	4557.60000
30.30000	4542.70000
30.32000	4551.20000
30.34000	4559.20000
30.36000	4642.90000
30.38000	4552.40000
30.40000	4597.70000
30.42000	4468.60000
30.44000	4465.50000
30.46000	4635.80000
30.48000	4548.70000
30.50000	4689.70000
30.52000	4672.80000
30.54000	4734.90000
30.56000	4694.70000
30.58000	4790.20000
30.60000	4941.50000
30.62000	4988.80000
30.64000	5172.30000
30.66000	5554.40000
30.68000	6079.40000
30.70000	7101.10000
30.72000	8464.20000
30.74000	10035.90000
30.76000	11216.20000
30.78000	10962.60000
30.80000	10061.30000
30.82000	9456.40000
30.84000	9034.30000
30.86000	8252.10000
30.88000	7432.20000
30.90000	6646.20000
30.92000	6088.20000
30.94000	5526.60000
30.96000	5325.00000
30.98000	5218.30000
31.00000	4931.50000
31.02000	4813.30000
31.04000	4693.70000
31.06000	4590.80000
31.08000	4549.50000
31.10000	4484.90000
31.12000	4394.60000
31.14000	4374.10000
31.16000	4404.70000
31.18000	4444.10000
31.20000	4521.00000
31.22000	4468.90000
31.24000	4493.70000
31.26000	4572.20000
31.28000	4440.20000
31.30000	4411.30000
31.32000	4427.20000
31.34000	4428.30000
31.36000	4479.00000
31.38000	4372.60000
31.40000	4411.30000
31.42000	4523.60000
31.44000	4504.90000
31.46000	4471.60000
31.48000	4474.90000
31.50000	4463.10000
31.52000	4385.60000
31.54000	4463.70000
31.56000	4355.20000
31.58000	4350.60000
31.60000	4458.30000
31.62000	4499.40000
31.64000	4464.50000
31.66000	4406.10000
31.68000	4439.20000
31.70000	4478.70000
31.72000	4443.80000
31.74000	4397.00000
31.76000	4457.50000
31.78000	4472.30000
31.80000	4433.60000
31.82000	4349.40000
31.84000	4350.40000
31.86000	4385.70000
31.88000	4426.30000
31.90000	4469.70000
31.92000	4535.60000
31.94000	4549.70000
31.96000	4570.60000
31.98000	4506.50000
32.00000	4625.50000
32.02000	4708.10000
32.04000	4688.50000
32.06000	4774.60000
32.08000	4817.30000
32.10000	4992.60000
32.12000	5184.50000
32.14000	5316.30000
32.16000	5822.80000
32.18000	6529.90000
32.20000	7348.20000
32.22000	8151.20000
32.24000	8408.80000
32.26000	8062.70000
32.28000	7473.00000
32.30000	7364.10000
32.32000	6905.40000
32.34000	6423.40000
32.36000	5865.70000
32.38000	5335.90000
32.40000	5001.80000
32.42000	4865.60000
32.44000	4693.70000
32.46000	4723.90000
32.48000	4652.90000
32.50000	4468.50000
32.52000	4401.90000
32.54000	4484.80000
32.56000	4444.70000
32.58000	4418.70000
32.60000	4482.80000
32.62000	4477.80000
32.64000	4398.30000
32.66000	4340.60000
32.68000	4368.90000
32.70000	4492.20000
32.72000	4465.80000
32.74000	4387.60000
32.76000	4432.60000
32.78000	4517.60000
32.80000	4410.70000
32.82000	4455.20000
32.84000	4424.60000
32.86000	4554.00000
32.88000	4583.30000
32.90000	4529.70000
32.92000	4592.90000
32.94000	4657.50000
32.96000	4716.10000
32.98000	4858.60000
33.00000	5010.10000
33.02000	5236.90000
33.04000	5587.80000
33.06000	6139.70000
33.08000	7384.20000
33.10000	8891.30000
33.12000	10503.70000
33.14000	11412.50000
33.16000	11908.70000
33.18000	12646.20000
33.20000	12828.80000
33.22000	11529.40000
33.24000	9663.40000
33.26000	8739.80000
33.28000	7987.70000
33.30000	7066.60000
33.32000	6019.30000
33.34000	5304.60000
33.36000	4926.30000
33.38000	4667.10000
33.40000	4731.10000
33.42000	4550.00000
33.44000	4421.40000
33.46000	4472.10000
33.48000	4368.10000
33.50000	4360.00000
33.52000	4343.50000
33.54000	4283.00000
33.56000	4352.00000
33.58000	4305.20000
33.60000	4392.80000
33.62000	4383.00000
33.64000	4342.10000
33.66000	4329.50000
33.68000	4239.10000
33.70000	4393.10000
33.72000	4187.00000
33.74000	4325.50000
33.76000	4267.00000
33.78000	4232.60000
33.80000	4333.50000
33.82000	4214.40000
33.84000	4255.80000
33.86000	4283.20000
33.88000	4346.00000
33.90000	4419.40000
33.92000	4404.40000
33.94000	4273.70000
33.96000	4345.00000
33.98000	4404.10000
34.00000	4477.40000
34.02000	4432.90000
34.04000	4554.10000
34.06000	4699.10000
34.08000	4763.10000
34.10000	5015.50000
34.12000	5495.20000
34.14000	6155.60000
34.16000	6939.00000
34.18000	7564.20000
34.20000	7477.10000
34.22000	6992.30000
34.24000	6502.70000
34.26000	6398.40000
34.28000	6132.80000
34.30000	5551.80000
34.32000	5196.50000
34.34000	4789.40000
34.36000	4583.10000
34.38000	4519.40000
34.40000	4425.60000
34.42000	4333.20000
34.44000	4271.50000
34.46000	4264.40000
34.48000	4246.70000
34.50000	4257.20000
34.52000	4126.30000
34.54000	4252.10000
34.56000	4246.10000
34.58000	4116.70000
34.60000	4133.60000
34.62000	4117.10000
34.64000	4092.40000
34.66000	4031.70000
34.68000	4082.10000
34.70000	4101.60000
34.72000	4194.90000
34.74000	4098.20000
34.76000	4136.00000
34.78000	4088.20000
34.80000	4110.00000
34.82000	4053.00000
34.84000	4115.30000
34.86000	4078.30000
34.88000	4050.70000
34.90000	4019.60000
34.92000	4011.20000
34.94000	4055.00000
34.96000	4084.60000
34.98000	4098.90000
35.00000	4031.70000
35.02000	4092.00000
35.04000	4108.30000
35.06000	4128.20000
35.08000	4156.60000
35.10000	4075.40000
35.12000	4121.20000
35.14000	4030.40000
35.16000	4052.30000
35.18000	4073.90000
35.20000	3996.70000
35.22000	4007.90000
35.24000	4009.40000
35.26000	4051.40000
35.28000	4053.60000
35.30000	4043.00000
35.32000	4113.40000
35.34000	3850.40000
35.36000	4066.30000
35.38000	4003.20000
35.40000	3979.20000
35.42000	4007.20000
35.44000	3919.50000
35.46000	3999.00000
35.48000	4022.60000
35.50000	4084.40000
35.52000	3974.50000
35.54000	4167.20000
35.56000	3989.80000
35.58000	4058.60000
35.60000	4037.70000
35.62000	3994.50000
35.64000	3948.50000
35.66000	3991.40000
35.68000	4072.50000
35.70000	3961.70000
35.72000	4127.20000
35.74000	3966.40000
35.76000	4009.30000
35.78000	4126.00000
35.80000	4214.80000
35.82000	4198.90000
35.84000	4156.00000
35.86000	4146.40000
35.88000	4152.10000
35.90000	4274.30000
35.92000	4483.60000
35.94000	4527.80000
35.96000	4784.20000
35.98000	5053.90000
36.00000	5694.90000
36.02000	6468.00000
36.04000	7585.00000
36.06000	8361.30000
36.08000	8659.50000
36.10000	8268.60000
36.12000	7562.30000
36.14000	7108.30000
36.16000	7091.20000
36.18000	6556.50000
36.20000	5869.70000
36.22000	5193.70000
36.24000	4918.90000
36.26000	4603.50000
36.28000	4350.20000
36.30000	4239.00000
36.32000	4124.20000
36.34000	4158.50000
36.36000	4156.00000
36.38000	4064.10000
36.40000	4158.40000
36.42000	4028.00000
36.44000	4045.50000
36.46000	4065.90000
36.48000	4018.60000
36.50000	4117.30000
36.52000	4062.50000
36.54000	4017.30000
36.56000	3894.00000
36.58000	3977.40000
36.60000	4032.50000
36.62000	4039.20000
36.64000	4035.60000
36.66000	4134.50000
36.68000	4100.50000
36.70000	4131.90000
36.72000	4329.10000
36.74000	4808.70000
36.76000	5261.80000
36.78000	5943.80000
36.80000	6392.50000
36.82000	6347.20000
36.84000	6034.30000
36.86000	6044.20000
36.88000	6439.90000
36.90000	6863.20000
36.92000	6722.40000
36.94000	6265.90000
36.96000	5625.90000
36.98000	5400.10000
37.00000	5419.70000
37.02000	5272.80000
37.04000	5195.50000
37.06000	5247.90000
37.08000	5099.90000
37.10000	5378.00000
37.12000	5880.40000
37.14000	6784.50000
37.16000	8146.10000
37.18000	8814.50000
37.20000	8962.70000
37.22000	8355.00000
37.24000	7810.50000
37.26000	7206.40000
37.28000	7328.80000
37.30000	6803.10000
37.32000	6170.60000
37.34000	5450.70000
37.36000	4962.80000
37.38000	4692.80000
37.40000	4427.60000
37.42000	4353.30000
37.44000	4187.40000
37.46000	4158.10000
37.48000	4153.30000
37.50000	4105.00000
37.52000	4087.70000
37.54000	4062.00000
37.56000	4156.50000
37.58000	4119.40000
37.60000	3965.30000
37.62000	3962.90000
37.64000	4069.10000
37.66000	4065.70000
37.68000	4129.60000
37.70000	4210.30000
37.72000	4458.70000
37.74000	4635.70000
37.76000	4721.30000
37.78000	4896.10000
37.80000	4973.80000
37.82000	5003.30000
37.84000	5470.10000
37.86000	5857.00000
37.88000	5994.50000
37.90000	5774.60000
37.92000	5380.90000
37.94000	5253.40000
37.96000	5238.10000
37.98000	5268.20000
38.00000	4983.60000
38.02000	4808.00000
38.04000	4848.20000
38.06000	5069.60000
38.08000	5300.40000
38.10000	5681.30000
38.12000	5789.40000
38.14000	5657.00000
38.16000	5210.60000
38.18000	5001.20000
38.20000	5020.90000
38.22000	5000.60000
38.24000	4779.00000
38.26000	4507.60000
38.28000	4323.40000
38.30000	4059.70000
38.32000	3999.00000
38.34000	3957.60000
38.36000	3974.80000
38.38000	4009.90000
38.40000	3811.60000
38.42000	3828.30000
38.44000	3838.60000
38.46000	3863.90000
38.48000	3883.70000
38.50000	3904.70000
38.52000	3841.90000
38.54000	3848.50000
38.56000	3907.10000
38.58000	3793.10000
38.60000	3925.70000
38.62000	3885.50000
38.64000	3829.70000
38.66000	3896.30000
38.68000	3869.10000
38.70000	3992.50000
38.72000	3906.40000
38.74000	3872.60000
38.76000	3962.00000
38.78000	4044.70000
38.80000	4054.50000
38.82000	4243.00000
38.84000	4456.30000
38.86000	4623.30000
38.88000	5088.10000
38.90000	5514.10000
38.92000	5941.00000
38.94000	5904.80000
38.96000	5637.40000
38.98000	5424.20000
39.00000	5330.00000
39.02000	5439.80000
39.04000	5436.40000
39.06000	5327.80000
39.08000	5047.20000
39.10000	5106.00000
39.12000	5382.30000
39.14000	5752.60000
39.16000	6368.80000
39.18000	7305.80000
39.20000	8767.10000
39.22000	10399.60000
39.24000	11529.40000
39.26000	11132.70000
39.28000	10196.30000
39.30000	9368.40000
39.32000	9028.30000
39.34000	8655.30000
39.36000	8111.80000
39.38000	7089.80000
39.40000	6202.30000
39.42000	5376.70000
39.44000	5128.30000
39.46000	4730.80000
39.48000	4397.60000
39.50000	4284.60000
39.52000	4216.50000
39.54000	4105.20000
39.56000	4102.60000
39.58000	3947.40000
39.60000	3943.00000
39.62000	3922.80000
39.64000	3869.50000
39.66000	3848.10000
39.68000	3833.40000
39.70000	3850.20000
39.72000	3803.70000
39.74000	3840.90000
39.76000	3890.60000
39.78000	3821.40000
39.80000	3812.60000
39.82000	3714.80000
39.84000	3791.20000
39.86000	3805.40000
39.88000	3791.90000
39.90000	3819.50000
39.92000	3747.90000
39.94000	3744.70000
39.96000	3806.20000
39.98000	3751.40000
40.00000	3759.30000
40.02000	3753.70000
40.04000	3740.80000
40.06000	3758.70000
40.08000	3801.50000
40.10000	3755.20000
40.12000	3715.30000
40.14000	3664.20000
40.16000	3728.80000
40.18000	3662.10000
40.20000	3767.30000
40.22000	3793.50000
40.24000	3651.80000
40.26000	3730.70000
40.28000	3717.10000
40.30000	3724.30000
40.32000	3701.90000
40.34000	3634.80000
40.36000	3657.20000
40.38000	3718.00000
40.40000	3657.90000
40.42000	3705.90000
40.44000	3733.70000
40.46000	3787.70000
40.48000	3776.10000
40.50000	3828.50000
40.52000	3815.20000
40.54000	3888.00000
40.56000	3927.20000
40.58000	4060.30000
40.60000	4291.70000
40.62000	4445.50000
40.64000	4699.10000
40.66000	4699.40000
40.68000	4477.20000
40.70000	4345.10000
40.72000	4329.30000
40.74000	4349.20000
40.76000	4334.00000
40.78000	4152.50000
40.80000	4075.60000
40.82000	3903.30000
40.84000	3942.70000
40.86000	3827.80000
40.88000	3817.40000
40.90000	3731.30000
40.92000	3660.40000
40.94000	3726.10000
40.96000	3702.50000
40.98000	3688.40000
41.00000	3752.20000
41.02000	3792.30000
41.04000	3760.10000
41.06000	3815.00000
41.08000	3702.50000
41.10000	3651.00000
41.12000	3739.00000
41.14000	3676.60000
41.16000	3724.10000
41.18000	3720.50000
41.20000	3779.90000
41.22000	3839.50000
41.24000	3924.90000
41.26000	3848.30000
41.28000	3893.20000
41.30000	3995.90000
41.32000	4057.80000
41.34000	4213.20000
41.36000	4335.10000
41.38000	4705.20000
41.40000	5185.90000
41.42000	5759.70000
41.44000	6026.90000
41.46000	5899.30000
41.48000	5531.80000
41.50000	5257.20000
41.52000	5330.10000
41.54000	5378.90000
41.56000	5568.70000
41.58000	5615.70000
41.60000	5855.60000
41.62000	6030.60000
41.64000	6257.50000
41.66000	6218.60000
41.68000	6239.40000
41.70000	6424.30000
41.72000	6822.10000
41.74000	7504.60000
41.76000	8832.70000
41.78000	9542.30000
41.80000	10080.60000
41.82000	10421.80000
41.84000	10350.60000
41.86000	9636.30000
41.88000	8602.50000
41.90000	7932.60000
41.92000	7464.10000
41.94000	7099.00000
41.96000	6574.90000
41.98000	5797.60000
42.00000	5194.50000
42.02000	4723.20000
42.04000	4340.10000
42.06000	4260.90000
42.08000	4270.80000
42.10000	4189.40000
42.12000	4126.30000
42.14000	4270.00000
42.16000	4426.60000
42.18000	4795.80000
42.20000	5205.70000
42.22000	5754.00000
42.24000	6101.20000
42.26000	6568.30000
42.28000	6862.10000
42.30000	7227.80000
42.32000	7432.30000
42.34000	7170.90000
42.36000	6747.40000
42.38000	6355.20000
42.40000	6406.60000
42.42000	6566.60000
42.44000	6671.90000
42.46000	6778.00000
42.48000	7253.00000
42.50000	8110.70000
42.52000	8938.80000
42.54000	9377.00000
42.56000	8628.90000
42.58000	8006.40000
42.60000	7371.00000
42.62000	7209.30000
42.64000	7113.40000
42.66000	6651.90000
42.68000	6031.40000
42.70000	5287.00000
42.72000	4800.80000
42.74000	4323.30000
42.76000	4224.20000
42.78000	4029.20000
42.80000	3945.20000
42.82000	3822.00000
42.84000	3731.10000
42.86000	3860.20000
42.88000	3837.20000
42.90000	3689.20000
42.92000	3626.20000
42.94000	3501.20000
42.96000	3689.80000
42.98000	3531.40000
43.00000	3581.10000
43.02000	3570.10000
43.04000	3548.70000
43.06000	3596.50000
43.08000	3636.00000
43.10000	3590.10000
43.12000	3569.50000
43.14000	3530.60000
43.16000	3630.80000
43.18000	3520.20000
43.20000	3571.00000
43.22000	3524.90000
43.24000	3491.40000
43.26000	3539.00000
43.28000	3520.30000
43.30000	3468.10000
43.32000	3533.90000
43.34000	3541.30000
43.36000	3555.00000
43.38000	3426.40000
43.40000	3530.60000
43.42000	3598.00000
43.44000	3540.90000
43.46000	3377.50000
43.48000	3488.40000
43.50000	3480.70000
43.52000	3556.30000
43.54000	3495.00000
43.56000	3464.00000
43.58000	3578.40000
43.60000	3510.30000
43.62000	3499.50000
43.64000	3518.80000
43.66000	3479.30000
43.68000	3489.60000
43.70000	3405.10000
43.72000	3447.70000
43.74000	3377.10000
43.76000	3499.60000
43.78000	3469.90000
43.80000	3535.30000
43.82000	3480.30000
43.84000	3498.20000
43.86000	3634.70000
43.88000	3512.50000
43.90000	3471.90000
43.92000	3466.50000
43.94000	3517.10000
43.96000	3457.60000
43.98000	3503.80000
44.00000	3472.90000
44.02000	3465.90000
44.04000	3472.50000
44.06000	3436.80000
44.08000	3555.20000
44.10000	3458.40000
44.12000	3530.80000
44.14000	3562.80000
44.16000	3487.80000
44.18000	3438.40000
44.20000	3514.30000
44.22000	3458.00000
44.24000	3470.90000
44.26000	3524.30000
44.28000	3445.60000
44.30000	3504.90000
44.32000	3436.50000
44.34000	3438.80000
44.36000	3430.30000
44.38000	3469.40000
44.40000	3432.10000
44.42000	3519.50000
44.44000	3469.30000
44.46000	3412.00000
44.48000	3496.60000
44.50000	3504.50000
44.52000	3557.30000
44.54000	3435.50000
44.56000	3413.70000
44.58000	3544.90000
44.60000	3527.70000
44.62000	3588.10000
44.64000	3529.00000
44.66000	3614.50000
44.68000	3827.70000
44.70000	4015.70000
44.72000	4192.50000
44.74000	4472.60000
44.76000	4824.10000
44.78000	5119.30000
44.80000	5328.90000
44.82000	5346.20000
44.84000	5437.40000
44.86000	5476.10000
44.88000	5319.70000
44.90000	5564.50000
44.92000	5562.00000
44.94000	5503.00000
44.96000	5260.80000
44.98000	5140.40000
45.00000	4766.40000
45.02000	4505.30000
45.04000	4255.10000
45.06000	4221.20000
45.08000	4203.50000
45.10000	3904.50000
45.12000	3952.60000
45.14000	3750.10000
45.16000	3695.80000
45.18000	3571.60000
45.20000	3506.40000
45.22000	3549.30000
45.24000	3573.60000
45.26000	3539.70000
45.28000	3521.80000
45.30000	3423.40000
45.32000	3453.60000
45.34000	3394.30000
45.36000	3440.60000
45.38000	3500.20000
45.40000	3561.90000
45.42000	3386.80000
45.44000	3405.20000
45.46000	3372.30000
45.48000	3454.70000
45.50000	3436.40000
45.52000	3505.90000
45.54000	3461.60000
45.56000	3475.70000
45.58000	3379.30000
45.60000	3516.20000
45.62000	3626.40000
45.64000	3557.30000
45.66000	3544.00000
45.68000	3514.10000
45.70000	3661.10000
45.72000	3796.80000
45.74000	3826.40000
45.76000	3915.60000
45.78000	4192.40000
45.80000	4510.60000
45.82000	4793.20000
45.84000	5375.00000
45.86000	5678.10000
45.88000	5647.30000
45.90000	5542.70000
45.92000	5300.20000
45.94000	5360.40000
45.96000	5467.80000
45.98000	5456.90000
46.00000	5358.10000
46.02000	4934.00000
46.04000	4593.60000
46.06000	4336.00000
46.08000	4237.50000
46.10000	4169.10000
46.12000	3949.10000
46.14000	3832.10000
46.16000	3674.10000
46.18000	3648.60000
46.20000	3606.30000
46.22000	3550.40000
46.24000	3534.40000
46.26000	3500.60000
46.28000	3503.00000
46.30000	3543.90000
46.32000	3402.40000
46.34000	3514.80000
46.36000	3485.00000
46.38000	3532.50000
46.40000	3493.90000
46.42000	3547.80000
46.44000	3450.30000
46.46000	3560.20000
46.48000	3633.30000
46.50000	3800.80000
46.52000	3891.60000
46.54000	4007.40000
46.56000	3883.60000
46.58000	3782.10000
46.60000	3694.50000
46.62000	3654.40000
46.64000	3712.20000
46.66000	3687.10000
46.68000	3605.20000
46.70000	3629.70000
46.72000	3538.30000
46.74000	3544.80000
46.76000	3470.80000
46.78000	3453.60000
46.80000	3484.00000
46.82000	3571.00000
46.84000	3437.00000
46.86000	3461.30000
46.88000	3528.00000
46.90000	3535.50000
46.92000	3661.80000
46.94000	3773.50000
46.96000	3730.20000
46.98000	3721.90000
47.00000	3648.10000
47.02000	3705.50000
47.04000	3620.70000
47.06000	3725.10000
47.08000	3700.80000
47.10000	3717.80000
47.12000	3614.30000
47.14000	3684.60000
47.16000	3685.50000
47.18000	3725.20000
47.20000	3780.20000
47.22000	3977.40000
47.24000	4139.30000
47.26000	4485.50000
47.28000	4967.70000
47.30000	5637.60000
47.32000	6242.20000
47.34000	6698.30000
47.36000	6348.50000
47.38000	5845.90000
47.40000	5425.20000
47.42000	5315.00000
47.44000	5418.40000
47.46000	5474.00000
47.48000	5314.00000
47.50000	5126.60000
47.52000	4732.70000
47.54000	4712.60000
47.56000	4830.80000
47.58000	5045.40000
47.60000	5223.10000
47.62000	5295.10000
47.64000	4945.10000
47.66000	4653.50000
47.68000	4644.60000
47.70000	4444.90000
47.72000	4468.10000
47.74000	4468.00000
47.76000	4318.50000
47.78000	4061.20000
47.80000	3862.10000
47.82000	3756.50000
47.84000	3679.80000
47.86000	3505.60000
47.88000	3502.60000
47.90000	3463.30000
47.92000	3463.70000
47.94000	3360.90000
47.96000	3401.50000
47.98000	3396.40000
48.00000	3360.70000
48.02000	3418.70000
48.04000	3419.30000
48.06000	3336.40000
48.08000	3298.60000
48.10000	3378.00000
48.12000	3432.60000
48.14000	3439.10000
48.16000	3358.00000
48.18000	3300.50000
48.20000	3318.60000
48.22000	3305.10000
48.24000	3286.20000
48.26000	3346.80000
48.28000	3329.90000
48.30000	3357.20000
48.32000	3415.20000
48.34000	3331.10000
48.36000	3356.60000
48.38000	3327.50000
48.40000	3384.70000
48.42000	3320.50000
48.44000	3364.20000
48.46000	3388.20000
48.48000	3401.00000
48.50000	3391.60000
48.52000	3247.90000
48.54000	3245.90000
48.56000	3242.50000
48.58000	3345.40000
48.60000	3433.00000
48.62000	3345.70000
48.64000	3407.80000
48.66000	3419.40000
48.68000	3410.00000
48.70000	3552.70000
48.72000	3609.40000
48.74000	3626.20000
48.76000	3892.00000
48.78000	4098.40000
48.80000	4176.60000
48.82000	4250.60000
48.84000	4229.00000
48.86000	4243.50000
48.88000	4228.60000
48.90000	4179.40000
48.92000	4026.10000
48.94000	4013.80000
48.96000	3932.00000
48.98000	3876.00000
49.00000	3771.80000
49.02000	3661.90000
49.04000	3557.80000
49.06000	3552.60000
49.08000	3531.70000
49.10000	3436.60000
49.12000	3346.90000
49.14000	3315.30000
49.16000	3241.80000
49.18000	3288.20000
49.20000	3308.60000
49.22000	3380.10000
49.24000	3287.00000
49.26000	3424.80000
49.28000	3377.00000
49.30000	3426.10000
49.32000	3410.10000
49.34000	3295.70000
49.36000	3470.30000
49.38000	3328.70000
49.40000	3325.80000
49.42000	3312.50000
49.44000	3284.10000
49.46000	3415.10000
49.48000	3379.80000
49.50000	3359.30000
49.52000	3439.90000
49.54000	3544.80000
49.56000	3501.50000
49.58000	3581.60000
49.60000	3690.90000
49.62000	3769.90000
49.64000	3988.70000
49.66000	4336.50000
49.68000	4201.90000
49.70000	4280.80000
49.72000	4198.40000
49.74000	4054.60000
49.76000	4089.40000
49.78000	4143.10000
49.80000	4417.00000
49.82000	4507.50000
49.84000	4430.90000
49.86000	4271.40000
49.88000	4036.40000
49.90000	3848.70000
49.92000	3882.10000
49.94000	3860.40000
49.96000	3824.40000
49.98000	3716.20000
50.00000	3643.10000
50.02000	3439.70000
50.04000	3475.60000
50.06000	3501.00000
50.08000	3464.60000
50.10000	3533.00000
50.12000	3383.80000
50.14000	3260.80000
50.16000	3293.40000
50.18000	3383.60000
50.20000	3373.10000
50.22000	3403.20000
50.24000	3439.30000
50.26000	3440.90000
50.28000	3442.00000
50.30000	3545.30000
50.32000	3590.40000
50.34000	3622.80000
50.36000	3696.00000
50.38000	3949.90000
50.40000	4305.70000
50.42000	4594.50000
50.44000	5059.10000
50.46000	5770.10000
50.48000	6088.30000
50.50000	5906.80000
50.52000	5499.30000
50.54000	5103.30000
50.56000	4994.40000
50.58000	4999.60000
50.60000	4853.10000
50.62000	4962.10000
50.64000	4835.70000
50.66000	4736.50000
50.68000	4592.80000
50.70000	4753.00000
50.72000	5181.50000
50.74000	5494.20000
50.76000	5522.40000
50.78000	4933.20000
50.80000	4395.40000
50.82000	4089.40000
50.84000	4136.40000
50.86000	4285.00000
50.88000	4418.60000
50.90000	4333.60000
50.92000	4136.20000
50.94000	3800.00000
50.96000	3651.70000
50.98000	3564.40000
51.00000	3523.60000
51.02000	3483.30000
51.04000	3456.80000
51.06000	3591.60000
51.08000	3546.00000
51.10000	3547.10000
51.12000	3631.10000
51.14000	3709.60000
51.16000	3816.90000
51.18000	3967.30000
51.20000	4214.50000
51.22000	4302.50000
51.24000	4422.90000
51.26000	4600.90000
51.28000	4970.20000
51.30000	5268.00000
51.32000	5521.10000
51.34000	5542.20000
51.36000	5307.20000
51.38000	5059.20000
51.40000	4800.80000
51.42000	4671.20000
51.44000	4609.20000
51.46000	4524.70000
51.48000	4419.20000
51.50000	4285.60000
51.52000	4133.40000
51.54000	3833.30000
51.56000	3686.70000
51.58000	3607.70000
51.60000	3430.60000
51.62000	3454.00000
51.64000	3409.50000
51.66000	3376.70000
51.68000	3321.90000
51.70000	3432.70000
51.72000	3299.60000
51.74000	3294.80000
51.76000	3267.00000
51.78000	3248.30000
51.80000	3277.80000
51.82000	3318.70000
51.84000	3238.10000
51.86000	3269.30000
51.88000	3269.80000
51.90000	3268.70000
51.92000	3282.80000
51.94000	3249.60000
51.96000	3238.60000
51.98000	3232.20000
52.00000	3195.70000
52.02000	3190.40000
52.04000	3240.20000
52.06000	3226.70000
52.08000	3222.50000
52.10000	3157.00000
52.12000	3189.80000
52.14000	3226.40000
52.16000	3228.10000
52.18000	3230.80000
52.20000	3131.50000
52.22000	3101.10000
52.24000	3152.00000
52.26000	3232.20000
52.28000	3242.80000
52.30000	3110.30000
52.32000	3301.90000
52.34000	3189.20000
52.36000	3186.80000
52.38000	3182.70000
52.40000	3195.70000
52.42000	3221.80000
52.44000	3267.70000
52.46000	3185.00000
52.48000	3293.00000
52.50000	3344.70000
52.52000	3230.90000
52.54000	3217.30000
52.56000	3210.50000
52.58000	3148.80000
52.60000	3193.70000
52.62000	3129.80000
52.64000	3194.60000
52.66000	3239.20000
52.68000	3180.10000
52.70000	3219.20000
52.72000	3181.50000
52.74000	3250.90000
52.76000	3220.60000
52.78000	3201.30000
52.80000	3193.90000
52.82000	3203.30000
52.84000	3264.90000
52.86000	3216.20000
52.88000	3132.80000
52.90000	3209.00000
52.92000	3110.10000
52.94000	3236.70000
52.96000	3252.00000
52.98000	3314.20000
53.00000	3245.70000
53.02000	3335.90000
53.04000	3427.40000
53.06000	3387.00000
53.08000	3510.10000
53.10000	3722.90000
53.12000	3880.60000
53.14000	3684.50000
53.16000	3550.90000
53.18000	3534.50000
53.20000	3596.00000
53.22000	3513.00000
53.24000	3586.60000
53.26000	3563.90000
53.28000	3576.10000
53.30000	3602.00000
53.32000	3558.50000
53.34000	3643.60000
53.36000	3674.00000
53.38000	3829.90000
53.40000	3969.80000
53.42000	3901.80000
53.44000	3946.40000
53.46000	3705.20000
53.48000	3591.10000
53.50000	3610.30000
53.52000	3654.00000
53.54000	3655.00000
53.56000	3705.50000
53.58000	3514.50000
53.60000	3471.50000
53.62000	3571.90000
53.64000	3429.70000
53.66000	3402.60000
53.68000	3346.40000
53.70000	3364.50000
53.72000	3461.90000
53.74000	3404.80000
53.76000	3475.20000
53.78000	3647.40000
53.80000	3725.90000
53.82000	3813.90000
53.84000	4136.80000
53.86000	4104.10000
53.88000	4010.10000
53.90000	3878.50000
53.92000	3755.60000
53.94000	3881.10000
53.96000	3920.50000
53.98000	4059.60000
54.00000	4133.90000
54.02000	4181.50000
54.04000	4130.70000
54.06000	4149.90000
54.08000	4078.10000
54.10000	4028.00000
54.12000	3987.70000
54.14000	3792.60000
54.16000	3893.10000
54.18000	3805.30000
54.20000	3896.80000
54.22000	3949.70000
54.24000	3858.40000
54.26000	3921.70000
54.28000	4010.90000
54.30000	4143.20000
54.32000	4390.60000
54.34000	4867.70000
54.36000	5136.70000
54.38000	5240.00000
54.40000	5184.00000
54.42000	4883.70000
54.44000	4633.10000
54.46000	4390.60000
54.48000	4364.30000
54.50000	4324.00000
54.52000	4448.50000
54.54000	4316.80000
54.56000	4079.50000
54.58000	3803.00000
54.60000	3629.50000
54.62000	3489.00000
54.64000	3559.50000
54.66000	3521.60000
54.68000	3404.50000
54.70000	3375.10000
54.72000	3366.80000
54.74000	3330.80000
54.76000	3299.00000
54.78000	3225.90000
54.80000	3104.40000
54.82000	3216.40000
54.84000	3172.40000
54.86000	3272.20000
54.88000	3220.80000
54.90000	3266.50000
54.92000	3254.50000
54.94000	3160.30000
54.96000	3210.30000
54.98000	3196.20000
55.00000	3207.30000
55.02000	3259.60000
55.04000	3233.10000
55.06000	3182.60000
55.08000	3249.60000
55.10000	3328.80000
55.12000	3299.60000
55.14000	3371.60000
55.16000	3434.10000
55.18000	3506.70000
55.20000	3713.00000
55.22000	3789.60000
55.24000	3725.60000
55.26000	3740.20000
55.28000	3525.30000
55.30000	3484.70000
55.32000	3486.20000
55.34000	3471.20000
55.36000	3546.00000
55.38000	3442.90000
55.40000	3365.40000
55.42000	3406.20000
55.44000	3384.40000
55.46000	3236.40000
55.48000	3294.50000
55.50000	3235.50000
55.52000	3174.20000
55.54000	3245.60000
55.56000	3191.30000
55.58000	3167.50000
55.60000	3198.70000
55.62000	3191.90000
55.64000	3226.60000
55.66000	3164.60000
55.68000	3159.20000
55.70000	3159.60000
55.72000	3160.70000
55.74000	3154.20000
55.76000	3215.30000
55.78000	3176.90000
55.80000	3147.60000
55.82000	3097.40000
55.84000	3213.90000
55.86000	3088.10000
55.88000	3209.40000
55.90000	3206.40000
55.92000	3227.70000
55.94000	3194.60000
55.96000	3238.00000
55.98000	3320.40000
56.00000	3387.10000
56.02000	3286.10000
56.04000	3263.20000
56.06000	3176.50000
56.08000	3286.10000
56.10000	3191.70000
56.12000	3223.30000
56.14000	3196.60000
56.16000	3154.70000
56.18000	3224.50000
56.20000	3124.10000
56.22000	3148.60000
56.24000	3121.10000
56.26000	3250.60000
56.28000	3172.90000
56.30000	3167.00000
56.32000	3145.90000
56.34000	3162.00000
56.36000	3186.70000
56.38000	3184.20000
56.40000	3191.70000
56.42000	3174.90000
56.44000	3191.60000
56.46000	3263.40000
56.48000	3320.20000
56.50000	3318.90000
56.52000	3379.90000
56.54000	3423.70000
56.56000	3382.40000
56.58000	3270.40000
56.60000	3369.60000
56.62000	3365.00000
56.64000	3424.80000
56.66000	3526.40000
56.68000	3735.50000
56.70000	3722.50000
56.72000	3708.60000
56.74000	3640.90000
56.76000	3586.30000
56.78000	3675.60000
56.80000	3453.50000
56.82000	3505.00000
56.84000	3554.10000
56.86000	3461.40000
56.88000	3569.10000
56.90000	3592.10000
56.92000	3624.40000
56.94000	3611.40000
56.96000	3691.80000
56.98000	3755.90000
57.00000	3707.00000
57.02000	3684.60000
57.04000	3649.30000
57.06000	3431.90000
57.08000	3539.20000
57.10000	3574.30000
57.12000	3613.40000
57.14000	3686.40000
57.16000	3810.80000
57.18000	3964.80000
57.20000	3962.30000
57.22000	4197.90000
57.24000	4230.00000
57.26000	4238.50000
57.28000	4109.60000
57.30000	3919.00000
57.32000	3956.50000
57.34000	4236.30000
57.36000	4443.60000
57.38000	4565.00000
57.40000	4847.00000
57.42000	4809.30000
57.44000	4548.30000
57.46000	4291.50000
57.48000	3984.30000
57.50000	3957.90000
57.52000	3891.20000
57.54000	3894.10000
57.56000	3903.30000
57.58000	3897.20000
57.60000	3905.70000
57.62000	3685.40000
57.64000	3667.60000
57.66000	3667.20000
57.68000	3691.30000
57.70000	3890.00000
57.72000	4121.70000
57.74000	4366.50000
57.76000	4489.30000
57.78000	4683.10000
57.80000	4684.70000
57.82000	4718.20000
57.84000	4554.30000
57.86000	4336.40000
57.88000	4199.00000
57.90000	4149.60000
57.92000	4142.30000
57.94000	4218.30000
57.96000	4070.40000
57.98000	4177.20000
58.00000	3998.00000
58.02000	3948.00000
58.04000	3920.30000
58.06000	3814.20000
58.08000	3856.40000
58.10000	3691.00000
58.12000	3677.20000
58.14000	3596.40000
58.16000	3594.80000
58.18000	3503.70000
58.20000	3490.90000
58.22000	3470.20000
58.24000	3533.60000
58.26000	3465.50000
58.28000	3506.50000
58.30000	3464.50000
58.32000	3531.00000
58.34000	3644.40000
58.36000	3669.70000
58.38000	3628.60000
58.40000	3462.90000
58.42000	3543.40000
58.44000	3388.80000
58.46000	3418.00000
58.48000	3444.30000
58.50000	3468.30000
58.52000	3450.70000
58.54000	3391.40000
58.56000	3314.80000
58.58000	3208.40000
58.60000	3289.70000
58.62000	3238.10000
58.64000	3249.00000
58.66000	3214.30000
58.68000	3191.50000
58.70000	3197.20000
58.72000	3188.60000
58.74000	3051.20000
58.76000	3185.30000
58.78000	3321.60000
58.80000	3211.80000
58.82000	3206.50000
58.84000	3146.40000
58.86000	3153.60000
58.88000	3149.10000
58.90000	3086.40000
58.92000	3168.80000
58.94000	3189.80000
58.96000	3214.70000
58.98000	3147.90000
59.00000	3076.60000
59.02000	3181.10000
59.04000	3236.40000
59.06000	3150.30000
59.08000	3202.40000
59.10000	3260.10000
59.12000	3344.50000
59.14000	3208.60000
59.16000	3296.40000
59.18000	3368.60000
59.20000	3552.00000
59.22000	3516.10000
59.24000	3592.10000
59.26000	3687.80000
59.28000	3798.00000
59.30000	3792.70000
59.32000	3764.50000
59.34000	3835.50000
59.36000	3778.00000
59.38000	3769.50000
59.40000	3911.80000
59.42000	4052.20000
59.44000	4240.00000
59.46000	4429.20000
59.48000	4284.10000
59.50000	4224.40000
59.52000	3922.40000
59.54000	3757.20000
59.56000	3731.50000
59.58000	3685.10000
59.60000	3739.40000
59.62000	3743.00000
59.64000	3748.20000
59.66000	3707.80000
59.68000	3591.40000
59.70000	3481.90000
59.72000	3351.80000
59.74000	3248.80000
59.76000	3431.80000
59.78000	3417.10000
59.80000	3337.20000
59.82000	3229.80000
59.84000	3357.00000
59.86000	3438.40000
59.88000	3621.80000
59.90000	3674.80000
59.92000	3800.60000
59.94000	3953.80000
59.96000	4280.50000
59.98000	4597.70000
60.00000	4713.80000
60.02000	4441.60000
60.04000	4182.00000
60.06000	3959.20000
60.08000	3897.90000
60.10000	3950.90000
60.12000	4105.70000
60.14000	4139.50000
60.16000	4281.40000
60.18000	3997.70000
60.20000	3868.60000
60.22000	3741.20000
60.24000	3655.50000
60.26000	3607.00000
60.28000	3662.90000
60.30000	3696.80000
60.32000	3512.70000
60.34000	3459.30000
60.36000	3381.90000
60.38000	3356.60000
60.40000	3442.80000
60.42000	3441.30000
60.44000	3307.20000
60.46000	3326.70000
60.48000	3321.10000
60.50000	3320.30000
60.52000	3354.80000
60.54000	3307.30000
60.56000	3415.30000
60.58000	3422.20000
60.60000	3447.00000
60.62000	3460.50000
60.64000	3545.80000
60.66000	3359.90000
60.68000	3453.00000
60.70000	3380.60000
60.72000	3353.60000
60.74000	3532.90000
60.76000	3625.70000
60.78000	3830.70000
60.80000	4014.20000
60.82000	4099.90000
60.84000	4153.60000
60.86000	4046.60000
60.88000	3905.60000
60.90000	3631.60000
60.92000	3602.90000
60.94000	3616.90000
60.96000	3591.70000
60.98000	3682.80000
61.00000	3682.90000
61.02000	3707.40000
61.04000	3542.70000
61.06000	3472.70000
61.08000	3403.20000
61.10000	3296.20000
61.12000	3229.80000
61.14000	3297.70000
61.16000	3205.80000
61.18000	3218.40000
61.20000	3232.90000
61.22000	3171.80000
61.24000	3218.70000
61.26000	3184.80000
61.28000	3139.10000
61.30000	3273.00000
61.32000	3207.00000
61.34000	3204.30000
61.36000	3272.90000
61.38000	3261.10000
61.40000	3356.70000
61.42000	3379.60000
61.44000	3432.00000
61.46000	3569.10000
61.48000	3680.80000
61.50000	3800.50000
61.52000	3688.10000
61.54000	3687.20000
61.56000	3497.60000
61.58000	3438.40000
61.60000	3373.90000
61.62000	3408.90000
61.64000	3480.10000
61.66000	3537.30000
61.68000	3561.80000
61.70000	3577.90000
61.72000	3469.00000
61.74000	3420.70000
61.76000	3469.20000
61.78000	3440.30000
61.80000	3427.00000
61.82000	3367.10000
61.84000	3312.00000
61.86000	3468.50000
61.88000	3466.60000
61.90000	3574.00000
61.92000	3624.70000
61.94000	3755.60000
61.96000	3676.40000
61.98000	3866.10000
62.00000	3697.40000
62.02000	3478.70000
62.04000	3544.70000
62.06000	3521.10000
62.08000	3435.70000
62.10000	3460.50000
62.12000	3490.00000
62.14000	3464.60000
62.16000	3465.90000
62.18000	3390.30000
62.20000	3286.80000
62.22000	3221.70000
62.24000	3280.90000
62.26000	3179.00000
62.28000	3232.00000
62.30000	3147.90000
62.32000	3168.40000
62.34000	3145.90000
62.36000	3158.40000
62.38000	3176.00000
62.40000	3196.30000
62.42000	3220.00000
62.44000	3158.10000
62.46000	3283.30000
62.48000	3295.60000
62.50000	3420.00000
62.52000	3408.40000
62.54000	3440.50000
62.56000	3599.90000
62.58000	3747.60000
62.60000	3785.50000
62.62000	3830.10000
62.64000	3778.40000
62.66000	3763.80000
62.68000	3898.50000
62.70000	3882.60000
62.72000	4017.60000
62.74000	4200.00000
62.76000	4292.50000
62.78000	4453.90000
62.80000	4591.50000
62.82000	4537.50000
62.84000	4367.00000
62.86000	4090.30000
62.88000	3994.00000
62.90000	3849.20000
62.92000	3857.30000
62.94000	3798.50000
62.96000	3800.40000
62.98000	3775.70000
63.00000	3796.00000
63.02000	3645.60000
63.04000	3549.00000
63.06000	3406.20000
63.08000	3330.10000
63.10000	3407.10000
63.12000	3302.90000
63.14000	3342.30000
63.16000	3241.70000
63.18000	3228.90000
63.20000	3501.50000
63.22000	3436.30000
63.24000	3413.80000
63.26000	3591.20000
63.28000	3514.00000
63.30000	3510.40000
63.32000	3479.50000
63.34000	3534.40000
63.36000	3563.80000
63.38000	3698.80000
63.40000	3955.50000
63.42000	4039.80000
63.44000	4271.50000
63.46000	4314.90000
63.48000	4225.40000
63.50000	4121.30000
63.52000	4043.50000
63.54000	3927.60000
63.56000	3804.50000
63.58000	3712.80000
63.60000	3757.00000
63.62000	3743.60000
63.64000	3776.10000
63.66000	3713.70000
63.68000	3622.70000
63.70000	3500.40000
63.72000	3350.60000
63.74000	3353.70000
63.76000	3351.00000
63.78000	3289.20000
63.80000	3221.30000
63.82000	3187.40000
63.84000	3151.00000
63.86000	3130.90000
63.88000	3270.80000
63.90000	3200.90000
63.92000	3275.20000
63.94000	3345.80000
63.96000	3361.00000
63.98000	3412.50000
64.00000	3541.20000
64.02000	3564.60000
64.04000	3570.60000
64.06000	3538.80000
64.08000	3473.00000
64.10000	3359.70000
64.12000	3380.10000
64.14000	3364.90000
64.16000	3337.60000
64.18000	3466.30000
64.20000	3369.60000
64.22000	3411.60000
64.24000	3381.60000
64.26000	3305.30000
64.28000	3308.70000
64.30000	3353.00000
64.32000	3509.60000
64.34000	3527.70000
64.36000	3537.90000
64.38000	3539.50000
64.40000	3633.50000
64.42000	3561.80000
64.44000	3420.40000
64.46000	3354.70000
64.48000	3343.60000
64.50000	3273.20000
64.52000	3404.70000
64.54000	3323.30000
64.56000	3414.30000
64.58000	3450.70000
64.60000	3477.90000
64.62000	3439.80000
64.64000	3400.10000
64.66000	3429.00000
64.68000	3322.70000
64.70000	3272.30000
64.72000	3197.20000
64.74000	3173.80000
64.76000	3132.10000
64.78000	3186.40000
64.80000	3319.00000
64.82000	3336.60000
64.84000	3211.20000
64.86000	3092.00000
64.88000	3123.40000
64.90000	3124.20000
64.92000	3069.20000
64.94000	3104.30000
64.96000	3088.70000
64.98000	3129.90000
65.00000	3197.10000
65.02000	3310.50000
65.04000	3254.30000
65.06000	3306.30000
65.08000	3353.90000
65.10000	3408.80000
65.12000	3467.40000
65.14000	3458.70000
65.16000	3404.70000
65.18000	3292.10000
65.20000	3309.10000
65.22000	3243.50000
65.24000	3344.10000
65.26000	3263.70000
65.28000	3256.10000
65.30000	3260.40000
65.32000	3339.60000
65.34000	3130.40000
65.36000	3121.00000
65.38000	3154.50000
65.40000	3056.20000
65.42000	3076.90000
65.44000	3090.80000
65.46000	3056.50000
65.48000	2998.20000
65.50000	3073.00000
65.52000	3089.60000
65.54000	3058.70000
65.56000	3045.80000
65.58000	3102.40000
65.60000	3094.30000
65.62000	3076.60000
65.64000	3034.40000
65.66000	3070.60000
65.68000	3051.70000
65.70000	3072.50000
65.72000	3203.90000
65.74000	3211.70000
65.76000	3303.00000
65.78000	3385.70000
65.80000	3410.50000
65.82000	3348.50000
65.84000	3414.20000
65.86000	3371.20000
65.88000	3403.60000
65.90000	3411.70000
65.92000	3372.20000
65.94000	3405.40000
65.96000	3424.70000
65.98000	3428.30000
66.00000	3418.50000
66.02000	3464.70000
66.04000	3362.30000
66.06000	3361.00000
66.08000	3275.00000
66.10000	3210.70000
66.12000	3156.20000
66.14000	3201.20000
66.16000	3229.60000
66.18000	3268.80000
66.20000	3111.60000
66.22000	3189.10000
66.24000	3183.70000
66.26000	3223.10000
66.28000	3137.50000
66.30000	3184.00000
66.32000	3133.40000
66.34000	3246.00000
66.36000	3425.50000
66.38000	3446.90000
66.40000	3587.50000
66.42000	3525.00000
66.44000	3507.50000
66.46000	3513.70000
66.48000	3462.10000
66.50000	3404.20000
66.52000	3385.40000
66.54000	3522.20000
66.56000	3528.50000
66.58000	3604.90000
66.60000	3591.30000
66.62000	3587.90000
66.64000	3537.90000
66.66000	3579.50000
66.68000	3647.80000
66.70000	3673.50000
66.72000	3651.20000
66.74000	3540.10000
66.76000	3540.70000
66.78000	3468.60000
66.80000	3339.60000
66.82000	3347.10000
66.84000	3374.40000
66.86000	3296.10000
66.88000	3358.60000
66.90000	3359.90000
66.92000	3271.90000
66.94000	3216.20000
66.96000	3144.10000
66.98000	3183.80000
67.00000	3152.10000
67.02000	3182.30000
67.04000	3188.20000
67.06000	3202.80000
67.08000	3219.90000
67.10000	3276.80000
67.12000	3175.30000
67.14000	3284.60000
67.16000	3280.60000
67.18000	3376.30000
67.20000	3415.10000
67.22000	3421.90000
67.24000	3467.20000
67.26000	3610.00000
67.28000	3685.10000
67.30000	3778.40000
67.32000	3880.80000
67.34000	3911.30000
67.36000	3807.00000
67.38000	3719.90000
67.40000	3613.20000
67.42000	3544.70000
67.44000	3497.10000
67.46000	3667.90000
67.48000	3633.50000
67.50000	3677.20000
67.52000	3639.10000
67.54000	3651.00000
67.56000	3549.40000
67.58000	3407.20000
67.60000	3426.90000
67.62000	3345.40000
67.64000	3320.10000
67.66000	3306.10000
67.68000	3242.80000
67.70000	3160.10000
67.72000	3215.00000
67.74000	3227.40000
67.76000	3236.00000
67.78000	3140.70000
67.80000	3191.20000
67.82000	3136.10000
67.84000	3209.30000
67.86000	3234.70000
67.88000	3203.70000
67.90000	3336.90000
67.92000	3379.30000
67.94000	3374.70000
67.96000	3382.80000
67.98000	3249.70000
68.00000	3284.10000
68.02000	3231.20000
68.04000	3174.70000
68.06000	3215.90000
68.08000	3276.20000
68.10000	3228.20000
68.12000	3292.70000
68.14000	3230.90000
68.16000	3140.50000
68.18000	3159.90000
68.20000	3042.40000
68.22000	3046.10000
68.24000	3021.90000
68.26000	3167.70000
68.28000	3060.90000
68.30000	3100.50000
68.32000	3102.60000
68.34000	3103.30000
68.36000	3079.80000
68.38000	2993.40000
68.40000	2997.50000
68.42000	2971.70000
68.44000	2948.30000
68.46000	2954.80000
68.48000	3041.40000
68.50000	3084.60000
68.52000	3030.30000
68.54000	3031.80000
68.56000	3036.00000
68.58000	2990.40000
68.60000	3059.90000
68.62000	3030.20000
68.64000	2990.90000
68.66000	2992.70000
68.68000	2878.50000
68.70000	2956.70000
68.72000	2995.50000
68.74000	2954.50000
68.76000	2936.80000
68.78000	2965.90000
68.80000	2934.50000
68.82000	3008.90000
68.84000	3032.40000
68.86000	2970.80000
68.88000	2954.40000
68.90000	3018.40000
68.92000	2964.30000
68.94000	2958.20000
68.96000	3003.20000
68.98000	3007.80000
69.00000	3015.50000
69.02000	2967.30000
69.04000	2991.00000
69.06000	3002.10000
69.08000	3079.50000
69.10000	3017.20000
69.12000	3005.60000
69.14000	2992.90000
69.16000	3057.80000
69.18000	2951.00000
69.20000	2986.90000
69.22000	2997.70000
69.24000	2999.50000
69.26000	2972.20000
69.28000	2947.00000
69.30000	3034.30000
69.32000	2985.90000
69.34000	3028.60000
69.36000	2955.00000
69.38000	3023.20000
69.40000	2925.20000
69.42000	3026.40000
69.44000	3094.20000
69.46000	3002.40000
69.48000	3026.40000
69.50000	3156.40000
69.52000	3111.80000
69.54000	3158.90000
69.56000	3200.10000
69.58000	3336.00000
69.60000	3349.20000
69.62000	3482.90000
69.64000	3716.80000
69.66000	4047.00000
69.68000	4391.40000
69.70000	4580.10000
69.72000	4336.40000
69.74000	4068.00000
69.76000	3827.70000
69.78000	3608.80000
69.80000	3636.60000
69.82000	3497.50000
69.84000	3498.10000
69.86000	3643.50000
69.88000	3776.40000
69.90000	3846.30000
69.92000	3773.60000
69.94000	3552.70000
69.96000	3342.50000
69.98000	3273.90000
70.00000	3352.60000
70.02000	3241.30000
70.04000	3269.80000
70.06000	3282.10000
70.08000	3265.60000
70.10000	3315.90000
70.12000	3253.70000
70.14000	3266.20000
70.16000	3313.10000
70.18000	3383.40000
70.20000	3310.30000
70.22000	3490.40000
70.24000	3664.70000
70.26000	3731.50000
70.28000	3815.90000
70.30000	3830.10000
70.32000	3870.80000
70.34000	3839.60000
70.36000	3862.20000
70.38000	4089.90000
70.40000	3920.10000
70.42000	3778.00000
70.44000	3752.10000
70.46000	3774.00000
70.48000	3571.90000
70.50000	3625.40000
70.52000	3580.20000
70.54000	3500.50000
70.56000	3584.30000
70.58000	3597.10000
70.60000	3331.90000
70.62000	3450.40000
70.64000	3310.70000
70.66000	3279.70000
70.68000	3211.70000
70.70000	3194.40000
70.72000	3101.60000
70.74000	3104.30000
70.76000	3140.10000
70.78000	2997.60000
70.80000	3115.70000
70.82000	3027.10000
70.84000	3154.50000
70.86000	3202.60000
70.88000	3206.80000
70.90000	3229.90000
70.92000	3168.90000
70.94000	3228.50000
70.96000	3268.20000
70.98000	3238.80000
71.00000	3328.00000
71.02000	3398.40000
71.04000	3399.80000
71.06000	3317.20000
71.08000	3365.10000
71.10000	3348.70000
71.12000	3307.10000
71.14000	3266.60000
71.16000	3233.90000
71.18000	3261.80000
71.20000	3188.50000
71.22000	3303.40000
71.24000	3257.40000
71.26000	3247.70000
71.28000	3248.40000
71.30000	3105.60000
71.32000	3213.60000
71.34000	3153.90000
71.36000	3070.50000
71.38000	3089.80000
71.40000	3202.50000
71.42000	3078.80000
71.44000	3152.60000
71.46000	3136.40000
71.48000	3083.00000
71.50000	2987.50000
71.52000	3116.30000
71.54000	3050.20000
71.56000	3084.70000
71.58000	3081.90000
71.60000	2988.40000
71.62000	3031.40000
71.64000	2982.60000
71.66000	2985.10000
71.68000	2963.40000
71.70000	3009.90000
71.72000	2951.70000
71.74000	3007.30000
71.76000	2979.90000
71.78000	3057.20000
71.80000	2902.10000
71.82000	3150.00000
71.84000	3107.70000
71.86000	3011.20000
71.88000	2994.10000
71.90000	3049.70000
71.92000	3064.80000
71.94000	3004.70000
71.96000	3060.30000
71.98000	3091.50000
72.00000	3080.20000
72.02000	2979.70000
72.04000	3032.20000
72.06000	3061.40000
72.08000	3076.70000
72.10000	3108.20000
72.12000	3055.00000
72.14000	3015.20000
72.16000	3013.50000
72.18000	3023.90000
72.20000	3034.40000
72.22000	3011.40000
72.24000	3081.60000
72.26000	3041.50000
72.28000	3001.30000
72.30000	2978.40000
72.32000	2997.70000
72.34000	2953.60000
72.36000	3040.70000
72.38000	3002.70000
72.40000	2910.10000
72.42000	2987.00000
72.44000	3040.60000
72.46000	3148.20000
72.48000	3052.60000
72.50000	3070.10000
72.52000	3223.90000
72.54000	3133.00000
72.56000	3196.70000
72.58000	3199.30000
72.60000	3224.30000
72.62000	3211.70000
72.64000	3195.10000
72.66000	3191.00000
72.68000	3237.80000
72.70000	3273.90000
72.72000	3329.40000
72.74000	3469.20000
72.76000	3473.30000
72.78000	3539.30000
72.80000	3623.80000
72.82000	3616.50000
72.84000	3499.30000
72.86000	3585.20000
72.88000	3500.50000
72.90000	3432.70000
72.92000	3653.20000
72.94000	3518.40000
72.96000	3603.30000
72.98000	3455.40000
73.00000	3407.30000
73.02000	3453.10000
73.04000	3416.00000
73.06000	3372.50000
73.08000	3393.50000
73.10000	3273.30000
73.12000	3411.00000
73.14000	3267.10000
73.16000	3349.20000
73.18000	3279.30000
73.20000	3335.00000
73.22000	3282.00000
73.24000	3333.10000
73.26000	3316.80000
73.28000	3165.40000
73.30000	3254.90000
73.32000	3239.80000
73.34000	3321.30000
73.36000	3218.60000
73.38000	3229.70000
73.40000	3202.30000
73.42000	3299.20000
73.44000	3341.70000
73.46000	3300.40000
73.48000	3414.70000
73.50000	3441.00000
73.52000	3358.30000
73.54000	3328.40000
73.56000	3233.00000
73.58000	3227.40000
73.60000	3217.70000
73.62000	3157.80000
73.64000	3150.00000
73.66000	3245.80000
73.68000	3243.50000
73.70000	3238.50000
73.72000	3208.80000
73.74000	3104.20000
73.76000	3204.60000
73.78000	3130.40000
73.80000	3090.70000
73.82000	3076.40000
73.84000	3100.50000
73.86000	3101.40000
73.88000	3070.00000
73.90000	3124.20000
73.92000	3153.30000
73.94000	3021.00000
73.96000	3110.90000
73.98000	3185.20000
74.00000	3212.00000
74.02000	3215.10000
74.04000	3131.60000
74.06000	3226.60000
74.08000	3167.20000
74.10000	3098.00000
74.12000	3121.20000
74.14000	3086.40000
74.16000	3048.80000
74.18000	3068.80000
74.20000	3043.80000
74.22000	3089.40000
74.24000	3145.30000
74.26000	3096.70000
74.28000	2958.10000
74.30000	3051.60000
74.32000	3075.60000
74.34000	3049.90000
74.36000	3088.80000
74.38000	3169.70000
74.40000	3133.70000
74.42000	3101.80000
74.44000	3045.20000
74.46000	3023.60000
74.48000	2917.10000
74.50000	2997.40000
74.52000	3025.40000
74.54000	3100.20000
74.56000	2954.80000
74.58000	3018.20000
74.60000	3027.10000
74.62000	3033.70000
74.64000	2947.50000
74.66000	2927.00000
74.68000	2841.20000
74.70000	3010.10000
74.72000	2937.20000
74.74000	2910.40000
74.76000	2912.90000
74.78000	2992.30000
74.80000	2968.90000
74.82000	3013.00000
74.84000	3013.80000
74.86000	2931.50000
74.88000	3063.40000
74.90000	2983.80000
74.92000	3035.80000
74.94000	3174.30000
74.96000	3174.40000
74.98000	3099.80000
75.00000	3119.40000
75.02000	3128.20000
75.04000	3144.00000
75.06000	3210.10000
75.08000	3136.10000
75.10000	3114.20000
75.12000	3128.00000
75.14000	3057.90000
75.16000	3165.30000
75.18000	3066.40000
75.20000	3104.50000
75.22000	3047.20000
75.24000	3103.50000
75.26000	2964.90000
75.28000	3026.70000
75.30000	3033.90000
75.32000	3035.50000
75.34000	3118.70000
75.36000	3031.60000
75.38000	3065.70000
75.40000	3025.00000
75.42000	2922.60000
75.44000	3102.50000
75.46000	3069.50000
75.48000	3087.50000
75.50000	3127.20000
75.52000	3192.00000
75.54000	3127.30000
75.56000	3205.60000
75.58000	3325.50000
75.60000	3379.10000
75.62000	3360.90000
75.64000	3486.20000
75.66000	3649.40000
75.68000	3670.50000
75.70000	3708.40000
75.72000	3756.20000
75.74000	3758.30000
75.76000	3647.90000
75.78000	3678.90000
75.80000	3546.20000
75.82000	3569.60000
75.84000	3650.70000
75.86000	3596.50000
75.88000	3666.00000
75.90000	3589.50000
75.92000	3670.60000
75.94000	3539.80000
75.96000	3513.80000
75.98000	3465.90000
76.00000	3322.00000
76.02000	3284.10000
76.04000	3270.10000
76.06000	3204.20000
76.08000	3154.10000
76.10000	3135.60000
76.12000	3108.20000
76.14000	3177.40000
76.16000	3069.80000
76.18000	3028.80000
76.20000	3111.90000
76.22000	3134.60000
76.24000	3003.90000
76.26000	3048.10000
76.28000	3031.20000
76.30000	3078.50000
76.32000	3085.00000
76.34000	3004.30000
76.36000	3009.30000
76.38000	3054.50000
76.40000	2942.90000
76.42000	3095.50000
76.44000	3114.30000
76.46000	3108.60000
76.48000	3151.60000
76.50000	3167.80000
76.52000	3177.20000
76.54000	3225.50000
76.56000	3280.50000
76.58000	3315.70000
76.60000	3281.10000
76.62000	3306.50000
76.64000	3272.80000
76.66000	3178.40000
76.68000	3077.30000
76.70000	3056.30000
76.72000	3104.70000
76.74000	3150.50000
76.76000	3141.40000
76.78000	3226.90000
76.80000	3068.50000
76.82000	3091.50000
76.84000	3140.90000
76.86000	3131.30000
76.88000	3071.30000
76.90000	3049.60000
76.92000	3050.00000
76.94000	2993.30000
76.96000	3018.80000
76.98000	3058.10000
77.00000	2936.40000
77.02000	3046.40000
77.04000	2989.00000
77.06000	2942.60000
77.08000	3019.50000
77.10000	2889.20000
77.12000	2939.80000
77.14000	2977.30000
77.16000	2971.10000
77.18000	2930.60000
77.20000	3019.90000
77.22000	2884.00000
77.24000	2931.40000
77.26000	2943.40000
77.28000	2871.90000
77.30000	2843.20000
77.32000	2931.50000
77.34000	2986.50000
77.36000	2938.90000
77.38000	2848.50000
77.40000	2912.30000
77.42000	2919.90000
77.44000	2894.10000
77.46000	2913.60000
77.48000	2885.10000
77.50000	2983.90000
77.52000	2883.60000
77.54000	2868.70000
77.56000	2910.20000
77.58000	2850.50000
77.60000	2890.20000
77.62000	2911.10000
77.64000	2906.90000
77.66000	2941.90000
77.68000	2858.10000
77.70000	2890.80000
77.72000	2963.80000
77.74000	2949.90000
77.76000	2925.00000
77.78000	2941.90000
77.80000	2954.30000
77.82000	2920.90000
77.84000	2907.70000
77.86000	2922.30000
77.88000	2902.50000
77.90000	2968.10000
77.92000	2900.80000
77.94000	2920.80000
77.96000	2914.30000
77.98000	2960.80000
78.00000	2870.20000
78.02000	2857.00000
78.04000	3014.90000
78.06000	2902.60000
78.08000	2902.70000
78.10000	2916.30000
78.12000	2916.70000
78.14000	2895.40000
78.16000	2899.90000
78.18000	2933.80000
78.20000	2969.70000
78.22000	2950.30000
78.24000	2935.80000
78.26000	2908.80000
78.28000	3011.50000
78.30000	2959.60000
78.32000	2916.60000
78.34000	2989.10000
78.36000	2995.40000
78.38000	2940.40000
78.40000	3003.70000
78.42000	2929.60000
78.44000	2966.60000
78.46000	2970.80000
78.48000	2959.60000
78.50000	2973.10000
78.52000	2983.00000
78.54000	3058.50000
78.56000	3089.30000
78.58000	3050.50000
78.60000	3115.00000
78.62000	2992.30000
78.64000	3029.60000
78.66000	3056.50000
78.68000	3036.00000
78.70000	2978.80000
78.72000	3077.50000
78.74000	2961.70000
78.76000	2968.30000
78.78000	3033.50000
78.80000	2980.20000
78.82000	3108.90000
78.84000	3030.00000
78.86000	3049.10000
78.88000	3054.60000
78.90000	3017.90000
78.92000	3111.10000
78.94000	3105.30000
78.96000	3124.90000
78.98000	3174.90000
79.00000	3063.80000
79.02000	3093.50000
79.04000	3107.10000
79.06000	3152.10000
79.08000	3221.30000
79.10000	3249.90000
79.12000	3194.60000
79.14000	3235.10000
79.16000	3304.40000
79.18000	3289.40000
79.20000	3422.90000
79.22000	3375.10000
79.24000	3315.60000
79.26000	3314.90000
79.28000	3397.00000
79.30000	3463.60000
79.32000	3458.50000
79.34000	3499.30000
79.36000	3559.40000
79.38000	3540.00000
79.40000	3578.10000
79.42000	3545.30000
79.44000	3449.40000
79.46000	3519.50000
79.48000	3386.30000
79.50000	3368.40000
79.52000	3554.50000
79.54000	3547.60000
79.56000	3430.60000
79.58000	3415.50000
79.60000	3427.90000
79.62000	3363.80000
79.64000	3376.00000
79.66000	3367.40000
79.68000	3319.90000
79.70000	3298.50000
79.72000	3266.40000
79.74000	3233.40000
79.76000	3229.30000
79.78000	3184.20000
79.80000	3190.40000
79.82000	3111.50000
79.84000	3135.20000
79.86000	3161.20000
79.88000	3099.60000
79.90000	3085.70000
79.92000	3012.60000
79.94000	2987.90000
79.96000	3090.60000
79.98000	3149.30000
80.00000	3074.40000
80.02000	3069.10000
80.04000	3126.80000
80.06000	3227.40000
80.08000	3141.40000
80.10000	3075.20000
80.12000	3107.50000
80.14000	3032.00000
80.16000	3063.00000
80.18000	3115.40000
80.20000	3067.30000
80.22000	3049.60000
80.24000	3038.90000
80.26000	3098.20000
80.28000	3034.40000
80.30000	3056.20000
80.32000	2998.90000
80.34000	3079.30000
80.36000	2889.40000
80.38000	2962.20000
80.40000	3054.20000
80.42000	2956.60000
80.44000	2915.00000
80.46000	2889.10000
80.48000	2942.50000
80.50000	2942.90000
80.52000	3057.30000
80.54000	3017.80000
80.56000	2973.50000
80.58000	2970.50000
80.60000	3000.40000
80.62000	3023.40000
80.64000	2943.90000
80.66000	3074.40000
80.68000	3103.60000
80.70000	3024.90000
80.72000	2969.90000
80.74000	3097.70000
80.76000	3053.30000
80.78000	2909.90000
80.80000	2902.20000
80.82000	2946.50000
80.84000	2959.30000
80.86000	3012.70000
80.88000	2918.60000
80.90000	2914.60000
80.92000	2926.50000
80.94000	2978.90000
80.96000	2891.20000
80.98000	3065.50000
81.00000	3020.00000
81.02000	3010.30000
81.04000	2994.70000
81.06000	2930.60000
81.08000	2919.20000
81.10000	2872.20000
81.12000	2926.70000
81.14000	2986.30000
81.16000	3031.00000
81.18000	2890.90000
81.20000	2979.60000
81.22000	2913.00000
81.24000	2922.40000
81.26000	2882.40000
81.28000	2983.60000
81.30000	2953.70000
81.32000	2980.70000
81.34000	3014.50000
81.36000	2987.20000
81.38000	3083.50000
81.40000	3006.30000
81.42000	3043.80000
81.44000	3123.50000
81.46000	3090.90000
81.48000	3103.00000
81.50000	3101.50000
81.52000	3116.50000
81.54000	3064.70000
81.56000	3046.60000
81.58000	3099.30000
81.60000	3089.70000
81.62000	3184.20000
81.64000	3252.90000
81.66000	2956.10000
81.68000	3062.50000
81.70000	3054.10000
81.72000	3118.40000
81.74000	3061.40000
81.76000	3097.60000
81.78000	3067.90000
81.80000	3095.00000
81.82000	3062.70000
81.84000	3116.50000
81.86000	3067.80000
81.88000	3020.60000
81.90000	3056.60000
81.92000	3057.80000
81.94000	3036.50000
81.96000	3048.70000
81.98000	3036.60000
82.00000	3029.90000
82.02000	3034.50000
82.04000	3069.20000
82.06000	3094.00000
82.08000	3221.30000
82.10000	3213.20000
82.12000	3097.20000
82.14000	3157.00000
82.16000	3198.10000
82.18000	3212.90000
82.20000	3174.50000
82.22000	3126.00000
82.24000	3117.70000
82.26000	3185.10000
82.28000	3136.10000
82.30000	3117.10000
82.32000	3136.70000
82.34000	3073.40000
82.36000	3095.80000
82.38000	3113.00000
82.40000	3037.70000
82.42000	3072.90000
82.44000	3156.40000
82.46000	3141.10000
82.48000	3122.20000
82.50000	3103.60000
82.52000	3073.00000
82.54000	2998.40000
82.56000	3032.50000
82.58000	3100.50000
82.60000	3041.40000
82.62000	2978.10000
82.64000	2941.30000
82.66000	3023.60000
82.68000	3019.10000
82.70000	3016.50000
82.72000	3083.40000
82.74000	3075.40000
82.76000	3046.70000
82.78000	3090.60000
82.80000	3159.40000
82.82000	3103.20000
82.84000	3191.00000
82.86000	3178.90000
82.88000	3212.10000
82.90000	3395.80000
82.92000	3324.20000
82.94000	3253.80000
82.96000	3220.90000
82.98000	3237.20000
83.00000	3107.00000
83.02000	3167.80000
83.04000	3154.50000
83.06000	3105.40000
83.08000	3267.10000
83.10000	3061.70000
83.12000	3224.00000
83.14000	3256.40000
83.16000	3260.90000
83.18000	3206.20000
83.20000	3234.50000
83.22000	3128.10000
83.24000	3029.00000
83.26000	3121.00000
83.28000	3180.80000
83.30000	3152.10000
83.32000	3085.70000
83.34000	3074.60000
83.36000	3055.30000
83.38000	3065.00000
83.40000	3056.00000
83.42000	3016.40000
83.44000	3098.80000
83.46000	3067.70000
83.48000	3067.20000
83.50000	3038.60000
83.52000	3111.50000
83.54000	3208.50000
83.56000	3175.80000
83.58000	3232.70000
83.60000	3288.00000
83.62000	3419.80000
83.64000	3443.20000
83.66000	3351.80000
83.68000	3275.70000
83.70000	3256.60000
83.72000	3110.20000
83.74000	3129.00000
83.76000	3123.90000
83.78000	3230.00000
83.80000	3140.20000
83.82000	3220.20000
83.84000	3217.30000
83.86000	3233.00000
83.88000	3281.20000
83.90000	3373.10000
83.92000	3156.80000
83.94000	3248.90000
83.96000	3097.90000
83.98000	3120.30000
84.00000	3098.00000
84.02000	3005.90000
84.04000	3048.60000
84.06000	3018.20000
84.08000	3028.00000
84.10000	3008.90000
84.12000	2972.10000
84.14000	2986.40000
84.16000	3008.10000
84.18000	3024.30000
84.20000	3191.20000
84.22000	3036.40000
84.24000	3087.70000
84.26000	3085.20000
84.28000	3124.50000
84.30000	3207.60000
84.32000	3186.90000
84.34000	3236.80000
84.36000	3233.10000
84.38000	3140.60000
84.40000	3144.80000
84.42000	3149.00000
84.44000	3254.30000
84.46000	3314.30000
84.48000	3345.00000
84.50000	3240.50000
84.52000	3283.20000
84.54000	3264.60000
84.56000	3311.00000
84.58000	3320.70000
84.60000	3249.10000
84.62000	3269.90000
84.64000	3242.30000
84.66000	3309.20000
84.68000	3253.60000
84.70000	3184.10000
84.72000	3210.40000
84.74000	3274.70000
84.76000	3260.80000
84.78000	3298.60000
84.80000	3388.00000
84.82000	3316.90000
84.84000	3367.70000
84.86000	3336.30000
84.88000	3295.10000
84.90000	3304.90000
84.92000	3237.00000
