8.04800	2613.00000
8.06500	2676.00000
8.08200	2632.00000
8.09900	2612.00000
8.11600	2635.00000
8.13300	2722.00000
8.15000	2648.00000
8.16700	2624.00000
8.18400	2658.00000
8.20100	2630.00000
8.21800	2612.00000
8.23500	2591.00000
8.25200	2613.00000
8.26900	2626.00000
8.28600	2620.00000
8.30300	2547.00000
8.32000	2599.00000
8.33700	2573.00000
8.35400	2575.00000
8.37100	2529.00000
8.38800	2424.00000
8.40500	2513.00000
8.42200	2589.00000
8.43900	2467.00000
8.45600	2533.00000
8.47300	2572.00000
8.49000	2452.00000
8.50700	2449.00000
8.52400	2507.00000
8.54100	2525.00000
8.55800	2529.00000
8.57500	2473.00000
8.59200	2551.00000
8.60900	2537.00000
8.62600	2507.00000
8.64300	2449.00000
8.66000	2494.00000
8.67700	2508.00000
8.69400	2492.00000
8.71100	2462.00000
8.72800	2518.00000
8.74500	2460.00000
8.76200	2426.00000
8.77900	2449.00000
8.79600	2461.00000
8.81300	2434.00000
8.83000	2470.00000
8.84700	2458.00000
8.86400	2420.00000
8.88100	2451.00000
8.89800	2473.00000
8.91500	2437.00000
8.93200	2409.00000
8.94900	2437.00000
8.96600	2436.00000
8.98300	2401.00000
9.00000	2448.00000
9.01700	2449.00000
9.03400	2401.00000
9.05100	2402.00000
9.06800	2404.00000
9.08500	2386.00000
9.10200	2357.00000
9.11900	2332.00000
9.13600	2307.00000
9.15300	2384.00000
9.17000	2328.00000
9.18700	2373.00000
9.20400	2328.00000
9.22100	2381.00000
9.23800	2431.00000
9.25500	2395.00000
9.27200	2350.00000
9.28900	2399.00000
9.30600	2417.00000
9.32300	2343.00000
9.34000	2312.00000
9.35700	2391.00000
9.37400	2350.00000
9.39100	2410.00000
9.40800	2371.00000
9.42500	2295.00000
9.44200	2290.00000
9.45900	2327.00000
9.47600	2318.00000
9.49300	2273.00000
9.51000	2344.00000
9.52700	2409.00000
9.54400	2240.00000
9.56100	2310.00000
9.57800	2294.00000
9.59500	2301.00000
9.61200	2393.00000
9.62900	2308.00000
9.64600	2311.00000
9.66300	2366.00000
9.68000	2287.00000
9.69700	2241.00000
9.71400	2274.00000
9.73100	2310.00000
9.74800	2229.00000
9.76500	2314.00000
9.78200	2259.00000
9.79900	2208.00000
9.81600	2185.00000
9.83300	2310.00000
9.85000	2303.00000
9.86700	2247.00000
9.88400	2271.00000
9.90100	2267.00000
9.91800	2272.00000
9.93500	2266.00000
9.95200	2261.00000
9.96900	2235.00000
9.98600	2277.00000
10.00300	2288.00000
10.02000	2272.00000
10.03700	2185.00000
10.05400	2206.00000
10.07100	2234.00000
10.08800	2252.00000
10.10500	2227.00000
10.12200	2255.00000
10.13900	2236.00000
10.15600	2221.00000
10.17300	2192.00000
10.19000	2206.00000
10.20700	2211.00000
10.22400	2195.00000
10.24100	2182.00000
10.25800	2226.00000
10.27500	2146.00000
10.29200	2186.00000
10.30900	2195.00000
10.32600	2183.00000
10.34300	2226.00000
10.36000	2245.00000
10.37700	2212.00000
10.39400	2195.00000
10.41100	2197.00000
10.42800	2202.00000
10.44500	2217.00000
10.46200	2288.00000
10.47900	2294.00000
10.49600	2329.00000
10.51300	2313.00000
10.53000	2343.00000
10.54700	2430.00000
10.56400	2409.00000
10.58100	2350.00000
10.59800	2352.00000
10.61500	2256.00000
10.63200	2223.00000
10.64900	2190.00000
10.66600	2221.00000
10.68300	2131.00000
10.70000	2117.00000
10.71700	2165.00000
10.73400	2208.00000
10.75100	2253.00000
10.76800	2150.00000
10.78500	2185.00000
10.80200	2187.00000
10.81900	2131.00000
10.83600	2146.00000
10.85300	2178.00000
10.87000	2205.00000
10.88700	2177.00000
10.90400	2138.00000
10.92100	2129.00000
10.93800	2167.00000
10.95500	2204.00000
10.97200	2182.00000
10.98900	2183.00000
11.00600	2137.00000
11.02300	2108.00000
11.04000	2131.00000
11.05700	2217.00000
11.07400	2201.00000
11.09100	2161.00000
11.10800	2200.00000
11.12500	2157.00000
11.14200	2186.00000
11.15900	2213.00000
11.17600	2164.00000
11.19300	2116.00000
11.21000	2255.00000
11.22700	2207.00000
11.24400	2164.00000
11.26100	2163.00000
11.27800	2259.00000
11.29500	2145.00000
11.31200	2216.00000
11.32900	2221.00000
11.34600	2186.00000
11.36300	2161.00000
11.38000	2154.00000
11.39700	2202.00000
11.41400	2217.00000
11.43100	2206.00000
11.44800	2132.00000
11.46500	2152.00000
11.48200	2166.00000
11.49900	2133.00000
11.51600	2145.00000
11.53300	2167.00000
11.55000	2134.00000
11.56700	2120.00000
11.58400	2217.00000
11.60100	2136.00000
11.61800	2066.00000
11.63500	2154.00000
11.65200	2117.00000
11.66900	2088.00000
11.68600	2075.00000
11.70300	2102.00000
11.72000	2149.00000
11.73700	2096.00000
11.75400	2061.00000
11.77100	2160.00000
11.78800	2122.00000
11.80500	2121.00000
11.82200	2144.00000
11.83900	2156.00000
11.85600	2054.00000
11.87300	2047.00000
11.89000	2035.00000
11.90700	2120.00000
11.92400	2092.00000
11.94100	2039.00000
11.95800	2063.00000
11.97500	2026.00000
11.99200	2018.00000
12.00900	1999.00000
12.02600	2038.00000
12.04300	2057.00000
12.06000	2062.00000
12.07700	2043.00000
12.09400	2018.00000
12.11100	2046.00000
12.12800	2088.00000
12.14500	1993.00000
12.16200	1963.00000
12.17900	1939.00000
12.19600	1967.00000
12.21300	2015.00000
12.23000	2040.00000
12.24700	2038.00000
12.26400	2074.00000
12.28100	2031.00000
12.29800	1974.00000
12.31500	1967.00000
12.33200	1929.00000
12.34900	1966.00000
12.36600	1899.00000
12.38300	1940.00000
12.40000	1948.00000
12.41700	2065.00000
12.43400	1943.00000
12.45100	2005.00000
12.46800	1993.00000
12.48500	1947.00000
12.50200	1964.00000
12.51900	1952.00000
12.53600	1932.00000
12.55300	1901.00000
12.57000	2033.00000
12.58700	1966.00000
12.60400	1968.00000
12.62100	2066.00000
12.63800	1963.00000
12.65500	2060.00000
12.67200	1921.00000
12.68900	1909.00000
12.70600	1984.00000
12.72300	1911.00000
12.74000	1937.00000
12.75700	1910.00000
12.77400	1963.00000
12.79100	1940.00000
12.80800	1891.00000
12.82500	1922.00000
12.84200	1890.00000
12.85900	1904.00000
12.87600	1945.00000
12.89300	1967.00000
12.91000	1909.00000
12.92700	1913.00000
12.94400	1924.00000
12.96100	1975.00000
12.97800	1942.00000
12.99500	1917.00000
13.01200	1910.00000
13.02900	1895.00000
13.04600	1980.00000
13.06300	1959.00000
13.08000	1944.00000
13.09700	1947.00000
13.11400	1941.00000
13.13100	1932.00000
13.14800	1908.00000
13.16500	1944.00000
13.18200	1954.00000
13.19900	1983.00000
13.21600	1924.00000
13.23300	1916.00000
13.25000	1839.00000
13.26700	1863.00000
13.28400	1921.00000
13.30100	1901.00000
13.31800	1957.00000
13.33500	1837.00000
13.35200	1864.00000
13.36900	1980.00000
13.38600	1887.00000
13.40300	1925.00000
13.42000	1889.00000
13.43700	1893.00000
13.45400	1845.00000
13.47100	1812.00000
13.48800	1886.00000
13.50500	1955.00000
13.52200	1922.00000
13.53900	1896.00000
13.55600	1965.00000
13.57300	1814.00000
13.59000	1823.00000
13.60700	1903.00000
13.62400	1854.00000
13.64100	1908.00000
13.65800	1873.00000
13.67500	1867.00000
13.69200	1817.00000
13.70900	1819.00000
13.72600	1796.00000
13.74300	1881.00000
13.76000	1899.00000
13.77700	1849.00000
13.79400	1867.00000
13.81100	1925.00000
13.82800	1857.00000
13.84500	1802.00000
13.86200	1784.00000
13.87900	1803.00000
13.89600	1820.00000
13.91300	1859.00000
13.93000	1800.00000
13.94700	1860.00000
13.96400	1871.00000
13.98100	1825.00000
13.99800	1801.00000
14.01500	1848.00000
14.03200	1851.00000
14.04900	1804.00000
14.06600	1798.00000
14.08300	1860.00000
14.10000	1858.00000
14.11700	1853.00000
14.13400	1860.00000
14.15100	1817.00000
14.16800	1824.00000
14.18500	1826.00000
14.20200	1837.00000
14.21900	1844.00000
14.23600	1858.00000
14.25300	1824.00000
14.27000	1836.00000
14.28700	1832.00000
14.30400	1765.00000
14.32100	1855.00000
14.33800	1828.00000
14.35500	1863.00000
14.37200	1898.00000
14.38900	1821.00000
14.40600	1747.00000
14.42300	1803.00000
14.44000	1876.00000
14.45700	1852.00000
14.47400	1799.00000
14.49100	1891.00000
14.50800	1779.00000
14.52500	1815.00000
14.54200	1883.00000
14.55900	1862.00000
14.57600	1798.00000
14.59300	1872.00000
14.61000	1806.00000
14.62700	1808.00000
14.64400	1973.00000
14.66100	1833.00000
14.67800	1814.00000
14.69500	1801.00000
14.71200	1793.00000
14.72900	1797.00000
14.74600	1834.00000
14.76300	1922.00000
14.78000	1905.00000
14.79700	1762.00000
14.81400	1795.00000
14.83100	1779.00000
14.84800	1842.00000
14.86500	1877.00000
14.88200	1809.00000
14.89900	1822.00000
14.91600	1847.00000
14.93300	1816.00000
14.95000	1788.00000
14.96700	1790.00000
14.98400	1806.00000
15.00100	1865.00000
15.01800	1885.00000
15.03500	1813.00000
15.05200	1747.00000
15.06900	1791.00000
15.08600	1797.00000
15.10300	1774.00000
15.12000	1839.00000
15.13700	1863.00000
15.15400	1814.00000
15.17100	1805.00000
15.18800	1769.00000
15.20500	1773.00000
15.22200	1819.00000
15.23900	1787.00000
15.25600	1782.00000
15.27300	1833.00000
15.29000	1819.00000
15.30700	1847.00000
15.32400	1732.00000
15.34100	1663.00000
15.35800	1776.00000
15.37500	1803.00000
15.39200	1782.00000
15.40900	1808.00000
15.42600	1800.00000
15.44300	1791.00000
15.46000	1837.00000
15.47700	1776.00000
15.49400	1844.00000
15.51100	1785.00000
15.52800	1794.00000
15.54500	1869.00000
15.56200	1835.00000
15.57900	1780.00000
15.59600	1757.00000
15.61300	1744.00000
15.63000	1818.00000
15.64700	1842.00000
15.66400	1788.00000
15.68100	1725.00000
15.69800	1808.00000
15.71500	1769.00000
15.73200	1822.00000
15.74900	1787.00000
15.76600	1836.00000
15.78300	1781.00000
15.80000	1804.00000
15.81700	1884.00000
15.83400	1810.00000
15.85100	1796.00000
15.86800	1956.00000
15.88500	1897.00000
15.90200	1798.00000
15.91900	1829.00000
15.93600	1790.00000
15.95300	1829.00000
15.97000	1873.00000
15.98700	1893.00000
16.00400	1830.00000
16.02100	1862.00000
16.03800	1863.00000
16.05500	1930.00000
16.07200	1877.00000
16.08900	1816.00000
16.10600	1792.00000
16.12300	1800.00000
16.14000	1789.00000
16.15700	1808.00000
16.17400	1836.00000
16.19100	1783.00000
16.20800	1776.00000
16.22500	1878.00000
16.24200	1806.00000
16.25900	1787.00000
16.27600	1763.00000
16.29300	1823.00000
16.31000	1740.00000
16.32700	1779.00000
16.34400	1734.00000
16.36100	1756.00000
16.37800	1866.00000
16.39500	1808.00000
16.41200	1678.00000
16.42900	1762.00000
16.44600	1716.00000
16.46300	1721.00000
16.48000	1770.00000
16.49700	1764.00000
16.51400	1719.00000
16.53100	1804.00000
16.54800	1760.00000
16.56500	1759.00000
16.58200	1783.00000
16.59900	1733.00000
16.61600	1762.00000
16.63300	1734.00000
16.65000	1744.00000
16.66700	1769.00000
16.68400	1771.00000
16.70100	1750.00000
16.71800	1773.00000
16.73500	1723.00000
16.75200	1666.00000
16.76900	1779.00000
16.78600	1747.00000
16.80300	1672.00000
16.82000	1730.00000
16.83700	1745.00000
16.85400	1737.00000
16.87100	1744.00000
16.88800	1733.00000
16.90500	1715.00000
16.92200	1746.00000
16.93900	1721.00000
16.95600	1687.00000
16.97300	1673.00000
16.99000	1621.00000
17.00700	1629.00000
17.02400	1623.00000
17.04100	1627.00000
17.05800	1659.00000
17.07500	1683.00000
17.09200	1637.00000
17.10900	1609.00000
17.12600	1643.00000
17.14300	1655.00000
17.16000	1683.00000
17.17700	1626.00000
17.19400	1695.00000
17.21100	1675.00000
17.22800	1679.00000
17.24500	1665.00000
17.26200	1674.00000
17.27900	1670.00000
17.29600	1627.00000
17.31300	1663.00000
17.33000	1685.00000
17.34700	1629.00000
17.36400	1545.00000
17.38100	1543.00000
17.39800	1562.00000
17.41500	1618.00000
17.43200	1646.00000
17.44900	1571.00000
17.46600	1637.00000
17.48300	1605.00000
17.50000	1655.00000
17.51700	1639.00000
17.53400	1635.00000
17.55100	1654.00000
17.56800	1583.00000
17.58500	1608.00000
17.60200	1628.00000
17.61900	1569.00000
17.63600	1630.00000
17.65300	1655.00000
17.67000	1614.00000
17.68700	1649.00000
17.70400	1564.00000
17.72100	1585.00000
17.73800	1626.00000
17.75500	1632.00000
17.77200	1564.00000
17.78900	1628.00000
17.80600	1649.00000
17.82300	1623.00000
17.84000	1515.00000
17.85700	1581.00000
17.87400	1633.00000
17.89100	1637.00000
17.90800	1569.00000
17.92500	1486.00000
17.94200	1544.00000
17.95900	1601.00000
17.97600	1554.00000
17.99300	1521.00000
18.01000	1550.00000
18.02700	1617.00000
18.04400	1611.00000
18.06100	1662.00000
18.07800	1637.00000
18.09500	1628.00000
18.11200	1588.00000
18.12900	1563.00000
18.14600	1548.00000
18.16300	1621.00000
18.18000	1561.00000
18.19700	1522.00000
18.21400	1592.00000
18.23100	1592.00000
18.24800	1618.00000
18.26500	1585.00000
18.28200	1638.00000
18.29900	1570.00000
18.31600	1629.00000
18.33300	1647.00000
18.35000	1708.00000
18.36700	1605.00000
18.38400	1584.00000
18.40100	1654.00000
18.41800	1584.00000
18.43500	1547.00000
18.45200	1589.00000
18.46900	1594.00000
18.48600	1494.00000
18.50300	1492.00000
18.52000	1604.00000
18.53700	1604.00000
18.55400	1482.00000
18.57100	1545.00000
18.58800	1554.00000
18.60500	1562.00000
18.62200	1594.00000
18.63900	1599.00000
18.65600	1586.00000
18.67300	1575.00000
18.69000	1576.00000
18.70700	1631.00000
18.72400	1650.00000
18.74100	1597.00000
18.75800	1613.00000
18.77500	1644.00000
18.79200	1561.00000
18.80900	1561.00000
18.82600	1610.00000
18.84300	1549.00000
18.86000	1579.00000
18.87700	1508.00000
18.89400	1512.00000
18.91100	1586.00000
18.92800	1602.00000
18.94500	1607.00000
18.96200	1584.00000
18.97900	1538.00000
18.99600	1564.00000
19.01300	1591.00000
19.03000	1548.00000
19.04700	1539.00000
19.06400	1601.00000
19.08100	1558.00000
19.09800	1661.00000
19.11500	1678.00000
19.13200	1594.00000
19.14900	1530.00000
19.16600	1499.00000
19.18300	1554.00000
19.20000	1546.00000
19.21700	1578.00000
19.23400	1637.00000
19.25100	1589.00000
19.26800	1570.00000
19.28500	1580.00000
19.30200	1566.00000
19.31900	1616.00000
19.33600	1516.00000
19.35300	1593.00000
19.37000	1568.00000
19.38700	1584.00000
19.40400	1560.00000
19.42100	1626.00000
19.43800	1527.00000
19.45500	1575.00000
19.47200	1552.00000
19.48900	1622.00000
19.50600	1561.00000
19.52300	1582.00000
19.54000	1560.00000
19.55700	1568.00000
19.57400	1593.00000
19.59100	1609.00000
19.60800	1591.00000
19.62500	1504.00000
19.64200	1573.00000
19.65900	1591.00000
19.67600	1607.00000
19.69300	1621.00000
19.71000	1604.00000
19.72700	1558.00000
19.74400	1570.00000
19.76100	1577.00000
19.77800	1591.00000
19.79500	1629.00000
19.81200	1663.00000
19.82900	1630.00000
19.84600	1607.00000
19.86300	1641.00000
19.88000	1710.00000
19.89700	1654.00000
19.91400	1629.00000
19.93100	1598.00000
19.94800	1568.00000
19.96500	1560.00000
19.98200	1515.00000
19.99900	1527.00000
20.01600	1530.00000
20.03300	1544.00000
20.05000	1512.00000
20.06700	1472.00000
20.08400	1573.00000
20.10100	1613.00000
20.11800	1556.00000
20.13500	1539.00000
20.15200	1591.00000
20.16900	1601.00000
20.18600	1572.00000
20.20300	1491.00000
20.22000	1547.00000
20.23700	1617.00000
20.25400	1615.00000
20.27100	1562.00000
20.28800	1522.00000
20.30500	1547.00000
20.32200	1562.00000
20.33900	1561.00000
20.35600	1585.00000
20.37300	1605.00000
20.39000	1515.00000
20.40700	1540.00000
20.42400	1662.00000
20.44100	1695.00000
20.45800	1624.00000
20.47500	1598.00000
20.49200	1614.00000
20.50900	1614.00000
20.52600	1642.00000
20.54300	1640.00000
20.56000	1604.00000
20.57700	1579.00000
20.59400	1544.00000
20.61100	1563.00000
20.62800	1608.00000
20.64500	1568.00000
20.66200	1666.00000
20.67900	1661.00000
20.69600	1668.00000
20.71300	1589.00000
20.73000	1598.00000
20.74700	1597.00000
20.76400	1593.00000
20.78100	1605.00000
20.79800	1575.00000
20.81500	1557.00000
20.83200	1567.00000
20.84900	1533.00000
20.86600	1577.00000
20.88300	1644.00000
20.90000	1655.00000
20.91700	1683.00000
20.93400	1678.00000
20.95100	1631.00000
20.96800	1567.00000
20.98500	1570.00000
21.00200	1617.00000
21.01900	1664.00000
21.03600	1645.00000
21.05300	1622.00000
21.07000	1573.00000
21.08700	1600.00000
21.10400	1613.00000
21.12100	1653.00000
21.13800	1646.00000
21.15500	1548.00000
21.17200	1641.00000
21.18900	1597.00000
21.20600	1661.00000
21.22300	1626.00000
21.24000	1672.00000
21.25700	1638.00000
21.27400	1632.00000
21.29100	1635.00000
21.30800	1661.00000
21.32500	1622.00000
21.34200	1588.00000
21.35900	1616.00000
21.37600	1694.00000
21.39300	1634.00000
21.41000	1706.00000
21.42700	1587.00000
21.44400	1658.00000
21.46100	1664.00000
21.47800	1640.00000
21.49500	1623.00000
21.51200	1628.00000
21.52900	1699.00000
21.54600	1641.00000
21.56300	1692.00000
21.58000	1691.00000
21.59700	1687.00000
21.61400	1672.00000
21.63100	1610.00000
21.64800	1608.00000
21.66500	1690.00000
21.68200	1715.00000
21.69900	1723.00000
21.71600	1737.00000
21.73300	1754.00000
21.75000	1794.00000
21.76700	1759.00000
21.78400	1751.00000
21.80100	1789.00000
21.81800	1868.00000
21.83500	1843.00000
21.85200	1887.00000
21.86900	1929.00000
21.88600	1892.00000
21.90300	1988.00000
21.92000	2019.00000
21.93700	1978.00000
21.95400	2055.00000
21.97100	2091.00000
21.98800	2050.00000
22.00500	2087.00000
22.02200	2190.00000
22.03900	2147.00000
22.05600	2101.00000
22.07300	2215.00000
22.09000	2307.00000
22.10700	2300.00000
22.12400	2310.00000
22.14100	2338.00000
22.15800	2385.00000
22.17500	2323.00000
22.19200	2398.00000
22.20900	2460.00000
22.22600	2467.00000
22.24300	2542.00000
22.26000	2563.00000
22.27700	2655.00000
22.29400	2682.00000
22.31100	2722.00000
22.32800	2850.00000
22.34500	2846.00000
22.36200	2934.00000
22.37900	2947.00000
22.39600	3083.00000
22.41300	3235.00000
22.43000	3418.00000
22.44700	3618.00000
22.46400	3783.00000
22.48100	4123.00000
22.49800	4562.00000
22.51500	5055.00000
22.53200	5707.00000
22.54900	6694.00000
22.56600	7931.00000
22.58300	9748.00000
22.60000	12233.00000
22.61700	15909.00000
22.63400	21295.00000
22.65100	27806.00000
22.66800	35638.00000
22.68500	45040.00000
22.70200	54920.00000
22.71900	63484.00000
22.73600	69955.00000
22.75300	73441.00000
22.77000	73536.00000
22.78700	71769.00000
22.80400	67721.00000
22.82100	64134.00000
22.83800	60610.00000
22.85500	57785.00000
22.87200	55616.00000
22.88900	52018.00000
22.90600	48241.00000
22.92300	42584.00000
22.94000	35560.00000
22.95700	28858.00000
22.97400	22331.00000
22.99100	16855.00000
23.00800	12675.00000
23.02500	9463.00000
23.04200	7227.00000
23.05900	5980.00000
23.07600	5216.00000
23.09300	4636.00000
23.11000	4087.00000
23.12700	3870.00000
23.14400	3628.00000
23.16100	3422.00000
23.17800	3310.00000
23.19500	3068.00000
23.21200	2928.00000
23.22900	2859.00000
23.24600	2761.00000
23.26300	2495.00000
23.28000	2509.00000
23.29700	2473.00000
23.31400	2468.00000
23.33100	2408.00000
23.34800	2391.00000
23.36500	2276.00000
23.38200	2166.00000
23.39900	2173.00000
23.41600	2201.00000
23.43300	2240.00000
23.45000	2124.00000
23.46700	2009.00000
23.48400	2163.00000
23.50100	2035.00000
23.51800	1961.00000
23.53500	1952.00000
23.55200	1969.00000
23.56900	1959.00000
23.58600	2024.00000
23.60300	1985.00000
23.62000	1877.00000
23.63700	1905.00000
23.65400	1889.00000
23.67100	1783.00000
23.68800	1846.00000
23.70500	1867.00000
23.72200	1829.00000
23.73900	1795.00000
23.75600	1768.00000
23.77300	1764.00000
23.79000	1780.00000
23.80700	1761.00000
23.82400	1733.00000
23.84100	1686.00000
23.85800	1750.00000
23.87500	1760.00000
23.89200	1704.00000
23.90900	1703.00000
23.92600	1752.00000
23.94300	1710.00000
23.96000	1701.00000
23.97700	1767.00000
23.99400	1727.00000
24.01100	1646.00000
24.02800	1693.00000
24.04500	1637.00000
24.06200	1690.00000
24.07900	1620.00000
24.09600	1647.00000
24.11300	1711.00000
24.13000	1677.00000
24.14700	1668.00000
24.16400	1627.00000
24.18100	1563.00000
24.19800	1626.00000
24.21500	1635.00000
24.23200	1640.00000
24.24900	1581.00000
24.26600	1574.00000
24.28300	1656.00000
24.30000	1638.00000
24.31700	1621.00000
24.33400	1598.00000
24.35100	1607.00000
24.36800	1643.00000
24.38500	1645.00000
24.40200	1631.00000
24.41900	1635.00000
24.43600	1580.00000
24.45300	1597.00000
24.47000	1610.00000
24.48700	1598.00000
24.50400	1528.00000
24.52100	1590.00000
24.53800	1573.00000
24.55500	1609.00000
24.57200	1561.00000
24.58900	1525.00000
24.60600	1592.00000
24.62300	1637.00000
24.64000	1650.00000
24.65700	1579.00000
24.67400	1565.00000
24.69100	1599.00000
24.70800	1606.00000
24.72500	1602.00000
24.74200	1603.00000
24.75900	1651.00000
24.77600	1679.00000
24.79300	1578.00000
24.81000	1588.00000
24.82700	1651.00000
24.84400	1590.00000
24.86100	1535.00000
24.87800	1617.00000
24.89500	1560.00000
24.91200	1548.00000
24.92900	1609.00000
24.94600	1643.00000
24.96300	1625.00000
24.98000	1596.00000
24.99700	1568.00000
25.01400	1608.00000
25.03100	1589.00000
25.04800	1520.00000
25.06500	1532.00000
25.08200	1559.00000
25.09900	1510.00000
25.11600	1551.00000
25.13300	1586.00000
25.15000	1547.00000
25.16700	1516.00000
25.18400	1531.00000
25.20100	1483.00000
25.21800	1491.00000
25.23500	1516.00000
25.25200	1556.00000
25.26900	1503.00000
25.28600	1505.00000
25.30300	1498.00000
25.32000	1444.00000
25.33700	1499.00000
25.35400	1528.00000
25.37100	1483.00000
25.38800	1507.00000
25.40500	1528.00000
25.42200	1442.00000
25.43900	1483.00000
25.45600	1461.00000
25.47300	1419.00000
25.49000	1483.00000
25.50700	1487.00000
25.52400	1490.00000
25.54100	1480.00000
25.55800	1504.00000
25.57500	1440.00000
25.59200	1490.00000
25.60900	1476.00000
25.62600	1481.00000
25.64300	1506.00000
25.66000	1486.00000
25.67700	1477.00000
25.69400	1524.00000
25.71100	1603.00000
25.72800	1579.00000
25.74500	1524.00000
25.76200	1468.00000
25.77900	1495.00000
25.79600	1558.00000
25.81300	1494.00000
25.83000	1452.00000
25.84700	1390.00000
25.86400	1395.00000
25.88100	1421.00000
25.89800	1436.00000
25.91500	1402.00000
25.93200	1403.00000
25.94900	1430.00000
25.96600	1410.00000
25.98300	1413.00000
26.00000	1446.00000
26.01700	1446.00000
26.03400	1447.00000
26.05100	1439.00000
26.06800	1432.00000
26.08500	1394.00000
26.10200	1400.00000
26.11900	1432.00000
26.13600	1448.00000
26.15300	1324.00000
26.17000	1382.00000
26.18700	1461.00000
26.20400	1423.00000
26.22100	1424.00000
26.23800	1390.00000
26.25500	1413.00000
26.27200	1420.00000
26.28900	1427.00000
26.30600	1422.00000
26.32300	1362.00000
26.34000	1381.00000
26.35700	1355.00000
26.37400	1350.00000
26.39100	1411.00000
26.40800	1416.00000
26.42500	1388.00000
26.44200	1441.00000
26.45900	1427.00000
26.47600	1413.00000
26.49300	1486.00000
26.51000	1418.00000
26.52700	1420.00000
26.54400	1405.00000
26.56100	1317.00000
26.57800	1333.00000
26.59500	1365.00000
26.61200	1350.00000
26.62900	1392.00000
26.64600	1402.00000
26.66300	1363.00000
26.68000	1404.00000
26.69700	1437.00000
26.71400	1410.00000
26.73100	1384.00000
26.74800	1399.00000
26.76500	1402.00000
26.78200	1378.00000
26.79900	1396.00000
26.81600	1334.00000
26.83300	1294.00000
26.85000	1360.00000
26.86700	1439.00000
26.88400	1409.00000
26.90100	1375.00000
26.91800	1384.00000
26.93500	1375.00000
26.95200	1319.00000
26.96900	1356.00000
26.98600	1327.00000
27.00300	1351.00000
27.02000	1355.00000
27.03700	1332.00000
27.05400	1433.00000
27.07100	1380.00000
27.08800	1451.00000
27.10500	1416.00000
27.12200	1375.00000
27.13900	1370.00000
27.15600	1398.00000
27.17300	1412.00000
27.19000	1392.00000
27.20700	1455.00000
27.22400	1383.00000
27.24100	1329.00000
27.25800	1394.00000
27.27500	1389.00000
27.29200	1369.00000
27.30900	1389.00000
27.32600	1384.00000
27.34300	1395.00000
27.36000	1399.00000
27.37700	1409.00000
27.39400	1360.00000
27.41100	1394.00000
27.42800	1427.00000
27.44500	1415.00000
27.46200	1442.00000
27.47900	1424.00000
27.49600	1338.00000
27.51300	1390.00000
27.53000	1389.00000
27.54700	1380.00000
27.56400	1334.00000
27.58100	1346.00000
27.59800	1347.00000
27.61500	1367.00000
27.63200	1347.00000
27.64900	1367.00000
27.66600	1418.00000
27.68300	1397.00000
27.70000	1371.00000
27.71700	1393.00000
27.73400	1369.00000
27.75100	1416.00000
27.76800	1441.00000
27.78500	1351.00000
27.80200	1351.00000
27.81900	1405.00000
27.83600	1419.00000
27.85300	1407.00000
27.87000	1336.00000
27.88700	1322.00000
27.90400	1388.00000
27.92100	1372.00000
27.93800	1357.00000
27.95500	1388.00000
27.97200	1355.00000
27.98900	1326.00000
28.00600	1385.00000
28.02300	1376.00000
28.04000	1375.00000
28.05700	1413.00000
28.07400	1414.00000
28.09100	1469.00000
28.10800	1392.00000
28.12500	1398.00000
28.14200	1404.00000
28.15900	1432.00000
28.17600	1405.00000
28.19300	1379.00000
28.21000	1382.00000
28.22700	1396.00000
28.24400	1433.00000
28.26100	1381.00000
28.27800	1421.00000
28.29500	1406.00000
28.31200	1377.00000
28.32900	1423.00000
28.34600	1434.00000
28.36300	1373.00000
28.38000	1449.00000
28.39700	1374.00000
28.41400	1404.00000
28.43100	1513.00000
28.44800	1474.00000
28.46500	1440.00000
28.48200	1444.00000
28.49900	1405.00000
28.51600	1329.00000
28.53300	1384.00000
28.55000	1422.00000
28.56700	1403.00000
28.58400	1384.00000
28.60100	1347.00000
28.61800	1367.00000
28.63500	1348.00000
28.65200	1324.00000
28.66900	1362.00000
28.68600	1352.00000
28.70300	1405.00000
28.72000	1368.00000
28.73700	1308.00000
28.75400	1359.00000
28.77100	1333.00000
28.78800	1377.00000
28.80500	1393.00000
28.82200	1340.00000
28.83900	1320.00000
28.85600	1365.00000
28.87300	1367.00000
28.89000	1376.00000
28.90700	1453.00000
28.92400	1383.00000
28.94100	1313.00000
28.95800	1322.00000
28.97500	1327.00000
28.99200	1316.00000
29.00900	1402.00000
29.02600	1367.00000
29.04300	1362.00000
29.06000	1348.00000
29.07700	1336.00000
29.09400	1324.00000
29.11100	1328.00000
29.12800	1326.00000
29.14500	1377.00000
29.16200	1387.00000
29.17900	1318.00000
29.19600	1274.00000
29.21300	1252.00000
29.23000	1366.00000
29.24700	1291.00000
29.26400	1352.00000
29.28100	1346.00000
29.29800	1365.00000
29.31500	1357.00000
29.33200	1282.00000
29.34900	1308.00000
29.36600	1327.00000
29.38300	1347.00000
29.40000	1304.00000
29.41700	1344.00000
29.43400	1305.00000
29.45100	1349.00000
29.46800	1421.00000
29.48500	1398.00000
29.50200	1327.00000
29.51900	1302.00000
29.53600	1308.00000
29.55300	1328.00000
29.57000	1291.00000
29.58700	1330.00000
29.60400	1319.00000
29.62100	1279.00000
29.63800	1326.00000
29.65500	1327.00000
29.67200	1301.00000
29.68900	1318.00000
29.70600	1336.00000
29.72300	1403.00000
29.74000	1356.00000
29.75700	1315.00000
29.77400	1338.00000
29.79100	1378.00000
29.80800	1381.00000
29.82500	1320.00000
29.84200	1335.00000
29.85900	1373.00000
29.87600	1323.00000
29.89300	1320.00000
29.91000	1363.00000
29.92700	1387.00000
29.94400	1428.00000
29.96100	1408.00000
29.97800	1431.00000
29.99500	1433.00000
30.01200	1437.00000
30.02900	1395.00000
30.04600	1454.00000
30.06300	1465.00000
30.08000	1436.00000
30.09700	1403.00000
30.11400	1451.00000
30.13100	1410.00000
30.14800	1360.00000
30.16500	1427.00000
30.18200	1411.00000
30.19900	1379.00000
30.21600	1393.00000
30.23300	1476.00000
30.25000	1441.00000
30.26700	1453.00000
30.28400	1488.00000
30.30100	1414.00000
30.31800	1424.00000
30.33500	1451.00000
30.35200	1455.00000
30.36900	1474.00000
30.38600	1477.00000
30.40300	1493.00000
30.42000	1433.00000
30.43700	1385.00000
30.45400	1370.00000
30.47100	1355.00000
30.48800	1423.00000
30.50500	1424.00000
30.52200	1447.00000
30.53900	1373.00000
30.55600	1355.00000
30.57300	1415.00000
30.59000	1437.00000
30.60700	1420.00000
30.62400	1449.00000
30.64100	1454.00000
30.65800	1434.00000
30.67500	1448.00000
30.69200	1438.00000
30.70900	1425.00000
30.72600	1383.00000
30.74300	1405.00000
30.76000	1448.00000
30.77700	1504.00000
30.79400	1470.00000
30.81100	1440.00000
30.82800	1508.00000
30.84500	1456.00000
30.86200	1425.00000
30.87900	1488.00000
30.89600	1509.00000
30.91300	1438.00000
30.93000	1396.00000
30.94700	1416.00000
30.96400	1440.00000
30.98100	1484.00000
30.99800	1435.00000
31.01500	1407.00000
31.03200	1442.00000
31.04900	1466.00000
31.06600	1438.00000
31.08300	1409.00000
31.10000	1467.00000
31.11700	1495.00000
31.13400	1535.00000
31.15100	1550.00000
31.16800	1604.00000
31.18500	1523.00000
31.20200	1529.00000
31.21900	1530.00000
31.23600	1631.00000
31.25300	1551.00000
31.27000	1651.00000
31.28700	1677.00000
31.30400	1705.00000
31.32100	1798.00000
31.33800	1804.00000
31.35500	1796.00000
31.37200	1830.00000
31.38900	1820.00000
31.40600	1779.00000
31.42300	1837.00000
31.44000	1902.00000
31.45700	1874.00000
31.47400	1903.00000
31.49100	1915.00000
31.50800	1848.00000
31.52500	1883.00000
31.54200	1900.00000
31.55900	1952.00000
31.57600	1908.00000
31.59300	1918.00000
31.61000	2008.00000
31.62700	2029.00000
31.64400	2033.00000
31.66100	2024.00000
31.67800	2046.00000
31.69500	2047.00000
31.71200	2160.00000
31.72900	2211.00000
31.74600	2230.00000
31.76300	2298.00000
31.78000	2305.00000
31.79700	2389.00000
31.81400	2473.00000
31.83100	2443.00000
31.84800	2479.00000
31.86500	2552.00000
31.88200	2595.00000
31.89900	2724.00000
31.91600	2829.00000
31.93300	2956.00000
31.95000	3121.00000
31.96700	3134.00000
31.98400	3494.00000
32.00100	3854.00000
32.01800	4099.00000
32.03500	4392.00000
32.05200	4839.00000
32.06900	5395.00000
32.08600	6133.00000
32.10300	6925.00000
32.12000	7950.00000
32.13700	9016.00000
32.15400	10414.00000
32.17100	11812.00000
32.18800	12941.00000
32.20500	14611.00000
32.22200	15830.00000
32.23900	17370.00000
32.25600	18946.00000
32.27300	20349.00000
32.29000	21938.00000
32.30700	24160.00000
32.32400	26625.00000
32.34100	29827.00000
32.35800	34448.00000
32.37500	40333.00000
32.39200	48600.00000
32.40900	58541.00000
32.42600	69425.00000
32.44300	80943.00000
32.46000	89111.00000
32.47700	93782.00000
32.49400	93105.00000
32.51100	88260.00000
32.52800	80748.00000
32.54500	72300.00000
32.56200	62711.00000
32.57900	52523.00000
32.59600	42859.00000
32.61300	33485.00000
32.63000	25506.00000
32.64700	19382.00000
32.66400	14957.00000
32.68100	11845.00000
32.69800	9741.00000
32.71500	8142.00000
32.73200	6773.00000
32.74900	6120.00000
32.76600	5497.00000
32.78300	4855.00000
32.80000	4433.00000
32.81700	4095.00000
32.83400	3828.00000
32.85100	3563.00000
32.86800	3418.00000
32.88500	3340.00000
32.90200	3007.00000
32.91900	3005.00000
32.93600	2903.00000
32.95300	2721.00000
32.97000	2683.00000
32.98700	2645.00000
33.00400	2599.00000
33.02100	2497.00000
33.03800	2358.00000
33.05500	2438.00000
33.07200	2322.00000
33.08900	2269.00000
33.10600	2319.00000
33.12300	2187.00000
33.14000	2128.00000
33.15700	2164.00000
33.17400	2166.00000
33.19100	2004.00000
33.20800	2076.00000
33.22500	2123.00000
33.24200	2081.00000
33.25900	1912.00000
33.27600	1914.00000
33.29300	1839.00000
33.31000	1856.00000
33.32700	1851.00000
33.34400	1931.00000
33.36100	1856.00000
33.37800	1884.00000
33.39500	1823.00000
33.41200	1819.00000
33.42900	1800.00000
33.44600	1815.00000
33.46300	1791.00000
33.48000	1825.00000
33.49700	1763.00000
33.51400	1749.00000
33.53100	1756.00000
33.54800	1696.00000
33.56500	1684.00000
33.58200	1658.00000
33.59900	1773.00000
33.61600	1758.00000
33.63300	1598.00000
33.65000	1612.00000
33.66700	1613.00000
33.68400	1651.00000
33.70100	1657.00000
33.71800	1654.00000
33.73500	1595.00000
33.75200	1533.00000
33.76900	1615.00000
33.78600	1637.00000
33.80300	1608.00000
33.82000	1652.00000
33.83700	1574.00000
33.85400	1557.00000
33.87100	1569.00000
33.88800	1548.00000
33.90500	1589.00000
33.92200	1618.00000
33.93900	1540.00000
33.95600	1463.00000
33.97300	1528.00000
33.99000	1596.00000
34.00700	1528.00000
34.02400	1530.00000
34.04100	1585.00000
34.05800	1623.00000
34.07500	1602.00000
34.09200	1538.00000
34.10900	1571.00000
34.12600	1635.00000
34.14300	1607.00000
34.16000	1577.00000
34.17700	1586.00000
34.19400	1591.00000
34.21100	1540.00000
34.22800	1614.00000
34.24500	1555.00000
34.26200	1494.00000
34.27900	1416.00000
34.29600	1420.00000
34.31300	1426.00000
34.33000	1417.00000
34.34700	1475.00000
34.36400	1463.00000
34.38100	1471.00000
34.39800	1436.00000
34.41500	1452.00000
34.43200	1400.00000
34.44900	1514.00000
34.46600	1488.00000
34.48300	1496.00000
34.50000	1483.00000
34.51700	1454.00000
34.53400	1444.00000
34.55100	1453.00000
34.56800	1491.00000
34.58500	1491.00000
34.60200	1491.00000
34.61900	1518.00000
34.63600	1502.00000
34.65300	1472.00000
34.67000	1464.00000
34.68700	1451.00000
34.70400	1429.00000
34.72100	1421.00000
34.73800	1412.00000
34.75500	1411.00000
34.77200	1398.00000
34.78900	1368.00000
34.80600	1424.00000
34.82300	1433.00000
34.84000	1359.00000
34.85700	1383.00000
34.87400	1396.00000
34.89100	1376.00000
34.90800	1340.00000
34.92500	1353.00000
34.94200	1374.00000
34.95900	1380.00000
34.97600	1341.00000
34.99300	1336.00000
35.01000	1390.00000
35.02700	1340.00000
35.04400	1270.00000
35.06100	1374.00000
35.07800	1374.00000
35.09500	1325.00000
35.11200	1305.00000
35.12900	1395.00000
35.14600	1352.00000
35.16300	1345.00000
35.18000	1205.00000
35.19700	1253.00000
35.21400	1281.00000
35.23100	1311.00000
35.24800	1320.00000
35.26500	1327.00000
35.28200	1272.00000
35.29900	1275.00000
35.31600	1288.00000
35.33300	1269.00000
35.35000	1268.00000
35.36700	1252.00000
35.38400	1371.00000
35.40100	1265.00000
35.41800	1264.00000
35.43500	1364.00000
35.45200	1328.00000
35.46900	1255.00000
35.48600	1229.00000
35.50300	1302.00000
35.52000	1328.00000
35.53700	1252.00000
35.55400	1240.00000
35.57100	1238.00000
35.58800	1256.00000
35.60500	1291.00000
35.62200	1309.00000
35.63900	1244.00000
35.65600	1150.00000
35.67300	1184.00000
35.69000	1255.00000
35.70700	1189.00000
35.72400	1178.00000
35.74100	1225.00000
35.75800	1194.00000
35.77500	1216.00000
35.79200	1235.00000
35.80900	1179.00000
35.82600	1260.00000
35.84300	1321.00000
35.86000	1236.00000
35.87700	1154.00000
35.89400	1202.00000
35.91100	1174.00000
35.92800	1202.00000
35.94500	1264.00000
35.96200	1277.00000
35.97900	1257.00000
35.99600	1331.00000
36.01300	1286.00000
36.03000	1267.00000
36.04700	1346.00000
36.06400	1349.00000
36.08100	1289.00000
36.09800	1376.00000
36.11500	1288.00000
36.13200	1378.00000
36.14900	1470.00000
36.16600	1448.00000
36.18300	1502.00000
36.20000	1646.00000
36.21700	1699.00000
36.23400	1718.00000
36.25100	1677.00000
36.26800	1811.00000
36.28500	1778.00000
36.30200	1835.00000
36.31900	1850.00000
36.33600	1898.00000
36.35300	2007.00000
36.37000	1869.00000
36.38700	1835.00000
36.40400	1863.00000
36.42100	1777.00000
36.43800	1786.00000
36.45500	1727.00000
36.47200	1659.00000
36.48900	1658.00000
36.50600	1557.00000
36.52300	1526.00000
36.54000	1473.00000
36.55700	1442.00000
36.57400	1470.00000
36.59100	1409.00000
36.60800	1339.00000
36.62500	1360.00000
36.64200	1288.00000
36.65900	1232.00000
36.67600	1302.00000
36.69300	1337.00000
36.71000	1271.00000
36.72700	1240.00000
36.74400	1295.00000
36.76100	1317.00000
36.77800	1239.00000
36.79500	1291.00000
36.81200	1319.00000
36.82900	1265.00000
36.84600	1227.00000
36.86300	1281.00000
36.88000	1274.00000
36.89700	1199.00000
36.91400	1238.00000
36.93100	1244.00000
36.94800	1227.00000
36.96500	1223.00000
36.98200	1220.00000
36.99900	1213.00000
37.01600	1263.00000
37.03300	1237.00000
37.05000	1290.00000
37.06700	1271.00000
37.08400	1198.00000
37.10100	1233.00000
37.11800	1213.00000
37.13500	1219.00000
37.15200	1238.00000
37.16900	1184.00000
37.18600	1163.00000
37.20300	1221.00000
37.22000	1244.00000
37.23700	1277.00000
37.25400	1264.00000
37.27100	1229.00000
37.28800	1301.00000
37.30500	1220.00000
37.32200	1238.00000
37.33900	1227.00000
37.35600	1227.00000
37.37300	1238.00000
37.39000	1268.00000
37.40700	1274.00000
37.42400	1234.00000
37.44100	1189.00000
37.45800	1229.00000
37.47500	1223.00000
37.49200	1199.00000
37.50900	1221.00000
37.52600	1243.00000
37.54300	1232.00000
37.56000	1227.00000
37.57700	1262.00000
37.59400	1246.00000
37.61100	1243.00000
37.62800	1253.00000
37.64500	1198.00000
37.66200	1226.00000
37.67900	1207.00000
37.69600	1175.00000
37.71300	1209.00000
37.73000	1238.00000
37.74700	1226.00000
37.76400	1254.00000
37.78100	1241.00000
37.79800	1261.00000
37.81500	1242.00000
37.83200	1251.00000
37.84900	1282.00000
37.86600	1285.00000
37.88300	1311.00000
37.90000	1320.00000
37.91700	1317.00000
37.93400	1415.00000
37.95100	1414.00000
37.96800	1502.00000
37.98500	1491.00000
38.00200	1523.00000
38.01900	1567.00000
38.03600	1584.00000
38.05300	1633.00000
38.07000	1785.00000
38.08700	1799.00000
38.10400	1779.00000
38.12100	1817.00000
38.13800	1786.00000
38.15500	1864.00000
38.17200	1916.00000
38.18900	1942.00000
38.20600	1938.00000
38.22300	2024.00000
38.24000	2112.00000
38.25700	2084.00000
38.27400	2153.00000
38.29100	2175.00000
38.30800	2274.00000
38.32500	2250.00000
38.34200	2393.00000
38.35900	2457.00000
38.37600	2362.00000
38.39300	2375.00000
38.41000	2355.00000
38.42700	2264.00000
38.44400	2228.00000
38.46100	2107.00000
38.47800	1934.00000
38.49500	1916.00000
38.51200	1772.00000
38.52900	1708.00000
38.54600	1611.00000
38.56300	1477.00000
38.58000	1477.00000
38.59700	1462.00000
38.61400	1457.00000
38.63100	1409.00000
38.64800	1339.00000
38.66500	1313.00000
38.68200	1288.00000
38.69900	1289.00000
38.71600	1299.00000
38.73300	1269.00000
38.75000	1239.00000
38.76700	1205.00000
38.78400	1268.00000
38.80100	1271.00000
38.81800	1219.00000
38.83500	1221.00000
38.85200	1266.00000
38.86900	1264.00000
38.88600	1269.00000
38.90300	1275.00000
38.92000	1255.00000
38.93700	1250.00000
38.95400	1204.00000
38.97100	1214.00000
38.98800	1226.00000
39.00500	1226.00000
39.02200	1175.00000
39.03900	1221.00000
39.05600	1224.00000
39.07300	1241.00000
39.09000	1199.00000
39.10700	1179.00000
39.12400	1211.00000
39.14100	1137.00000
39.15800	1197.00000
39.17500	1182.00000
39.19200	1261.00000
39.20900	1209.00000
39.22600	1185.00000
39.24300	1217.00000
39.26000	1212.00000
39.27700	1212.00000
39.29400	1136.00000
39.31100	1236.00000
39.32800	1240.00000
39.34500	1214.00000
39.36200	1217.00000
39.37900	1204.00000
39.39600	1242.00000
39.41300	1283.00000
39.43000	1228.00000
39.44700	1206.00000
39.46400	1218.00000
39.48100	1204.00000
39.49800	1250.00000
39.51500	1263.00000
39.53200	1248.00000
39.54900	1281.00000
39.56600	1233.00000
39.58300	1298.00000
39.60000	1365.00000
39.61700	1298.00000
39.63400	1264.00000
39.65100	1341.00000
39.66800	1420.00000
39.68500	1407.00000
39.70200	1458.00000
39.71900	1535.00000
39.73600	1514.00000
39.75300	1611.00000
39.77000	1753.00000
39.78700	1770.00000
39.80400	1836.00000
39.82100	1924.00000
39.83800	2187.00000
39.85500	2274.00000
39.87200	2405.00000
39.88900	2481.00000
39.90600	2602.00000
39.92300	2609.00000
39.94000	2818.00000
39.95700	2832.00000
39.97400	2796.00000
39.99100	2958.00000
40.00800	2980.00000
40.02500	2986.00000
40.04200	2991.00000
40.05900	3151.00000
40.07600	3100.00000
40.09300	3169.00000
40.11000	2933.00000
40.12700	2802.00000
40.14400	2746.00000
40.16100	2535.00000
40.17800	2486.00000
40.19500	2251.00000
40.21200	2147.00000
40.22900	1990.00000
40.24600	1909.00000
40.26300	1722.00000
40.28000	1639.00000
40.29700	1597.00000
40.31400	1529.00000
40.33100	1420.00000
40.34800	1430.00000
40.36500	1378.00000
40.38200	1344.00000
40.39900	1311.00000
40.41600	1324.00000
40.43300	1293.00000
40.45000	1259.00000
40.46700	1247.00000
40.48400	1215.00000
40.50100	1229.00000
40.51800	1187.00000
40.53500	1207.00000
40.55200	1261.00000
40.56900	1257.00000
40.58600	1200.00000
40.60300	1121.00000
40.62000	1167.00000
40.63700	1221.00000
40.65400	1177.00000
40.67100	1246.00000
40.68800	1285.00000
40.70500	1202.00000
40.72200	1187.00000
40.73900	1184.00000
40.75600	1142.00000
40.77300	1117.00000
40.79000	1159.00000
40.80700	1156.00000
40.82400	1203.00000
40.84100	1219.00000
40.85800	1138.00000
40.87500	1153.00000
40.89200	1199.00000
40.90900	1182.00000
40.92600	1121.00000
40.94300	1081.00000
40.96000	1166.00000
40.97700	1144.00000
40.99400	1101.00000
41.01100	1111.00000
41.02800	1124.00000
41.04500	1146.00000
41.06200	1147.00000
41.07900	1179.00000
41.09600	1131.00000
41.11300	1153.00000
41.13000	1172.00000
41.14700	1130.00000
41.16400	1167.00000
41.18100	1131.00000
41.19800	1142.00000
41.21500	1166.00000
41.23200	1160.00000
41.24900	1097.00000
41.26600	1103.00000
41.28300	1141.00000
41.30000	1090.00000
41.31700	1146.00000
41.33400	1155.00000
41.35100	1098.00000
41.36800	1174.00000
41.38500	1167.00000
41.40200	1170.00000
41.41900	1125.00000
41.43600	1112.00000
41.45300	1122.00000
41.47000	1078.00000
41.48700	1083.00000
41.50400	1144.00000
41.52100	1183.00000
41.53800	1186.00000
41.55500	1162.00000
41.57200	1162.00000
41.58900	1152.00000
41.60600	1135.00000
41.62300	1157.00000
41.64000	1188.00000
41.65700	1141.00000
41.67400	1140.00000
41.69100	1238.00000
41.70800	1176.00000
41.72500	1198.00000
41.74200	1221.00000
41.75900	1205.00000
41.77600	1177.00000
41.79300	1210.00000
41.81000	1279.00000
41.82700	1204.00000
41.84400	1222.00000
41.86100	1261.00000
41.87800	1226.00000
41.89500	1163.00000
41.91200	1169.00000
41.92900	1205.00000
41.94600	1214.00000
41.96300	1216.00000
41.98000	1219.00000
41.99700	1218.00000
42.01400	1158.00000
42.03100	1167.00000
42.04800	1147.00000
42.06500	1175.00000
42.08200	1206.00000
42.09900	1147.00000
42.11600	1211.00000
42.13300	1168.00000
42.15000	1186.00000
42.16700	1129.00000
42.18400	1109.00000
42.20100	1181.00000
42.21800	1213.00000
42.23500	1162.00000
42.25200	1113.00000
42.26900	1116.00000
42.28600	1134.00000
42.30300	1109.00000
42.32000	1116.00000
42.33700	1172.00000
42.35400	1151.00000
42.37100	1143.00000
42.38800	1127.00000
42.40500	1128.00000
42.42200	1121.00000
42.43900	1098.00000
42.45600	1129.00000
42.47300	1118.00000
42.49000	1159.00000
42.50700	1180.00000
42.52400	1152.00000
42.54100	1129.00000
42.55800	1128.00000
42.57500	1151.00000
42.59200	1175.00000
42.60900	1129.00000
42.62600	1135.00000
42.64300	1119.00000
42.66000	1061.00000
42.67700	1103.00000
42.69400	1097.00000
42.71100	1089.00000
42.72800	1120.00000
42.74500	1184.00000
42.76200	1170.00000
42.77900	1142.00000
42.79600	1127.00000
42.81300	1111.00000
42.83000	1157.00000
42.84700	1167.00000
42.86400	1214.00000
42.88100	1201.00000
42.89800	1121.00000
42.91500	1136.00000
42.93200	1108.00000
42.94900	1102.00000
42.96600	1211.00000
42.98300	1196.00000
43.00000	1188.00000
43.01700	1193.00000
43.03400	1184.00000
43.05100	1249.00000
43.06800	1298.00000
43.08500	1237.00000
43.10200	1244.00000
43.11900	1356.00000
43.13600	1441.00000
43.15300	1389.00000
43.17000	1368.00000
43.18700	1476.00000
43.20400	1544.00000
43.22100	1570.00000
43.23800	1611.00000
43.25500	1601.00000
43.27200	1569.00000
43.28900	1653.00000
43.30600	1676.00000
43.32300	1669.00000
43.34000	1652.00000
43.35700	1671.00000
43.37400	1774.00000
43.39100	1733.00000
43.40800	1678.00000
43.42500	1698.00000
43.44200	1614.00000
43.45900	1612.00000
43.47600	1569.00000
43.49300	1469.00000
43.51000	1460.00000
43.52700	1446.00000
43.54400	1441.00000
43.56100	1435.00000
43.57800	1382.00000
43.59500	1305.00000
43.61200	1287.00000
43.62900	1350.00000
43.64600	1350.00000
43.66300	1336.00000
43.68000	1269.00000
43.69700	1201.00000
43.71400	1239.00000
43.73100	1235.00000
43.74800	1246.00000
43.76500	1226.00000
43.78200	1207.00000
43.79900	1232.00000
43.81600	1154.00000
43.83300	1184.00000
43.85000	1199.00000
43.86700	1252.00000
43.88400	1244.00000
43.90100	1246.00000
43.91800	1278.00000
43.93500	1335.00000
43.95200	1304.00000
43.96900	1218.00000
43.98600	1215.00000
44.00300	1264.00000
44.02000	1235.00000
44.03700	1185.00000
44.05400	1219.00000
44.07100	1219.00000
44.08800	1210.00000
44.10500	1204.00000
44.12200	1156.00000
44.13900	1136.00000
44.15600	1116.00000
44.17300	1132.00000
44.19000	1184.00000
44.20700	1172.00000
44.22400	1144.00000
44.24100	1141.00000
44.25800	1125.00000
44.27500	1217.00000
44.29200	1197.00000
44.30900	1199.00000
44.32600	1207.00000
44.34300	1188.00000
44.36000	1152.00000
44.37700	1222.00000
44.39400	1225.00000
44.41100	1234.00000
44.42800	1251.00000
44.44500	1173.00000
44.46200	1180.00000
44.47900	1171.00000
44.49600	1131.00000
44.51300	1163.00000
44.53000	1170.00000
44.54700	1135.00000
44.56400	1123.00000
44.58100	1186.00000
44.59800	1188.00000
44.61500	1156.00000
44.63200	1251.00000
44.64900	1245.00000
44.66600	1217.00000
44.68300	1180.00000
44.70000	1196.00000
44.71700	1191.00000
44.73400	1268.00000
44.75100	1244.00000
44.76800	1231.00000
44.78500	1231.00000
44.80200	1216.00000
44.81900	1238.00000
44.83600	1255.00000
44.85300	1242.00000
44.87000	1200.00000
44.88700	1283.00000
44.90400	1322.00000
44.92100	1264.00000
44.93800	1318.00000
44.95500	1305.00000
44.97200	1303.00000
44.98900	1272.00000
45.00600	1255.00000
45.02300	1244.00000
45.04000	1306.00000
45.05700	1368.00000
45.07400	1249.00000
45.09100	1258.00000
45.10800	1286.00000
45.12500	1277.00000
45.14200	1261.00000
45.15900	1223.00000
45.17600	1263.00000
45.19300	1302.00000
45.21000	1330.00000
45.22700	1341.00000
45.24400	1307.00000
45.26100	1283.00000
45.27800	1247.00000
45.29500	1271.00000
45.31200	1303.00000
45.32900	1301.00000
45.34600	1302.00000
45.36300	1361.00000
45.38000	1328.00000
45.39700	1351.00000
45.41400	1402.00000
45.43100	1378.00000
45.44800	1341.00000
45.46500	1365.00000
45.48200	1398.00000
45.49900	1381.00000
45.51600	1369.00000
45.53300	1393.00000
45.55000	1375.00000
45.56700	1334.00000
45.58400	1323.00000
45.60100	1388.00000
45.61800	1399.00000
45.63500	1387.00000
45.65200	1350.00000
45.66900	1347.00000
45.68600	1397.00000
45.70300	1430.00000
45.72000	1387.00000
45.73700	1453.00000
45.75400	1480.00000
45.77100	1495.00000
45.78800	1463.00000
45.80500	1451.00000
45.82200	1604.00000
45.83900	1522.00000
45.85600	1524.00000
45.87300	1562.00000
45.89000	1583.00000
45.90700	1549.00000
45.92400	1641.00000
45.94100	1609.00000
45.95800	1647.00000
45.97500	1804.00000
45.99200	1801.00000
46.00900	1863.00000
46.02600	1948.00000
46.04300	2032.00000
46.06000	2110.00000
46.07700	2254.00000
46.09400	2397.00000
46.11100	2565.00000
46.12800	2688.00000
46.14500	2913.00000
46.16200	3156.00000
46.17900	3645.00000
46.19600	4140.00000
46.21300	4744.00000
46.23000	5585.00000
46.24700	6546.00000
46.26400	7786.00000
46.28100	9060.00000
46.29800	10485.00000
46.31500	12119.00000
46.33200	13743.00000
46.34900	15190.00000
46.36600	16759.00000
46.38300	17888.00000
46.40000	18698.00000
46.41700	19339.00000
46.43400	19936.00000
46.45100	20036.00000
46.46800	19833.00000
46.48500	19522.00000
46.50200	18897.00000
46.51900	18163.00000
46.53600	17291.00000
46.55300	16288.00000
46.57000	15695.00000
46.58700	14908.00000
46.60400	14487.00000
46.62100	14195.00000
46.63800	14395.00000
46.65500	14588.00000
46.67200	14911.00000
46.68900	15544.00000
46.70600	15820.00000
46.72300	16047.00000
46.74000	15791.00000
46.75700	15320.00000
46.77400	14356.00000
46.79100	13158.00000
46.80800	12152.00000
46.82500	10888.00000
46.84200	10000.00000
46.85900	9330.00000
46.87600	8310.00000
46.89300	7202.00000
46.91000	6358.00000
46.92700	5293.00000
46.94400	4649.00000
46.96100	3833.00000
46.97800	3248.00000
46.99500	2839.00000
47.01200	2509.00000
47.02900	2357.00000
47.04600	2269.00000
47.06300	2155.00000
47.08000	1971.00000
47.09700	1887.00000
47.11400	1795.00000
47.13100	1778.00000
47.14800	1700.00000
47.16500	1641.00000
47.18200	1627.00000
47.19900	1605.00000
47.21600	1564.00000
47.23300	1518.00000
47.25000	1529.00000
47.26700	1579.00000
47.28400	1496.00000
47.30100	1500.00000
47.31800	1499.00000
47.33500	1461.00000
47.35200	1495.00000
47.36900	1446.00000
47.38600	1401.00000
47.40300	1435.00000
47.42000	1418.00000
47.43700	1413.00000
47.45400	1434.00000
47.47100	1463.00000
47.48800	1410.00000
47.50500	1435.00000
47.52200	1436.00000
47.53900	1451.00000
47.55600	1403.00000
47.57300	1326.00000
47.59000	1380.00000
47.60700	1368.00000
47.62400	1383.00000
47.64100	1409.00000
47.65800	1359.00000
47.67500	1342.00000
47.69200	1355.00000
47.70900	1359.00000
47.72600	1367.00000
47.74300	1358.00000
47.76000	1297.00000
47.77700	1306.00000
47.79400	1382.00000
47.81100	1408.00000
47.82800	1330.00000
47.84500	1382.00000
47.86200	1400.00000
47.87900	1319.00000
47.89600	1332.00000
47.91300	1371.00000
47.93000	1322.00000
47.94700	1344.00000
47.96400	1365.00000
47.98100	1334.00000
47.99800	1290.00000
48.01500	1323.00000
48.03200	1308.00000
48.04900	1320.00000
48.06600	1344.00000
48.08300	1288.00000
48.10000	1308.00000
48.11700	1267.00000
48.13400	1275.00000
48.15100	1320.00000
48.16800	1282.00000
48.18500	1215.00000
48.20200	1236.00000
48.21900	1288.00000
48.23600	1318.00000
48.25300	1257.00000
48.27000	1280.00000
48.28700	1281.00000
48.30400	1292.00000
48.32100	1259.00000
48.33800	1236.00000
48.35500	1263.00000
48.37200	1272.00000
48.38900	1243.00000
48.40600	1243.00000
48.42300	1190.00000
48.44000	1192.00000
48.45700	1253.00000
48.47400	1233.00000
48.49100	1243.00000
48.50800	1276.00000
48.52500	1264.00000
48.54200	1238.00000
48.55900	1224.00000
48.57600	1184.00000
48.59300	1233.00000
48.61000	1234.00000
48.62700	1233.00000
48.64400	1213.00000
48.66100	1224.00000
48.67800	1236.00000
48.69500	1269.00000
48.71200	1288.00000
48.72900	1269.00000
48.74600	1248.00000
48.76300	1242.00000
48.78000	1222.00000
48.79700	1194.00000
48.81400	1216.00000
48.83100	1236.00000
48.84800	1155.00000
48.86500	1200.00000
48.88200	1235.00000
48.89900	1243.00000
48.91600	1207.00000
48.93300	1175.00000
48.95000	1191.00000
48.96700	1148.00000
48.98400	1162.00000
49.00100	1156.00000
49.01800	1190.00000
49.03500	1164.00000
49.05200	1174.00000
49.06900	1173.00000
49.08600	1189.00000
49.10300	1196.00000
49.12000	1197.00000
49.13700	1155.00000
49.15400	1148.00000
49.17100	1149.00000
49.18800	1152.00000
49.20500	1218.00000
49.22200	1190.00000
49.23900	1179.00000
49.25600	1155.00000
49.27300	1129.00000
49.29000	1158.00000
49.30700	1163.00000
49.32400	1156.00000
49.34100	1187.00000
49.35800	1172.00000
49.37500	1179.00000
49.39200	1166.00000
49.40900	1115.00000
49.42600	1078.00000
49.44300	1096.00000
49.46000	1103.00000
49.47700	1150.00000
49.49400	1101.00000
49.51100	1109.00000
49.52800	1158.00000
49.54500	1193.00000
49.56200	1170.00000
49.57900	1079.00000
49.59600	1097.00000
49.61300	1119.00000
49.63000	1150.00000
49.64700	1109.00000
49.66400	1109.00000
49.68100	1136.00000
49.69800	1122.00000
49.71500	1146.00000
49.73200	1108.00000
49.74900	1174.00000
49.76600	1172.00000
49.78300	1179.00000
49.80000	1139.00000
49.81700	1096.00000
49.83400	1106.00000
49.85100	1134.00000
49.86800	1169.00000
49.88500	1165.00000
49.90200	1095.00000
49.91900	1189.00000
49.93600	1117.00000
49.95300	1109.00000
49.97000	1152.00000
49.98700	1140.00000
50.00400	1117.00000
50.02100	1121.00000
50.03800	1164.00000
50.05500	1214.00000
50.07200	1164.00000
50.08900	1144.00000
50.10600	1109.00000
50.12300	1179.00000
50.14000	1145.00000
50.15700	1150.00000
50.17400	1210.00000
50.19100	1182.00000
50.20800	1210.00000
50.22500	1233.00000
50.24200	1229.00000
50.25900	1186.00000
50.27600	1168.00000
50.29300	1219.00000
50.31000	1208.00000
50.32700	1152.00000
50.34400	1187.00000
50.36100	1224.00000
50.37800	1230.00000
50.39500	1261.00000
50.41200	1259.00000
50.42900	1184.00000
50.44600	1180.00000
50.46300	1237.00000
50.48000	1254.00000
50.49700	1300.00000
50.51400	1243.00000
50.53100	1210.00000
50.54800	1159.00000
50.56500	1192.00000
50.58200	1231.00000
50.59900	1308.00000
50.61600	1279.00000
50.63300	1232.00000
50.65000	1259.00000
50.66700	1291.00000
50.68400	1270.00000
50.70100	1340.00000
50.71800	1308.00000
50.73500	1247.00000
50.75200	1243.00000
50.76900	1277.00000
50.78600	1286.00000
50.80300	1254.00000
50.82000	1200.00000
50.83700	1349.00000
50.85400	1414.00000
50.87100	1399.00000
50.88800	1403.00000
50.90500	1306.00000
50.92200	1385.00000
50.93900	1376.00000
50.95600	1387.00000
50.97300	1346.00000
50.99000	1427.00000
51.00700	1414.00000
51.02400	1470.00000
51.04100	1515.00000
51.05800	1486.00000
51.07500	1474.00000
51.09200	1496.00000
51.10900	1503.00000
51.12600	1528.00000
51.14300	1533.00000
51.16000	1512.00000
51.17700	1501.00000
51.19400	1465.00000
51.21100	1495.00000
51.22800	1501.00000
51.24500	1445.00000
51.26200	1419.00000
51.27900	1430.00000
51.29600	1415.00000
51.31300	1419.00000
51.33000	1413.00000
51.34700	1400.00000
51.36400	1334.00000
51.38100	1354.00000
51.39800	1355.00000
51.41500	1363.00000
51.43200	1348.00000
51.44900	1337.00000
51.46600	1368.00000
51.48300	1351.00000
51.50000	1378.00000
51.51700	1429.00000
51.53400	1426.00000
51.55100	1409.00000
51.56800	1387.00000
51.58500	1477.00000
51.60200	1493.00000
51.61900	1512.00000
51.63600	1519.00000
51.65300	1596.00000
51.67000	1584.00000
51.68700	1538.00000
51.70400	1618.00000
51.72100	1629.00000
51.73800	1712.00000
51.75500	1755.00000
51.77200	1774.00000
51.78900	1813.00000
51.80600	1901.00000
51.82300	1957.00000
51.84000	2081.00000
51.85700	2172.00000
51.87400	2284.00000
51.89100	2400.00000
51.90800	2685.00000
51.92500	2828.00000
51.94200	3010.00000
51.95900	3278.00000
51.97600	3502.00000
51.99300	3729.00000
52.01000	3930.00000
52.02700	4157.00000
52.04400	4520.00000
52.06100	4720.00000
52.07800	5084.00000
52.09500	5345.00000
52.11200	5628.00000
52.12900	5907.00000
52.14600	6096.00000
52.16300	6441.00000
52.18000	6987.00000
52.19700	7361.00000
52.21400	8059.00000
52.23100	8710.00000
52.24800	9574.00000
52.26500	10397.00000
52.28200	11069.00000
52.29900	11789.00000
52.31600	12433.00000
52.33300	12963.00000
52.35000	13357.00000
52.36700	13662.00000
52.38400	14156.00000
52.40100	14222.00000
52.41800	14325.00000
52.43500	14860.00000
52.45200	14905.00000
52.46900	15005.00000
52.48600	15444.00000
52.50300	15790.00000
52.52000	16123.00000
52.53700	16622.00000
52.55400	16413.00000
52.57100	15785.00000
52.58800	15128.00000
52.60500	14166.00000
52.62200	12640.00000
52.63900	11479.00000
52.65600	10599.00000
52.67300	9577.00000
52.69000	8856.00000
52.70700	8251.00000
52.72400	7664.00000
52.74100	6770.00000
52.75800	5940.00000
52.77500	5066.00000
52.79200	4285.00000
52.80900	3741.00000
52.82600	3126.00000
52.84300	2795.00000
52.86000	2556.00000
52.87700	2340.00000
52.89400	2171.00000
52.91100	2115.00000
52.92800	1995.00000
52.94500	1902.00000
52.96200	1807.00000
52.97900	1733.00000
52.99600	1615.00000
53.01300	1628.00000
53.03000	1541.00000
53.04700	1518.00000
53.06400	1479.00000
53.08100	1456.00000
53.09800	1457.00000
53.11500	1427.00000
53.13200	1473.00000
53.14900	1433.00000
53.16600	1440.00000
53.18300	1436.00000
53.20000	1366.00000
53.21700	1333.00000
53.23400	1298.00000
53.25100	1346.00000
53.26800	1310.00000
53.28500	1282.00000
53.30200	1313.00000
53.31900	1329.00000
53.33600	1322.00000
53.35300	1313.00000
53.37000	1372.00000
53.38700	1327.00000
53.40400	1320.00000
53.42100	1354.00000
53.43800	1298.00000
53.45500	1273.00000
53.47200	1313.00000
53.48900	1336.00000
53.50600	1316.00000
53.52300	1322.00000
53.54000	1289.00000
53.55700	1301.00000
53.57400	1273.00000
53.59100	1266.00000
53.60800	1271.00000
53.62500	1216.00000
53.64200	1262.00000
53.65900	1281.00000
53.67600	1292.00000
53.69300	1253.00000
53.71000	1238.00000
53.72700	1239.00000
53.74400	1234.00000
53.76100	1249.00000
53.77800	1249.00000
53.79500	1197.00000
53.81200	1276.00000
53.82900	1285.00000
53.84600	1222.00000
53.86300	1218.00000
53.88000	1298.00000
53.89700	1248.00000
53.91400	1248.00000
53.93100	1213.00000
53.94800	1185.00000
53.96500	1209.00000
53.98200	1223.00000
53.99900	1231.00000
54.01600	1214.00000
54.03300	1219.00000
54.05000	1179.00000
54.06700	1177.00000
54.08400	1249.00000
54.10100	1239.00000
54.11800	1184.00000
54.13500	1225.00000
54.15200	1237.00000
54.16900	1267.00000
54.18600	1300.00000
54.20300	1264.00000
54.22000	1216.00000
54.23700	1207.00000
54.25400	1220.00000
54.27100	1196.00000
54.28800	1213.00000
54.30500	1192.00000
54.32200	1218.00000
54.33900	1248.00000
54.35600	1264.00000
54.37300	1212.00000
54.39000	1163.00000
54.40700	1190.00000
54.42400	1222.00000
54.44100	1286.00000
54.45800	1241.00000
54.47500	1125.00000
54.49200	1190.00000
54.50900	1236.00000
54.52600	1239.00000
54.54300	1217.00000
54.56000	1246.00000
54.57700	1202.00000
54.59400	1167.00000
54.61100	1194.00000
54.62800	1198.00000
54.64500	1142.00000
54.66200	1142.00000
54.67900	1156.00000
54.69600	1129.00000
54.71300	1172.00000
54.73000	1200.00000
54.74700	1184.00000
54.76400	1202.00000
54.78100	1214.00000
54.79800	1172.00000
54.81500	1177.00000
54.83200	1155.00000
54.84900	1134.00000
54.86600	1206.00000
54.88300	1148.00000
54.90000	1081.00000
54.91700	1147.00000
54.93400	1180.00000
54.95100	1138.00000
54.96800	1191.00000
54.98500	1211.00000
55.00200	1144.00000
55.01900	1168.00000
55.03600	1123.00000
55.05300	1142.00000
55.07000	1178.00000
55.08700	1255.00000
55.10400	1196.00000
55.12100	1190.00000
55.13800	1183.00000
55.15500	1193.00000
55.17200	1184.00000
55.18900	1193.00000
55.20600	1206.00000
55.22300	1173.00000
55.24000	1124.00000
55.25700	1220.00000
55.27400	1211.00000
55.29100	1197.00000
55.30800	1211.00000
55.32500	1207.00000
55.34200	1221.00000
55.35900	1222.00000
55.37600	1237.00000
55.39300	1201.00000
55.41000	1183.00000
55.42700	1233.00000
55.44400	1173.00000
55.46100	1194.00000
55.47800	1234.00000
55.49500	1172.00000
55.51200	1182.00000
55.52900	1155.00000
55.54600	1197.00000
55.56300	1150.00000
55.58000	1157.00000
55.59700	1216.00000
55.61400	1222.00000
55.63100	1173.00000
55.64800	1201.00000
55.66500	1255.00000
55.68200	1237.00000
55.69900	1208.00000
55.71600	1196.00000
55.73300	1193.00000
55.75000	1201.00000
55.76700	1198.00000
55.78400	1260.00000
55.80100	1317.00000
55.81800	1257.00000
55.83500	1251.00000
55.85200	1234.00000
55.86900	1276.00000
55.88600	1300.00000
55.90300	1306.00000
55.92000	1239.00000
55.93700	1253.00000
55.95400	1273.00000
55.97100	1203.00000
55.98800	1249.00000
56.00500	1283.00000
56.02200	1253.00000
56.03900	1246.00000
56.05600	1274.00000
56.07300	1307.00000
56.09000	1295.00000
56.10700	1256.00000
56.12400	1301.00000
56.14100	1233.00000
56.15800	1226.00000
56.17500	1241.00000
56.19200	1253.00000
56.20900	1272.00000
56.22600	1303.00000
56.24300	1260.00000
56.26000	1246.00000
56.27700	1267.00000
56.29400	1283.00000
56.31100	1246.00000
56.32800	1240.00000
56.34500	1281.00000
56.36200	1291.00000
56.37900	1301.00000
56.39600	1247.00000
56.41300	1296.00000
56.43000	1308.00000
56.44700	1275.00000
56.46400	1239.00000
56.48100	1188.00000
56.49800	1287.00000
56.51500	1329.00000
56.53200	1328.00000
56.54900	1307.00000
56.56600	1281.00000
56.58300	1243.00000
56.60000	1267.00000
56.61700	1248.00000
56.63400	1276.00000
56.65100	1292.00000
56.66800	1289.00000
56.68500	1300.00000
56.70200	1303.00000
56.71900	1316.00000
56.73600	1346.00000
56.75300	1289.00000
56.77000	1363.00000
56.78700	1304.00000
56.80400	1327.00000
56.82100	1352.00000
56.83800	1375.00000
56.85500	1354.00000
56.87200	1403.00000
56.88900	1328.00000
56.90600	1288.00000
56.92300	1397.00000
56.94000	1416.00000
56.95700	1413.00000
56.97400	1420.00000
56.99100	1417.00000
57.00800	1468.00000
57.02500	1425.00000
57.04200	1516.00000
57.05900	1456.00000
57.07600	1512.00000
57.09300	1557.00000
57.11000	1585.00000
57.12700	1602.00000
57.14400	1640.00000
57.16100	1674.00000
57.17800	1783.00000
57.19500	1786.00000
57.21200	1765.00000
57.22900	1910.00000
57.24600	1932.00000
57.26300	2021.00000
57.28000	2155.00000
57.29700	2237.00000
57.31400	2360.00000
57.33100	2542.00000
57.34800	2731.00000
57.36500	2979.00000
57.38200	3184.00000
57.39900	3465.00000
57.41600	3836.00000
57.43300	4265.00000
57.45000	4508.00000
57.46700	5058.00000
57.48400	5577.00000
57.50100	6018.00000
57.51800	6369.00000
57.53500	6887.00000
57.55200	7379.00000
57.56900	7934.00000
57.58600	8296.00000
57.60300	8655.00000
57.62000	9031.00000
57.63700	9556.00000
57.65400	9989.00000
57.67100	10359.00000
57.68800	10668.00000
57.70500	10995.00000
57.72200	11556.00000
57.73900	11879.00000
57.75600	12439.00000
57.77300	13148.00000
57.79000	13722.00000
57.80700	14471.00000
57.82400	15126.00000
57.84100	16079.00000
57.85800	17079.00000
57.87500	17788.00000
57.89200	18484.00000
57.90900	19283.00000
57.92600	19430.00000
57.94300	19733.00000
57.96000	19807.00000
57.97700	19997.00000
57.99400	19267.00000
58.01100	18581.00000
58.02800	18515.00000
58.04500	17655.00000
58.06200	16717.00000
58.07900	15793.00000
58.09600	14722.00000
58.11300	13600.00000
58.13000	12446.00000
58.14700	11425.00000
58.16400	10372.00000
58.18100	9326.00000
58.19800	8456.00000
58.21500	7506.00000
58.23200	6747.00000
58.24900	5991.00000
58.26600	5228.00000
58.28300	4719.00000
58.30000	4133.00000
58.31700	3705.00000
58.33400	3282.00000
58.35100	3025.00000
58.36800	2797.00000
58.38500	2611.00000
58.40200	2452.00000
58.41900	2262.00000
58.43600	2097.00000
58.45300	2068.00000
58.47000	1939.00000
58.48700	1838.00000
58.50400	1849.00000
58.52100	1747.00000
58.53800	1723.00000
58.55500	1642.00000
58.57200	1584.00000
58.58900	1602.00000
58.60600	1656.00000
58.62300	1535.00000
58.64000	1555.00000
58.65700	1570.00000
58.67400	1518.00000
58.69100	1432.00000
58.70800	1440.00000
58.72500	1428.00000
58.74200	1427.00000
58.75900	1348.00000
58.77600	1478.00000
58.79300	1378.00000
58.81000	1363.00000
58.82700	1319.00000
58.84400	1385.00000
58.86100	1402.00000
58.87800	1297.00000
58.89500	1343.00000
58.91200	1392.00000
58.92900	1344.00000
58.94600	1390.00000
58.96300	1337.00000
58.98000	1306.00000
58.99700	1338.00000
59.01400	1306.00000
59.03100	1281.00000
59.04800	1308.00000
59.06500	1286.00000
59.08200	1257.00000
59.09900	1329.00000
59.11600	1305.00000
59.13300	1242.00000
59.15000	1286.00000
59.16700	1290.00000
59.18400	1237.00000
59.20100	1287.00000
59.21800	1297.00000
59.23500	1260.00000
59.25200	1196.00000
59.26900	1226.00000
59.28600	1245.00000
59.30300	1266.00000
59.32000	1262.00000
59.33700	1191.00000
59.35400	1216.00000
59.37100	1254.00000
59.38800	1244.00000
59.40500	1267.00000
59.42200	1175.00000
59.43900	1165.00000
59.45600	1154.00000
59.47300	1170.00000
59.49000	1234.00000
59.50700	1258.00000
59.52400	1223.00000
59.54100	1261.00000
59.55800	1311.00000
59.57500	1264.00000
59.59200	1220.00000
59.60900	1171.00000
59.62600	1166.00000
59.64300	1161.00000
59.66000	1198.00000
59.67700	1204.00000
59.69400	1229.00000
59.71100	1226.00000
59.72800	1222.00000
59.74500	1196.00000
59.76200	1178.00000
59.77900	1131.00000
59.79600	1282.00000
59.81300	1234.00000
59.83000	1181.00000
59.84700	1193.00000
59.86400	1241.00000
59.88100	1256.00000
59.89800	1171.00000
59.91500	1163.00000
59.93200	1178.00000
59.94900	1239.00000
59.96600	1232.00000
59.98300	1194.00000
60.00000	1247.00000
60.01700	1204.00000
60.03400	1214.00000
60.05100	1243.00000
60.06800	1237.00000
60.08500	1225.00000
60.10200	1201.00000
60.11900	1225.00000
60.13600	1274.00000
60.15300	1257.00000
60.17000	1212.00000
60.18700	1189.00000
60.20400	1223.00000
60.22100	1197.00000
60.23800	1207.00000
60.25500	1224.00000
60.27200	1248.00000
60.28900	1289.00000
60.30600	1256.00000
60.32300	1235.00000
60.34000	1218.00000
60.35700	1196.00000
60.37400	1217.00000
60.39100	1196.00000
60.40800	1220.00000
60.42500	1174.00000
60.44200	1145.00000
60.45900	1208.00000
60.47600	1226.00000
60.49300	1247.00000
60.51000	1187.00000
60.52700	1221.00000
60.54400	1256.00000
60.56100	1223.00000
60.57800	1198.00000
60.59500	1200.00000
60.61200	1245.00000
60.62900	1159.00000
60.64600	1163.00000
60.66300	1235.00000
60.68000	1197.00000
60.69700	1182.00000
60.71400	1186.00000
60.73100	1122.00000
60.74800	1203.00000
60.76500	1141.00000
60.78200	1171.00000
60.79900	1135.00000
60.81600	1181.00000
60.83300	1098.00000
60.85000	1102.00000
60.86700	1104.00000
60.88400	1088.00000
60.90100	1101.00000
60.91800	1099.00000
60.93500	1079.00000
60.95200	1102.00000
60.96900	1034.00000
60.98600	1019.00000
61.00300	1081.00000
61.02000	1133.00000
61.03700	1080.00000
61.05400	1083.00000
61.07100	1072.00000
61.08800	1010.00000
61.10500	1068.00000
61.12200	1073.00000
61.13900	1015.00000
61.15600	1069.00000
61.17300	1114.00000
61.19000	1094.00000
61.20700	1019.00000
61.22400	1019.00000
61.24100	1048.00000
61.25800	1043.00000
61.27500	1068.00000
61.29200	1082.00000
61.30900	1010.00000
61.32600	1028.00000
61.34300	1085.00000
61.36000	1077.00000
61.37700	1073.00000
61.39400	1022.00000
61.41100	1031.00000
61.42800	1071.00000
61.44500	1081.00000
61.46200	1097.00000
61.47900	1061.00000
61.49600	1048.00000
61.51300	1020.00000
61.53000	1049.00000
61.54700	1180.00000
61.56400	1137.00000
61.58100	1064.00000
61.59800	1034.00000
61.61500	1083.00000
61.63200	1094.00000
61.64900	1069.00000
61.66600	1076.00000
61.68300	1129.00000
61.70000	1083.00000
61.71700	1136.00000
61.73400	1066.00000
61.75100	1036.00000
61.76800	1065.00000
61.78500	1087.00000
61.80200	1057.00000
61.81900	1033.00000
61.83600	1024.00000
61.85300	1094.00000
61.87000	1103.00000
61.88700	1098.00000
61.90400	1028.00000
61.92100	1074.00000
61.93800	1123.00000
61.95500	1082.00000
61.97200	1069.00000
61.98900	1103.00000
62.00600	1079.00000
62.02300	1056.00000
62.04000	1077.00000
62.05700	1061.00000
62.07400	1100.00000
62.09100	1105.00000
62.10800	1073.00000
62.12500	1054.00000
62.14200	1023.00000
62.15900	1014.00000
62.17600	1052.00000
62.19300	1089.00000
62.21000	1080.00000
62.22700	1041.00000
62.24400	1053.00000
62.26100	1042.00000
62.27800	1013.00000
62.29500	975.00000
62.31200	999.00000
62.32900	1096.00000
62.34600	1045.00000
62.36300	1015.00000
62.38000	999.00000
62.39700	1041.00000
62.41400	984.00000
62.43100	948.00000
62.44800	990.00000
62.46500	1033.00000
62.48200	1067.00000
62.49900	970.00000
62.51600	983.00000
62.53300	1002.00000
62.55000	1016.00000
62.56700	1006.00000
62.58400	1030.00000
62.60100	1027.00000
62.61800	1026.00000
62.63500	994.00000
62.65200	1004.00000
62.66900	1031.00000
62.68600	957.00000
62.70300	976.00000
62.72000	1018.00000
62.73700	1006.00000
62.75400	961.00000
62.77100	976.00000
62.78800	1003.00000
62.80500	1005.00000
62.82200	969.00000
62.83900	945.00000
62.85600	986.00000
62.87300	1121.00000
62.89000	1029.00000
62.90700	998.00000
62.92400	1004.00000
62.94100	1020.00000
62.95800	996.00000
62.97500	980.00000
62.99200	960.00000
63.00900	1023.00000
63.02600	1001.00000
63.04300	1019.00000
63.06000	1013.00000
63.07700	992.00000
63.09400	1008.00000
63.11100	1023.00000
63.12800	1046.00000
63.14500	1029.00000
63.16200	972.00000
63.17900	986.00000
63.19600	1048.00000
63.21300	1030.00000
63.23000	1015.00000
63.24700	991.00000
63.26400	968.00000
63.28100	991.00000
63.29800	1012.00000
63.31500	994.00000
63.33200	970.00000
63.34900	1008.00000
63.36600	993.00000
63.38300	955.00000
63.40000	976.00000
63.41700	1004.00000
63.43400	988.00000
63.45100	1045.00000
63.46800	961.00000
63.48500	960.00000
63.50200	996.00000
63.51900	988.00000
63.53600	1013.00000
63.55300	993.00000
63.57000	941.00000
63.58700	996.00000
63.60400	954.00000
63.62100	964.00000
63.63800	946.00000
63.65500	1020.00000
63.67200	998.00000
63.68900	957.00000
63.70600	1008.00000
63.72300	989.00000
63.74000	1013.00000
63.75700	1003.00000
63.77400	973.00000
63.79100	961.00000
63.80800	1018.00000
63.82500	1015.00000
63.84200	967.00000
63.85900	934.00000
63.87600	934.00000
63.89300	995.00000
63.91000	965.00000
63.92700	904.00000
63.94400	953.00000
63.96100	963.00000
63.97800	1001.00000
63.99500	966.00000
64.01200	913.00000
64.02900	971.00000
64.04600	1022.00000
64.06300	1002.00000
64.08000	977.00000
64.09700	1045.00000
64.11400	1046.00000
64.13100	961.00000
64.14800	999.00000
64.16500	1020.00000
64.18200	992.00000
64.19900	1000.00000
64.21600	1027.00000
64.23300	1040.00000
64.25000	1001.00000
64.26700	974.00000
64.28400	983.00000
64.30100	1003.00000
64.31800	972.00000
64.33500	958.00000
64.35200	982.00000
64.36900	987.00000
64.38600	972.00000
64.40300	1024.00000
64.42000	1014.00000
64.43700	989.00000
64.45400	1054.00000
64.47100	1043.00000
64.48800	1045.00000
64.50500	975.00000
64.52200	895.00000
64.53900	930.00000
64.55600	978.00000
64.57300	1063.00000
64.59000	1021.00000
64.60700	1047.00000
64.62400	982.00000
64.64100	962.00000
64.65800	1023.00000
64.67500	1022.00000
64.69200	1027.00000
64.70900	1032.00000
64.72600	979.00000
64.74300	1043.00000
64.76000	1020.00000
64.77700	964.00000
64.79400	1036.00000
64.81100	1023.00000
64.82800	1058.00000
64.84500	1059.00000
64.86200	1034.00000
64.87900	986.00000
64.89600	964.00000
64.91300	1037.00000
64.93000	999.00000
64.94700	1015.00000
64.96400	1105.00000
64.98100	1071.00000
64.99800	1011.00000
65.01500	988.00000
65.03200	1034.00000
65.04900	1008.00000
65.06600	993.00000
65.08300	1042.00000
65.10000	1068.00000
65.11700	1036.00000
65.13400	1025.00000
65.15100	1061.00000
65.16800	1034.00000
65.18500	1015.00000
65.20200	1027.00000
65.21900	1069.00000
65.23600	1071.00000
65.25300	1040.00000
65.27000	1082.00000
65.28700	1025.00000
65.30400	1045.00000
65.32100	1048.00000
65.33800	1076.00000
65.35500	1145.00000
65.37200	1117.00000
65.38900	1099.00000
65.40600	1060.00000
65.42300	1066.00000
65.44000	1080.00000
65.45700	1095.00000
65.47400	1135.00000
65.49100	1132.00000
65.50800	1070.00000
65.52500	1056.00000
65.54200	1080.00000
65.55900	1061.00000
65.57600	1038.00000
65.59300	1025.00000
65.61000	999.00000
65.62700	1008.00000
65.64400	1041.00000
65.66100	1091.00000
65.67800	1036.00000
65.69500	1088.00000
65.71200	1084.00000
65.72900	1064.00000
65.74600	1069.00000
65.76300	1074.00000
65.78000	1014.00000
65.79700	1035.00000
65.81400	1032.00000
65.83100	1069.00000
65.84800	1041.00000
65.86500	996.00000
65.88200	1023.00000
65.89900	1054.00000
65.91600	1016.00000
65.93300	1002.00000
65.95000	1024.00000
65.96700	1043.00000
65.98400	1068.00000
66.00100	1040.00000
66.01800	1058.00000
66.03500	1026.00000
66.05200	1018.00000
66.06900	1033.00000
66.08600	1068.00000
66.10300	1069.00000
66.12000	1051.00000
66.13700	1030.00000
66.15400	1071.00000
66.17100	1109.00000
66.18800	1093.00000
66.20500	1053.00000
66.22200	1069.00000
66.23900	1090.00000
66.25600	1028.00000
66.27300	1017.00000
66.29000	1061.00000
66.30700	1063.00000
66.32400	1098.00000
66.34100	1045.00000
66.35800	1028.00000
66.37500	1011.00000
66.39200	1068.00000
66.40900	1068.00000
66.42600	999.00000
66.44300	1047.00000
66.46000	1038.00000
66.47700	1048.00000
66.49400	1057.00000
66.51100	1081.00000
66.52800	1130.00000
66.54500	1059.00000
66.56200	1000.00000
66.57900	1031.00000
66.59600	1087.00000
66.61300	1084.00000
66.63000	1056.00000
66.64700	1092.00000
66.66400	1093.00000
66.68100	1119.00000
66.69800	1061.00000
66.71500	1041.00000
66.73200	1076.00000
66.74900	1136.00000
66.76600	1095.00000
66.78300	1115.00000
66.80000	1186.00000
66.81700	1163.00000
66.83400	1140.00000
66.85100	1120.00000
66.86800	1117.00000
66.88500	1204.00000
66.90200	1165.00000
66.91900	1164.00000
66.93600	1206.00000
66.95300	1221.00000
66.97000	1242.00000
66.98700	1240.00000
67.00400	1249.00000
67.02100	1287.00000
67.03800	1293.00000
67.05500	1305.00000
67.07200	1322.00000
67.08900	1314.00000
67.10600	1349.00000
67.12300	1409.00000
67.14000	1470.00000
67.15700	1541.00000
67.17400	1571.00000
67.19100	1614.00000
67.20800	1641.00000
67.22500	1693.00000
67.24200	1803.00000
67.25900	1915.00000
67.27600	1980.00000
67.29300	2087.00000
67.31000	2040.00000
67.32700	2048.00000
67.34400	2057.00000
67.36100	2183.00000
67.37800	2244.00000
67.39500	2248.00000
67.41200	2408.00000
67.42900	2446.00000
67.44600	2333.00000
67.46300	2450.00000
67.48000	2451.00000
67.49700	2564.00000
67.51400	2569.00000
67.53100	2455.00000
67.54800	2600.00000
67.56500	2512.00000
67.58200	2637.00000
67.59900	2661.00000
67.61600	2654.00000
67.63300	2696.00000
67.65000	2785.00000
67.66700	2903.00000
67.68400	2891.00000
67.70100	3070.00000
67.71800	3160.00000
67.73500	3298.00000
67.75200	3586.00000
67.76900	3901.00000
67.78600	4182.00000
67.80300	4467.00000
67.82000	4945.00000
67.83700	5516.00000
67.85400	6210.00000
67.87100	6834.00000
67.88800	7631.00000
67.90500	8407.00000
67.92200	9133.00000
67.93900	9716.00000
67.95600	10026.00000
67.97300	10313.00000
67.99000	10122.00000
68.00700	9739.00000
68.02400	9704.00000
68.04100	9325.00000
68.05800	8816.00000
68.07500	8392.00000
68.09200	8106.00000
68.10900	7960.00000
68.12600	7633.00000
68.14300	7345.00000
68.16000	7105.00000
68.17700	6651.00000
68.19400	6255.00000
68.21100	5831.00000
68.22800	5289.00000
68.24500	4776.00000
68.26200	4261.00000
68.27900	3774.00000
68.29600	3314.00000
68.31300	3074.00000
68.33000	2706.00000
68.34700	2435.00000
68.36400	2354.00000
68.38100	2095.00000
68.39800	1960.00000
68.41500	1880.00000
68.43200	1850.00000
68.44900	1671.00000
68.46600	1571.00000
68.48300	1490.00000
68.50000	1500.00000
68.51700	1521.00000
68.53400	1460.00000
68.55100	1357.00000
68.56800	1316.00000
68.58500	1305.00000
68.60200	1261.00000
68.61900	1220.00000
68.63600	1186.00000
68.65300	1199.00000
68.67000	1151.00000
68.68700	1120.00000
68.70400	1159.00000
68.72100	1191.00000
68.73800	1281.00000
68.75500	1214.00000
68.77200	1179.00000
68.78900	1155.00000
68.80600	1142.00000
68.82300	1104.00000
68.84000	1152.00000
68.85700	1139.00000
68.87400	1099.00000
68.89100	1097.00000
68.90800	1124.00000
68.92500	1130.00000
68.94200	1128.00000
68.95900	1111.00000
68.97600	1091.00000
68.99300	1077.00000
69.01000	1121.00000
69.02700	1115.00000
69.04400	1074.00000
69.06100	1096.00000
69.07800	1087.00000
69.09500	1099.00000
69.11200	1101.00000
69.12900	1078.00000
69.14600	1056.00000
69.16300	1040.00000
69.18000	1050.00000
69.19700	1049.00000
69.21400	1046.00000
69.23100	1081.00000
69.24800	1042.00000
69.26500	998.00000
69.28200	1033.00000
69.29900	1029.00000
69.31600	1020.00000
69.33300	1048.00000
69.35000	1056.00000
69.36700	1142.00000
69.38400	1134.00000
69.40100	1064.00000
69.41800	1056.00000
69.43500	1094.00000
69.45200	1078.00000
69.46900	1107.00000
69.48600	1073.00000
69.50300	1083.00000
69.52000	1026.00000
69.53700	1011.00000
69.55400	1048.00000
69.57100	1034.00000
69.58800	1079.00000
69.60500	1067.00000
69.62200	1089.00000
69.63900	1080.00000
69.65600	1078.00000
69.67300	1040.00000
69.69000	1042.00000
69.70700	1127.00000
69.72400	1053.00000
69.74100	1016.00000
69.75800	1117.00000
69.77500	1123.00000
69.79200	1106.00000
69.80900	1146.00000
69.82600	1089.00000
69.84300	1084.00000
69.86000	1069.00000
69.87700	1110.00000
69.89400	1122.00000
69.91100	1103.00000
69.92800	1087.00000
69.94500	1090.00000
69.96200	1128.00000
69.97900	1107.00000
69.99600	1122.00000
70.01300	1088.00000
70.03000	1071.00000
70.04700	1096.00000
70.06400	1122.00000
70.08100	1075.00000
70.09800	1146.00000
70.11500	1140.00000
70.13200	1128.00000
70.14900	1149.00000
70.16600	1171.00000
70.18300	1141.00000
70.20000	1118.00000
70.21700	1153.00000
70.23400	1123.00000
70.25100	1168.00000
70.26800	1152.00000
70.28500	1142.00000
70.30200	1140.00000
70.31900	1128.00000
70.33600	1160.00000
70.35300	1166.00000
70.37000	1143.00000
70.38700	1115.00000
70.40400	1138.00000
70.42100	1129.00000
70.43800	1085.00000
70.45500	1156.00000
70.47200	1122.00000
70.48900	1128.00000
70.50600	1141.00000
70.52300	1133.00000
70.54000	1141.00000
70.55700	1156.00000
70.57400	1135.00000
70.59100	1157.00000
70.60800	1121.00000
70.62500	1068.00000
70.64200	1122.00000
70.65900	1096.00000
70.67600	1081.00000
70.69300	1073.00000
70.71000	1072.00000
70.72700	1080.00000
70.74400	1098.00000
70.76100	1127.00000
70.77800	1059.00000
70.79500	1024.00000
70.81200	1092.00000
70.82900	1090.00000
70.84600	1041.00000
70.86300	1022.00000
70.88000	1049.00000
70.89700	1114.00000
70.91400	1066.00000
70.93100	1036.00000
70.94800	1056.00000
70.96500	1031.00000
70.98200	1024.00000
70.99900	1046.00000
71.01600	1089.00000
71.03300	1117.00000
71.05000	1115.00000
71.06700	1100.00000
71.08400	1121.00000
71.10100	1173.00000
71.11800	1104.00000
71.13500	1083.00000
71.15200	1104.00000
71.16900	1108.00000
71.18600	1090.00000
71.20300	1063.00000
71.22000	1113.00000
71.23700	1151.00000
71.25400	1087.00000
71.27100	1181.00000
71.28800	1198.00000
71.30500	1122.00000
71.32200	1119.00000
71.33900	1196.00000
71.35600	1199.00000
71.37300	1137.00000
71.39000	1146.00000
71.40700	1171.00000
71.42400	1164.00000
71.44100	1276.00000
71.45800	1247.00000
71.47500	1226.00000
71.49200	1300.00000
71.50900	1315.00000
71.52600	1289.00000
71.54300	1269.00000
71.56000	1353.00000
71.57700	1327.00000
71.59400	1340.00000
71.61100	1328.00000
71.62800	1392.00000
71.64500	1350.00000
71.66200	1316.00000
71.67900	1390.00000
71.69600	1378.00000
71.71300	1293.00000
71.73000	1420.00000
71.74700	1368.00000
71.76400	1373.00000
71.78100	1460.00000
71.79800	1369.00000
71.81500	1286.00000
71.83200	1320.00000
71.84900	1341.00000
71.86600	1371.00000
71.88300	1359.00000
71.90000	1409.00000
71.91700	1415.00000
71.93400	1463.00000
71.95100	1430.00000
71.96800	1482.00000
71.98500	1479.00000
72.00200	1519.00000
72.01900	1536.00000
72.03600	1602.00000
72.05300	1689.00000
72.07000	1690.00000
72.08700	1753.00000
72.10400	1825.00000
72.12100	1898.00000
72.13800	1962.00000
72.15500	2003.00000
72.17200	2018.00000
72.18900	2037.00000
72.20600	2173.00000
72.22300	2277.00000
72.24000	2329.00000
72.25700	2420.00000
72.27400	2445.00000
72.29100	2499.00000
72.30800	2607.00000
72.32500	2780.00000
72.34200	2850.00000
72.35900	2918.00000
72.37600	3174.00000
72.39300	3243.00000
72.41000	3442.00000
72.42700	3428.00000
72.44400	3628.00000
72.46100	3739.00000
72.47800	3984.00000
72.49500	4148.00000
72.51200	4208.00000
72.52900	4479.00000
72.54600	4569.00000
72.56300	4716.00000
72.58000	4560.00000
72.59700	4702.00000
72.61400	4763.00000
72.63100	4864.00000
72.64800	4987.00000
72.66500	5124.00000
72.68200	5251.00000
72.69900	5299.00000
72.71600	5193.00000
72.73300	5456.00000
72.75000	5397.00000
72.76700	5490.00000
72.78400	5555.00000
72.80100	5448.00000
72.81800	5391.00000
72.83500	5375.00000
72.85200	5260.00000
72.86900	5061.00000
72.88600	4883.00000
72.90300	4804.00000
72.92000	4608.00000
72.93700	4400.00000
72.95400	4307.00000
72.97100	4019.00000
72.98800	3838.00000
73.00500	3751.00000
73.02200	3598.00000
73.03900	3422.00000
73.05600	3239.00000
73.07300	3063.00000
73.09000	2933.00000
73.10700	2763.00000
73.12400	2545.00000
73.14100	2347.00000
73.15800	2255.00000
73.17500	2064.00000
73.19200	1900.00000
73.20900	1837.00000
73.22600	1788.00000
73.24300	1724.00000
73.26000	1625.00000
73.27700	1597.00000
73.29400	1485.00000
73.31100	1412.00000
73.32800	1415.00000
73.34500	1311.00000
73.36200	1327.00000
73.37900	1285.00000
73.39600	1240.00000
73.41300	1226.00000
73.43000	1165.00000
73.44700	1151.00000
73.46400	1135.00000
73.48100	1182.00000
73.49800	1185.00000
73.51500	1160.00000
73.53200	1078.00000
73.54900	1075.00000
73.56600	1107.00000
73.58300	1093.00000
73.60000	1121.00000
73.61700	1093.00000
73.63400	1152.00000
73.65100	1127.00000
73.66800	1076.00000
73.68500	1070.00000
73.70200	1050.00000
73.71900	1033.00000
73.73600	1043.00000
73.75300	1105.00000
73.77000	1087.00000
73.78700	1124.00000
73.80400	1101.00000
73.82100	1039.00000
73.83800	1033.00000
73.85500	1052.00000
73.87200	1041.00000
73.88900	1040.00000
73.90600	1054.00000
73.92300	1122.00000
73.94000	1101.00000
73.95700	1047.00000
73.97400	1006.00000
73.99100	998.00000
74.00800	1043.00000
74.02500	1057.00000
74.04200	1007.00000
74.05900	1021.00000
74.07600	1101.00000
74.09300	1134.00000
74.11000	1100.00000
74.12700	1067.00000
74.14400	1060.00000
74.16100	1049.00000
74.17800	1009.00000
74.19500	1030.00000
74.21200	1041.00000
74.22900	1025.00000
74.24600	997.00000
74.26300	1085.00000
74.28000	1070.00000
74.29700	1032.00000
74.31400	1023.00000
74.33100	1043.00000
74.34800	1083.00000
74.36500	1076.00000
74.38200	1032.00000
74.39900	1102.00000
74.41600	1136.00000
74.43300	1043.00000
74.45000	1051.00000
74.46700	1056.00000
74.48400	1059.00000
74.50100	1045.00000
74.51800	1058.00000
74.53500	1108.00000
74.55200	1108.00000
74.56900	1126.00000
74.58600	1079.00000
74.60300	1046.00000
74.62000	1064.00000
74.63700	1111.00000
74.65400	1067.00000
74.67100	1093.00000
74.68800	1133.00000
74.70500	1150.00000
74.72200	1076.00000
74.73900	1070.00000
74.75600	1026.00000
74.77300	1076.00000
74.79000	1131.00000
74.80700	1128.00000
74.82400	1076.00000
74.84100	1123.00000
74.85800	1132.00000
74.87500	1055.00000
74.89200	1056.00000
74.90900	1111.00000
74.92600	1123.00000
74.94300	1134.00000
74.96000	1089.00000
74.97700	1092.00000
74.99400	1096.00000
75.01100	1135.00000
75.02800	1108.00000
75.04500	1045.00000
75.06200	1134.00000
75.07900	1130.00000
75.09600	1103.00000
75.11300	1156.00000
75.13000	1184.00000
75.14700	1201.00000
75.16400	1141.00000
75.18100	1108.00000
75.19800	1118.00000
75.21500	1079.00000
75.23200	1132.00000
75.24900	1118.00000
75.26600	1065.00000
75.28300	1048.00000
75.30000	1052.00000
75.31700	1051.00000
75.33400	1021.00000
75.35100	1021.00000
75.36800	1065.00000
75.38500	1075.00000
75.40200	1073.00000
75.41900	1088.00000
75.43600	1077.00000
75.45300	1029.00000
75.47000	1051.00000
75.48700	1065.00000
75.50400	1044.00000
75.52100	1080.00000
75.53800	1072.00000
75.55500	1061.00000
75.57200	1048.00000
75.58900	1044.00000
75.60600	1084.00000
75.62300	1054.00000
75.64000	1061.00000
75.65700	1079.00000
75.67400	1094.00000
75.69100	1105.00000
75.70800	1011.00000
75.72500	998.00000
75.74200	1008.00000
75.75900	1019.00000
75.77600	1055.00000
75.79300	1042.00000
75.81000	1017.00000
75.82700	1059.00000
75.84400	1047.00000
75.86100	1057.00000
75.87800	1061.00000
75.89500	1026.00000
75.91200	1064.00000
75.92900	1049.00000
75.94600	1050.00000
75.96300	1031.00000
75.98000	1056.00000
75.99700	1073.00000
76.01400	1065.00000
76.03100	1016.00000
76.04800	1069.00000
76.06500	1085.00000
76.08200	1036.00000
76.09900	1063.00000
76.11600	1107.00000
76.13300	1102.00000
76.15000	1069.00000
76.16700	1036.00000
76.18400	1122.00000
76.20100	1119.00000
76.21800	1099.00000
76.23500	1138.00000
76.25200	1124.00000
76.26900	1112.00000
76.28600	1123.00000
76.30300	1154.00000
76.32000	1090.00000
76.33700	1121.00000
76.35400	1245.00000
76.37100	1174.00000
76.38800	1163.00000
76.40500	1239.00000
76.42200	1221.00000
76.43900	1283.00000
76.45600	1223.00000
76.47300	1310.00000
76.49000	1283.00000
76.50700	1384.00000
76.52400	1360.00000
76.54100	1370.00000
76.55800	1459.00000
76.57500	1517.00000
76.59200	1583.00000
76.60900	1592.00000
76.62600	1699.00000
76.64300	1764.00000
76.66000	1818.00000
76.67700	1823.00000
76.69400	1850.00000
76.71100	1984.00000
76.72800	1952.00000
76.74500	2029.00000
76.76200	2160.00000
76.77900	2244.00000
76.79600	2326.00000
76.81300	2428.00000
76.83000	2499.00000
76.84700	2565.00000
76.86400	2673.00000
76.88100	2948.00000
76.89800	3000.00000
76.91500	3027.00000
76.93200	3277.00000
76.94900	3295.00000
76.96600	3437.00000
76.98300	3607.00000
77.00000	3717.00000
77.01700	3703.00000
77.03400	3794.00000
77.05100	4110.00000
77.06800	4141.00000
77.08500	4103.00000
77.10200	4186.00000
77.11900	4201.00000
77.13600	4261.00000
77.15300	4330.00000
77.17000	4319.00000
77.18700	4379.00000
77.20400	4519.00000
77.22100	4385.00000
77.23800	4366.00000
77.25500	4338.00000
77.27200	4319.00000
77.28900	4202.00000
77.30600	4189.00000
77.32300	4211.00000
77.34000	4012.00000
77.35700	4165.00000
77.37400	3982.00000
77.39100	4199.00000
77.40800	4044.00000
77.42500	4033.00000
77.44200	4131.00000
77.45900	4247.00000
77.47600	4256.00000
77.49300	4355.00000
77.51000	4401.00000
77.52700	4449.00000
77.54400	4582.00000
77.56100	4693.00000
77.57800	4608.00000
77.59500	4494.00000
77.61200	4339.00000
77.62900	4296.00000
77.64600	4164.00000
77.66300	3902.00000
77.68000	3746.00000
77.69700	3613.00000
77.71400	3349.00000
77.73100	3138.00000
77.74800	3082.00000
77.76500	2944.00000
77.78200	2916.00000
77.79900	2908.00000
77.81600	2780.00000
77.83300	2696.00000
77.85000	2626.00000
77.86700	2450.00000
77.88400	2339.00000
77.90100	2212.00000
77.91800	1998.00000
77.93500	1926.00000
77.95200	1771.00000
77.96900	1584.00000
77.98600	1575.00000
78.00300	1534.00000
78.02000	1421.00000
78.03700	1391.00000
78.05400	1390.00000
78.07100	1273.00000
78.08800	1289.00000
78.10500	1282.00000
78.12200	1288.00000
78.13900	1263.00000
78.15600	1225.00000
78.17300	1209.00000
78.19000	1150.00000
78.20700	1177.00000
78.22400	1219.00000
78.24100	1229.00000
78.25800	1186.00000
78.27500	1195.00000
78.29200	1117.00000
78.30900	1116.00000
78.32600	1125.00000
78.34300	1176.00000
78.36000	1051.00000
78.37700	1113.00000
78.39400	1100.00000
78.41100	1099.00000
78.42800	1105.00000
78.44500	1138.00000
78.46200	1136.00000
78.47900	1067.00000
78.49600	1106.00000
78.51300	1075.00000
78.53000	1050.00000
78.54700	1069.00000
78.56400	1043.00000
78.58100	1048.00000
78.59800	1064.00000
78.61500	1062.00000
78.63200	1035.00000
78.64900	1087.00000
78.66600	1078.00000
78.68300	1009.00000
78.70000	1060.00000
78.71700	1035.00000
78.73400	1043.00000
78.75100	1057.00000
78.76800	1066.00000
78.78500	1066.00000
78.80200	1045.00000
78.81900	981.00000
78.83600	999.00000
78.85300	1034.00000
78.87000	1011.00000
78.88700	1045.00000
78.90400	987.00000
78.92100	979.00000
78.93800	1005.00000
78.95500	975.00000
78.97200	981.00000
78.98900	1002.00000
79.00600	1043.00000
79.02300	1040.00000
79.04000	1013.00000
79.05700	1023.00000
79.07400	1044.00000
79.09100	1060.00000
79.10800	1036.00000
79.12500	1036.00000
79.14200	1029.00000
79.15900	1028.00000
79.17600	1036.00000
79.19300	1023.00000
79.21000	1035.00000
79.22700	1008.00000
79.24400	1052.00000
79.26100	978.00000
79.27800	992.00000
79.29500	1013.00000
79.31200	1016.00000
79.32900	1027.00000
79.34600	1002.00000
79.36300	1051.00000
79.38000	1066.00000
79.39700	1034.00000
79.41400	1022.00000
79.43100	1006.00000
79.44800	998.00000
79.46500	1063.00000
79.48200	1031.00000
79.49900	1018.00000
79.51600	1059.00000
79.53300	1068.00000
79.55000	1025.00000
79.56700	1064.00000
79.58400	1080.00000
79.60100	1115.00000
79.61800	1042.00000
79.63500	982.00000
79.65200	1026.00000
79.66900	1053.00000
79.68600	1034.00000
79.70300	1003.00000
79.72000	1050.00000
79.73700	1055.00000
79.75400	1008.00000
79.77100	1007.00000
79.78800	1012.00000
79.80500	1070.00000
79.82200	1031.00000
79.83900	985.00000
79.85600	1031.00000
79.87300	1037.00000
79.89000	1027.00000
79.90700	1013.00000
79.92400	967.00000
79.94100	970.00000
79.95800	1010.00000
79.97500	1026.00000
79.99200	1051.00000
80.00900	1029.00000
