3.90000	7293.00000
3.91000	7371.00000
3.92000	7358.00000
3.93000	7364.00000
3.94000	7382.00000
3.95000	7411.00000
3.96000	7327.00000
3.97000	7359.00000
3.98000	7336.00000
3.99000	7353.00000
4.00000	7375.00000
4.01000	7448.00000
4.02000	7365.00000
4.03000	7403.00000
4.04000	7364.00000
4.05000	7339.00000
4.06000	7392.00000
4.07000	7431.00000
4.08000	7368.00000
4.09000	7404.00000
4.10000	7390.00000
4.11000	7401.00000
4.12000	7439.00000
4.13000	7412.00000
4.14000	7378.00000
4.15000	7378.00000
4.16000	7336.00000
4.17000	7382.00000
4.18000	7424.00000
4.19000	7412.00000
4.20000	7354.00000
4.21000	7363.00000
4.22000	7363.00000
4.23000	7359.00000
4.24000	7458.00000
4.25000	7363.00000
4.26000	7339.00000
4.27000	7406.00000
4.28000	7382.00000
4.29000	7379.00000
4.30000	7420.00000
4.31000	7397.00000
4.32000	7338.00000
4.33000	7379.00000
4.34000	7373.00000
4.35000	7361.00000
4.36000	7434.00000
4.37000	7401.00000
4.38000	7383.00000
4.39000	7391.00000
4.40000	7411.00000
4.41000	7395.00000
4.42000	7383.00000
4.43000	7395.00000
4.44000	7351.00000
4.45000	7412.00000
4.46000	7374.00000
4.47000	7407.00000
4.48000	7398.00000
4.49000	7427.00000
4.50000	7352.00000
4.51000	7428.00000
4.52000	7457.00000
4.53000	7393.00000
4.54000	7409.00000
4.55000	7463.00000
4.56000	7389.00000
4.57000	7401.00000
4.58000	7420.00000
4.59000	7445.00000
4.60000	7443.00000
4.61000	7478.00000
4.62000	7439.00000
4.63000	7471.00000
4.64000	7480.00000
4.65000	7560.00000
4.66000	7583.00000
4.67000	7586.00000
4.68000	7510.00000
4.69000	7507.00000
4.70000	7514.00000
4.71000	7466.00000
4.72000	7533.00000
4.73000	7444.00000
4.74000	7448.00000
4.75000	7438.00000
4.76000	7443.00000
4.77000	7437.00000
4.78000	7460.00000
4.79000	7468.00000
4.80000	7445.00000
4.81000	7436.00000
4.82000	7438.00000
4.83000	7448.00000
4.84000	7468.00000
4.85000	7519.00000
4.86000	7459.00000
4.87000	7551.00000
4.88000	7526.00000
4.89000	7578.00000
4.90000	7646.00000
4.91000	7736.00000
4.92000	7874.00000
4.93000	8159.00000
4.94000	8643.00000
4.95000	9556.00000
4.96000	11074.00000
4.97000	12642.00000
4.98000	13104.00000
4.99000	12033.00000
5.00000	10132.00000
5.01000	8676.00000
5.02000	8027.00000
5.03000	7704.00000
5.04000	7549.00000
5.05000	7490.00000
5.06000	7449.00000
5.07000	7418.00000
5.08000	7454.00000
5.09000	7443.00000
5.10000	7403.00000
5.11000	7419.00000
5.12000	7411.00000
5.13000	7382.00000
5.14000	7415.00000
5.15000	7398.00000
5.16000	7405.00000
5.17000	7425.00000
5.18000	7422.00000
5.19000	7416.00000
5.20000	7384.00000
5.21000	7381.00000
5.22000	7357.00000
5.23000	7360.00000
5.24000	7374.00000
5.25000	7365.00000
5.26000	7404.00000
5.27000	7422.00000
5.28000	7398.00000
5.29000	7381.00000
5.30000	7413.00000
5.31000	7417.00000
5.32000	7421.00000
5.33000	7394.00000
5.34000	7382.00000
5.35000	7358.00000
5.36000	7372.00000
5.37000	7405.00000
5.38000	7464.00000
5.39000	7438.00000
5.40000	7392.00000
5.41000	7446.00000
5.42000	7380.00000
5.43000	7427.00000
5.44000	7411.00000
5.45000	7431.00000
5.46000	7372.00000
5.47000	7395.00000
5.48000	7390.00000
5.49000	7414.00000
5.50000	7428.00000
5.51000	7461.00000
5.52000	7471.00000
5.53000	7459.00000
5.54000	7410.00000
5.55000	7443.00000
5.56000	7443.00000
5.57000	7461.00000
5.58000	7450.00000
5.59000	7438.00000
5.60000	7454.00000
5.61000	7417.00000
5.62000	7477.00000
5.63000	7462.00000
5.64000	7454.00000
5.65000	7464.00000
5.66000	7487.00000
5.67000	7452.00000
5.68000	7475.00000
5.69000	7493.00000
5.70000	7446.00000
5.71000	7453.00000
5.72000	7426.00000
5.73000	7418.00000
5.74000	7419.00000
5.75000	7441.00000
5.76000	7421.00000
5.77000	7503.00000
5.78000	7457.00000
5.79000	7475.00000
5.80000	7490.00000
5.81000	7484.00000
5.82000	7472.00000
5.83000	7515.00000
5.84000	7511.00000
5.85000	7463.00000
5.86000	7440.00000
5.87000	7493.00000
5.88000	7460.00000
5.89000	7522.00000
5.90000	7527.00000
5.91000	7519.00000
5.92000	7583.00000
5.93000	7508.00000
5.94000	7436.00000
5.95000	7467.00000
5.96000	7481.00000
5.97000	7482.00000
5.98000	7492.00000
5.99000	7499.00000
6.00000	7493.00000
6.01000	7502.00000
6.02000	7482.00000
6.03000	7479.00000
6.04000	7541.00000
6.05000	7503.00000
6.06000	7470.00000
6.07000	7514.00000
6.08000	7520.00000
6.09000	7513.00000
6.10000	7526.00000
6.11000	7534.00000
6.12000	7496.00000
6.13000	7574.00000
6.14000	7561.00000
6.15000	7519.00000
6.16000	7577.00000
6.17000	7557.00000
6.18000	7530.00000
6.19000	7552.00000
6.20000	7554.00000
6.21000	7533.00000
6.22000	7567.00000
6.23000	7611.00000
6.24000	7560.00000
6.25000	7583.00000
6.26000	7592.00000
6.27000	7574.00000
6.28000	7573.00000
6.29000	7551.00000
6.30000	7530.00000
6.31000	7581.00000
6.32000	7584.00000
6.33000	7590.00000
6.34000	7586.00000
6.35000	7619.00000
6.36000	7545.00000
6.37000	7581.00000
6.38000	7637.00000
6.39000	7615.00000
6.40000	7622.00000
6.41000	7623.00000
6.42000	7576.00000
6.43000	7610.00000
6.44000	7621.00000
6.45000	7577.00000
6.46000	7628.00000
6.47000	7633.00000
6.48000	7607.00000
6.49000	7657.00000
6.50000	7605.00000
6.51000	7639.00000
6.52000	7636.00000
6.53000	7662.00000
6.54000	7614.00000
6.55000	7679.00000
6.56000	7642.00000
6.57000	7630.00000
6.58000	7678.00000
6.59000	7687.00000
6.60000	7670.00000
6.61000	7718.00000
6.62000	7644.00000
6.63000	7681.00000
6.64000	7711.00000
6.65000	7658.00000
6.66000	7658.00000
6.67000	7668.00000
6.68000	7683.00000
6.69000	7704.00000
6.70000	7749.00000
6.71000	7750.00000
6.72000	7726.00000
6.73000	7775.00000
6.74000	7799.00000
6.75000	7770.00000
6.76000	7783.00000
6.77000	7845.00000
6.78000	7791.00000
6.79000	7858.00000
6.80000	7847.00000
6.81000	7883.00000
6.82000	7950.00000
6.83000	8048.00000
6.84000	8103.00000
6.85000	8318.00000
6.86000	8550.00000
6.87000	8933.00000
6.88000	9534.00000
6.89000	10394.00000
6.90000	11433.00000
6.91000	12954.00000
6.92000	14269.00000
6.93000	15163.00000
6.94000	14982.00000
6.95000	13992.00000
6.96000	12489.00000
6.97000	11241.00000
6.98000	10216.00000
6.99000	9475.00000
7.00000	9002.00000
7.01000	8687.00000
7.02000	8432.00000
7.03000	8281.00000
7.04000	8228.00000
7.05000	8074.00000
7.06000	8042.00000
7.07000	8013.00000
7.08000	7937.00000
7.09000	7974.00000
7.10000	7934.00000
7.11000	7905.00000
7.12000	7888.00000
7.13000	7903.00000
7.14000	7878.00000
7.15000	7876.00000
7.16000	7933.00000
7.17000	7874.00000
7.18000	7932.00000
7.19000	7888.00000
7.20000	7906.00000
7.21000	7917.00000
7.22000	7882.00000
7.23000	7865.00000
7.24000	7870.00000
7.25000	7863.00000
7.26000	7851.00000
7.27000	7896.00000
7.28000	7860.00000
7.29000	7876.00000
7.30000	7908.00000
7.31000	7928.00000
7.32000	7856.00000
7.33000	7888.00000
7.34000	7848.00000
7.35000	7898.00000
7.36000	7907.00000
7.37000	7892.00000
7.38000	7856.00000
7.39000	7950.00000
7.40000	7896.00000
7.41000	7919.00000
7.42000	7972.00000
7.43000	8024.00000
7.44000	7918.00000
7.45000	7968.00000
7.46000	7963.00000
7.47000	7973.00000
7.48000	7978.00000
7.49000	7979.00000
7.50000	8016.00000
7.51000	8085.00000
7.52000	8119.00000
7.53000	8160.00000
7.54000	8223.00000
7.55000	8154.00000
7.56000	8102.00000
7.57000	8098.00000
7.58000	8103.00000
7.59000	8008.00000
7.60000	8056.00000
7.61000	7996.00000
7.62000	7967.00000
7.63000	7995.00000
7.64000	7977.00000
7.65000	8003.00000
7.66000	8049.00000
7.67000	8056.00000
7.68000	8042.00000
7.69000	8060.00000
7.70000	8040.00000
7.71000	8059.00000
7.72000	8103.00000
7.73000	8115.00000
7.74000	8121.00000
7.75000	8077.00000
7.76000	8103.00000
7.77000	8092.00000
7.78000	8108.00000
7.79000	8119.00000
7.80000	8116.00000
7.81000	8140.00000
7.82000	8185.00000
7.83000	8214.00000
7.84000	8243.00000
7.85000	8243.00000
7.86000	8247.00000
7.87000	8286.00000
7.88000	8293.00000
7.89000	8329.00000
7.90000	8333.00000
7.91000	8426.00000
7.92000	8378.00000
7.93000	8415.00000
7.94000	8462.00000
7.95000	8528.00000
7.96000	8634.00000
7.97000	8696.00000
7.98000	8730.00000
7.99000	8829.00000
8.00000	8949.00000
8.01000	9109.00000
8.02000	9293.00000
8.03000	9517.00000
8.04000	9747.00000
8.05000	10171.00000
8.06000	10699.00000
8.07000	11423.00000
8.08000	12592.00000
8.09000	14111.00000
8.10000	16390.00000
8.11000	20026.00000
8.12000	25607.00000
8.13000	33281.00000
8.14000	43704.00000
8.15000	54751.00000
8.16000	62590.00000
8.17000	63158.00000
8.18000	56004.00000
8.19000	44525.00000
8.20000	33571.00000
8.21000	25091.00000
8.22000	19293.00000
8.23000	15741.00000
8.24000	13405.00000
8.25000	11985.00000
8.26000	11036.00000
8.27000	10367.00000
8.28000	9882.00000
8.29000	9604.00000
8.30000	9396.00000
8.31000	9243.00000
8.32000	9157.00000
8.33000	9068.00000
8.34000	8970.00000
8.35000	8975.00000
8.36000	8981.00000
8.37000	8987.00000
8.38000	9045.00000
8.39000	9156.00000
8.40000	9263.00000
8.41000	9486.00000
8.42000	9757.00000
8.43000	10210.00000
8.44000	11015.00000
8.45000	12214.00000
8.46000	14027.00000
8.47000	16742.00000
8.48000	20496.00000
8.49000	24427.00000
8.50000	27479.00000
8.51000	27335.00000
8.52000	24221.00000
8.53000	19876.00000
8.54000	15953.00000
8.55000	13207.00000
8.56000	11492.00000
8.57000	10374.00000
8.58000	9695.00000
8.59000	9317.00000
8.60000	9031.00000
8.61000	8855.00000
8.62000	8812.00000
8.63000	8670.00000
8.64000	8564.00000
8.65000	8529.00000
8.66000	8494.00000
8.67000	8463.00000
8.68000	8496.00000
8.69000	8488.00000
8.70000	8437.00000
8.71000	8474.00000
8.72000	8429.00000
8.73000	8391.00000
8.74000	8387.00000
8.75000	8386.00000
8.76000	8338.00000
8.77000	8417.00000
8.78000	8394.00000
8.79000	8380.00000
8.80000	8405.00000
8.81000	8354.00000
8.82000	8361.00000
8.83000	8412.00000
8.84000	8414.00000
8.85000	8416.00000
8.86000	8416.00000
8.87000	8459.00000
8.88000	8400.00000
8.89000	8487.00000
8.90000	8484.00000
8.91000	8465.00000
8.92000	8478.00000
8.93000	8431.00000
8.94000	8394.00000
8.95000	8446.00000
8.96000	8475.00000
8.97000	8457.00000
8.98000	8512.00000
8.99000	8516.00000
9.00000	8446.00000
9.01000	8552.00000
9.02000	8538.00000
9.03000	8457.00000
9.04000	8573.00000
9.05000	8557.00000
9.06000	8558.00000
9.07000	8589.00000
9.08000	8606.00000
9.09000	8657.00000
9.10000	8674.00000
9.11000	8712.00000
9.12000	8715.00000
9.13000	8734.00000
9.14000	8728.00000
9.15000	8751.00000
9.16000	8784.00000
9.17000	8842.00000
9.18000	8844.00000
9.19000	8898.00000
9.20000	8873.00000
9.21000	8926.00000
9.22000	9054.00000
9.23000	9091.00000
9.24000	9076.00000
9.25000	9165.00000
9.26000	9276.00000
9.27000	9320.00000
9.28000	9398.00000
9.29000	9468.00000
9.30000	9543.00000
9.31000	9816.00000
9.32000	9946.00000
9.33000	10265.00000
9.34000	10597.00000
9.35000	11065.00000
9.36000	11547.00000
9.37000	12527.00000
9.38000	13889.00000
9.39000	16166.00000
9.40000	19929.00000
9.41000	25923.00000
9.42000	35534.00000
9.43000	49656.00000
9.44000	67394.00000
9.45000	82635.00000
9.46000	86605.00000
9.47000	75702.00000
9.48000	57399.00000
9.49000	40825.00000
9.50000	29407.00000
9.51000	22459.00000
9.52000	18454.00000
9.53000	15994.00000
9.54000	14404.00000
9.55000	13510.00000
9.56000	13055.00000
9.57000	12825.00000
9.58000	12798.00000
9.59000	12847.00000
9.60000	13013.00000
9.61000	13394.00000
9.62000	13859.00000
9.63000	14514.00000
9.64000	15361.00000
9.65000	16486.00000
9.66000	17808.00000
9.67000	19844.00000
9.68000	22585.00000
9.69000	26748.00000
9.70000	33090.00000
9.71000	43177.00000
9.72000	58614.00000
9.73000	84501.00000
9.74000	126228.00000
9.75000	190438.00000
9.76000	276928.00000
9.77000	365319.00000
9.78000	406606.00000
9.79000	378324.00000
9.80000	290467.00000
9.81000	198495.00000
9.82000	130175.00000
9.83000	87012.00000
9.84000	60757.00000
9.85000	46333.00000
9.86000	37839.00000
9.87000	33505.00000
9.88000	32053.00000
9.89000	32461.00000
9.90000	34619.00000
9.91000	40280.00000
9.92000	52192.00000
9.93000	75817.00000
9.94000	118838.00000
9.95000	183246.00000
9.96000	243816.00000
9.97000	255927.00000
9.98000	208911.00000
9.99000	136171.00000
10.00000	78704.00000
10.01000	46737.00000
10.02000	30598.00000
10.03000	22505.00000
10.04000	18132.00000
10.05000	15497.00000
10.06000	13978.00000
10.07000	12867.00000
10.08000	12072.00000
10.09000	11508.00000
10.10000	11087.00000
10.11000	10738.00000
10.12000	10584.00000
10.13000	10389.00000
10.14000	10146.00000
10.15000	9934.00000
10.16000	9814.00000
10.17000	9696.00000
10.18000	9635.00000
10.19000	9523.00000
10.20000	9388.00000
10.21000	9307.00000
10.22000	9235.00000
10.23000	9193.00000
10.24000	9179.00000
10.25000	9079.00000
10.26000	9005.00000
10.27000	9013.00000
10.28000	8928.00000
10.29000	8936.00000
10.30000	8845.00000
10.31000	8820.00000
10.32000	8782.00000
10.33000	8862.00000
10.34000	8785.00000
10.35000	8808.00000
10.36000	8767.00000
10.37000	8712.00000
10.38000	8672.00000
10.39000	8720.00000
10.40000	8675.00000
10.41000	8647.00000
10.42000	8638.00000
10.43000	8603.00000
10.44000	8550.00000
10.45000	8566.00000
10.46000	8546.00000
10.47000	8583.00000
10.48000	8583.00000
10.49000	8535.00000
10.50000	8476.00000
10.51000	8510.00000
10.52000	8483.00000
10.53000	8431.00000
10.54000	8472.00000
10.55000	8435.00000
10.56000	8441.00000
10.57000	8430.00000
10.58000	8391.00000
10.59000	8388.00000
10.60000	8382.00000
10.61000	8402.00000
10.62000	8382.00000
10.63000	8378.00000
10.64000	8415.00000
10.65000	8425.00000
10.66000	8507.00000
10.67000	8488.00000
10.68000	8496.00000
10.69000	8553.00000
10.70000	8500.00000
10.71000	8452.00000
10.72000	8435.00000
10.73000	8389.00000
10.74000	8307.00000
10.75000	8303.00000
10.76000	8280.00000
10.77000	8250.00000
10.78000	8287.00000
10.79000	8293.00000
10.80000	8224.00000
10.81000	8299.00000
10.82000	8274.00000
10.83000	8302.00000
10.84000	8337.00000
10.85000	8359.00000
10.86000	8332.00000
10.87000	8342.00000
10.88000	8290.00000
10.89000	8249.00000
10.90000	8272.00000
10.91000	8274.00000
10.92000	8209.00000
10.93000	8208.00000
10.94000	8275.00000
10.95000	8232.00000
10.96000	8241.00000
10.97000	8238.00000
10.98000	8232.00000
10.99000	8168.00000
11.00000	8207.00000
11.01000	8111.00000
11.02000	8193.00000
11.03000	8180.00000
11.04000	8140.00000
11.05000	8143.00000
11.06000	8174.00000
11.07000	8105.00000
11.08000	8208.00000
11.09000	8175.00000
11.10000	8143.00000
11.11000	8165.00000
11.12000	8121.00000
11.13000	8108.00000
11.14000	8116.00000
11.15000	8120.00000
11.16000	8062.00000
11.17000	8094.00000
11.18000	8105.00000
11.19000	8083.00000
11.20000	8118.00000
11.21000	8094.00000
11.22000	8068.00000
11.23000	8060.00000
11.24000	8083.00000
11.25000	8036.00000
11.26000	8028.00000
11.27000	8051.00000
11.28000	8010.00000
11.29000	8061.00000
11.30000	8033.00000
11.31000	8067.00000
11.32000	8059.00000
11.33000	8079.00000
11.34000	8006.00000
11.35000	8022.00000
11.36000	8028.00000
11.37000	8066.00000
11.38000	8077.00000
11.39000	8107.00000
11.40000	8122.00000
11.41000	8189.00000
11.42000	8173.00000
11.43000	8106.00000
11.44000	8095.00000
11.45000	8098.00000
11.46000	8057.00000
11.47000	8029.00000
11.48000	8080.00000
11.49000	8048.00000
11.50000	8077.00000
11.51000	8031.00000
11.52000	8017.00000
11.53000	8055.00000
11.54000	8030.00000
11.55000	8065.00000
11.56000	8076.00000
11.57000	8095.00000
11.58000	8020.00000
11.59000	8049.00000
11.60000	8073.00000
11.61000	8088.00000
11.62000	8127.00000
11.63000	8165.00000
11.64000	8107.00000
11.65000	8176.00000
11.66000	8185.00000
11.67000	8207.00000
11.68000	8237.00000
11.69000	8300.00000
11.70000	8226.00000
11.71000	8294.00000
11.72000	8316.00000
11.73000	8359.00000
11.74000	8383.00000
11.75000	8427.00000
11.76000	8405.00000
11.77000	8492.00000
11.78000	8541.00000
11.79000	8608.00000
11.80000	8720.00000
11.81000	8825.00000
11.82000	8876.00000
11.83000	9108.00000
11.84000	9287.00000
11.85000	9539.00000
11.86000	9948.00000
11.87000	10430.00000
11.88000	10934.00000
11.89000	11321.00000
11.90000	11547.00000
11.91000	11632.00000
11.92000	11715.00000
11.93000	11896.00000
11.94000	12266.00000
11.95000	13003.00000
11.96000	14142.00000
11.97000	15727.00000
11.98000	18074.00000
11.99000	21494.00000
12.00000	26661.00000
12.01000	34743.00000
12.02000	47164.00000
12.03000	65734.00000
12.04000	91082.00000
12.05000	119500.00000
12.06000	139278.00000
12.07000	140866.00000
12.08000	122957.00000
12.09000	96161.00000
12.10000	73688.00000
12.11000	58741.00000
12.12000	49634.00000
12.13000	43577.00000
12.14000	37119.00000
12.15000	30431.00000
12.16000	24547.00000
12.17000	20035.00000
12.18000	16697.00000
12.19000	14548.00000
12.20000	13052.00000
12.21000	11986.00000
12.22000	11288.00000
12.23000	10709.00000
12.24000	10240.00000
12.25000	9963.00000
12.26000	9687.00000
12.27000	9544.00000
12.28000	9345.00000
12.29000	9255.00000
12.30000	9082.00000
12.31000	8992.00000
12.32000	8893.00000
12.33000	8817.00000
12.34000	8764.00000
12.35000	8705.00000
12.36000	8623.00000
12.37000	8580.00000
12.38000	8483.00000
12.39000	8510.00000
12.40000	8530.00000
12.41000	8493.00000
12.42000	8474.00000
12.43000	8477.00000
12.44000	8415.00000
12.45000	8373.00000
12.46000	8450.00000
12.47000	8390.00000
12.48000	8373.00000
12.49000	8379.00000
12.50000	8326.00000
12.51000	8309.00000
12.52000	8345.00000
12.53000	8294.00000
12.54000	8299.00000
12.55000	8327.00000
12.56000	8357.00000
12.57000	8389.00000
12.58000	8389.00000
12.59000	8381.00000
12.60000	8350.00000
12.61000	8373.00000
12.62000	8393.00000
12.63000	8416.00000
12.64000	8432.00000
12.65000	8447.00000
12.66000	8418.00000
12.67000	8457.00000
12.68000	8469.00000
12.69000	8475.00000
12.70000	8514.00000
12.71000	8582.00000
12.72000	8561.00000
12.73000	8652.00000
12.74000	8745.00000
12.75000	8800.00000
12.76000	8922.00000
12.77000	9028.00000
12.78000	9062.00000
12.79000	9255.00000
12.80000	9368.00000
12.81000	9568.00000
12.82000	9765.00000
12.83000	10100.00000
12.84000	10413.00000
12.85000	10901.00000
12.86000	11465.00000
12.87000	12243.00000
12.88000	13241.00000
12.89000	14437.00000
12.90000	15875.00000
12.91000	17642.00000
12.92000	19726.00000
12.93000	21840.00000
12.94000	24134.00000
12.95000	25745.00000
12.96000	26427.00000
12.97000	26102.00000
12.98000	24822.00000
12.99000	22979.00000
13.00000	21080.00000
13.01000	19180.00000
13.02000	17448.00000
13.03000	16163.00000
13.04000	15203.00000
13.05000	14456.00000
13.06000	14013.00000
13.07000	13798.00000
13.08000	13657.00000
13.09000	13905.00000
13.10000	14159.00000
13.11000	14790.00000
13.12000	15797.00000
13.13000	16965.00000
13.14000	18404.00000
13.15000	20393.00000
13.16000	22429.00000
13.17000	24708.00000
13.18000	26762.00000
13.19000	28177.00000
13.20000	28386.00000
13.21000	27584.00000
13.22000	25788.00000
13.23000	23444.00000
13.24000	21101.00000
13.25000	18913.00000
13.26000	16893.00000
13.27000	15369.00000
13.28000	13978.00000
13.29000	12959.00000
13.30000	12141.00000
13.31000	11584.00000
13.32000	11036.00000
13.33000	10702.00000
13.34000	10375.00000
13.35000	10101.00000
13.36000	9903.00000
13.37000	9720.00000
13.38000	9536.00000
13.39000	9503.00000
13.40000	9391.00000
13.41000	9308.00000
13.42000	9309.00000
13.43000	9289.00000
13.44000	9237.00000
13.45000	9243.00000
13.46000	9240.00000
13.47000	9174.00000
13.48000	9278.00000
13.49000	9329.00000
13.50000	9249.00000
13.51000	9323.00000
13.52000	9386.00000
13.53000	9422.00000
13.54000	9522.00000
13.55000	9650.00000
13.56000	9703.00000
13.57000	9846.00000
13.58000	10038.00000
13.59000	10276.00000
13.60000	10562.00000
13.61000	10858.00000
13.62000	11072.00000
13.63000	11536.00000
13.64000	12095.00000
13.65000	12899.00000
13.66000	13877.00000
13.67000	15171.00000
13.68000	16732.00000
13.69000	19249.00000
13.70000	22653.00000
13.71000	27725.00000
13.72000	35040.00000
13.73000	44921.00000
13.74000	56403.00000
13.75000	68211.00000
13.76000	75853.00000
13.77000	79029.00000
13.78000	79347.00000
13.79000	78949.00000
13.80000	77771.00000
13.81000	74665.00000
13.82000	68036.00000
13.83000	58903.00000
13.84000	49061.00000
13.85000	40243.00000
13.86000	32837.00000
13.87000	27098.00000
13.88000	22912.00000
13.89000	19779.00000
13.90000	17523.00000
13.91000	15867.00000
13.92000	14451.00000
13.93000	13409.00000
13.94000	12695.00000
13.95000	12119.00000
13.96000	11765.00000
13.97000	11625.00000
13.98000	11524.00000
13.99000	11739.00000
14.00000	12237.00000
14.01000	13201.00000
14.02000	14784.00000
14.03000	17140.00000
14.04000	19903.00000
14.05000	22660.00000
14.06000	23608.00000
14.07000	22388.00000
14.08000	19624.00000
14.09000	16503.00000
14.10000	13842.00000
14.11000	12204.00000
14.12000	11020.00000
14.13000	10368.00000
14.14000	9819.00000
14.15000	9596.00000
14.16000	9284.00000
14.17000	9120.00000
14.18000	9019.00000
14.19000	8887.00000
14.20000	8810.00000
14.21000	8853.00000
14.22000	8713.00000
14.23000	8667.00000
14.24000	8632.00000
14.25000	8634.00000
14.26000	8671.00000
14.27000	8655.00000
14.28000	8591.00000
14.29000	8606.00000
14.30000	8550.00000
14.31000	8561.00000
14.32000	8600.00000
14.33000	8568.00000
14.34000	8551.00000
14.35000	8529.00000
14.36000	8543.00000
14.37000	8524.00000
14.38000	8553.00000
14.39000	8508.00000
14.40000	8457.00000
14.41000	8435.00000
14.42000	8448.00000
14.43000	8445.00000
14.44000	8513.00000
14.45000	8454.00000
14.46000	8433.00000
14.47000	8487.00000
14.48000	8472.00000
14.49000	8512.00000
14.50000	8524.00000
14.51000	8580.00000
14.52000	8484.00000
14.53000	8558.00000
14.54000	8513.00000
14.55000	8543.00000
14.56000	8588.00000
14.57000	8625.00000
14.58000	8620.00000
14.59000	8647.00000
14.60000	8678.00000
14.61000	8708.00000
14.62000	8724.00000
14.63000	8847.00000
14.64000	8851.00000
14.65000	8973.00000
14.66000	9085.00000
14.67000	9186.00000
14.68000	9236.00000
14.69000	9322.00000
14.70000	9295.00000
14.71000	9362.00000
14.72000	9405.00000
14.73000	9525.00000
14.74000	9643.00000
14.75000	9791.00000
14.76000	9963.00000
14.77000	10315.00000
14.78000	10613.00000
14.79000	11053.00000
14.80000	11704.00000
14.81000	12501.00000
14.82000	13372.00000
14.83000	14701.00000
14.84000	16413.00000
14.85000	18332.00000
14.86000	20942.00000
14.87000	23810.00000
14.88000	26889.00000
14.89000	29975.00000
14.90000	32016.00000
14.91000	32940.00000
14.92000	33008.00000
14.93000	32215.00000
14.94000	31503.00000
14.95000	31344.00000
14.96000	31303.00000
14.97000	30862.00000
14.98000	29678.00000
14.99000	27561.00000
15.00000	24551.00000
15.01000	21670.00000
15.02000	19084.00000
15.03000	16995.00000
15.04000	15223.00000
15.05000	13917.00000
15.06000	12778.00000
15.07000	12065.00000
15.08000	11511.00000
15.09000	11051.00000
15.10000	10657.00000
15.11000	10323.00000
15.12000	10013.00000
15.13000	9804.00000
15.14000	9693.00000
15.15000	9457.00000
15.16000	9457.00000
15.17000	9314.00000
15.18000	9215.00000
15.19000	9172.00000
15.20000	9145.00000
15.21000	9184.00000
15.22000	9212.00000
15.23000	9071.00000
15.24000	9027.00000
15.25000	9031.00000
15.26000	9002.00000
15.27000	8988.00000
15.28000	9055.00000
15.29000	9082.00000
15.30000	9048.00000
15.31000	9168.00000
15.32000	9250.00000
15.33000	9250.00000
15.34000	9358.00000
15.35000	9396.00000
15.36000	9502.00000
15.37000	9617.00000
15.38000	9811.00000
15.39000	9921.00000
15.40000	10252.00000
15.41000	10533.00000
15.42000	10862.00000
15.43000	11427.00000
15.44000	12063.00000
15.45000	12796.00000
15.46000	13573.00000
15.47000	14382.00000
15.48000	15179.00000
15.49000	16118.00000
15.50000	16965.00000
15.51000	17662.00000
15.52000	17974.00000
15.53000	17891.00000
15.54000	17487.00000
15.55000	17199.00000
15.56000	16947.00000
15.57000	17243.00000
15.58000	18066.00000
15.59000	19643.00000
15.60000	22209.00000
15.61000	26416.00000
15.62000	32665.00000
15.63000	41928.00000
15.64000	54740.00000
15.65000	70509.00000
15.66000	84928.00000
15.67000	93963.00000
15.68000	90731.00000
15.69000	77655.00000
15.70000	60978.00000
15.71000	45743.00000
15.72000	34143.00000
15.73000	26448.00000
15.74000	21282.00000
15.75000	17708.00000
15.76000	15441.00000
15.77000	13895.00000
15.78000	12628.00000
15.79000	11839.00000
15.80000	11246.00000
15.81000	10768.00000
15.82000	10483.00000
15.83000	10177.00000
15.84000	9946.00000
15.85000	9748.00000
15.86000	9659.00000
15.87000	9503.00000
15.88000	9500.00000
15.89000	9405.00000
15.90000	9362.00000
15.91000	9389.00000
15.92000	9407.00000
15.93000	9435.00000
15.94000	9545.00000
15.95000	9723.00000
15.96000	9852.00000
15.97000	10270.00000
15.98000	10719.00000
15.99000	11308.00000
16.00000	12165.00000
16.01000	13348.00000
16.02000	14700.00000
16.03000	16567.00000
16.04000	18456.00000
16.05000	20257.00000
16.06000	21092.00000
16.07000	20692.00000
16.08000	19067.00000
16.09000	17102.00000
16.10000	15114.00000
16.11000	13519.00000
16.12000	12315.00000
16.13000	11427.00000
16.14000	10697.00000
16.15000	10346.00000
16.16000	10024.00000
16.17000	9972.00000
16.18000	9823.00000
16.19000	9838.00000
16.20000	9785.00000
16.21000	9891.00000
16.22000	9996.00000
16.23000	10146.00000
16.24000	10410.00000
16.25000	10830.00000
16.26000	11337.00000
16.27000	12185.00000
16.28000	13334.00000
16.29000	14950.00000
16.30000	17173.00000
16.31000	19686.00000
16.32000	22235.00000
16.33000	24272.00000
16.34000	25613.00000
16.35000	26402.00000
16.36000	26946.00000
16.37000	27053.00000
16.38000	26432.00000
16.39000	25228.00000
16.40000	23464.00000
16.41000	21555.00000
16.42000	19893.00000
16.43000	18671.00000
16.44000	17932.00000
16.45000	17985.00000
16.46000	18552.00000
16.47000	19483.00000
16.48000	20840.00000
16.49000	22010.00000
16.50000	22178.00000
16.51000	21534.00000
16.52000	19712.00000
16.53000	17592.00000
16.54000	15569.00000
16.55000	13909.00000
16.56000	12554.00000
16.57000	11670.00000
16.58000	10945.00000
16.59000	10406.00000
16.60000	9969.00000
16.61000	9738.00000
16.62000	9493.00000
16.63000	9334.00000
16.64000	9204.00000
16.65000	9116.00000
16.66000	9026.00000
16.67000	8984.00000
16.68000	8888.00000
16.69000	8896.00000
16.70000	8866.00000
16.71000	8808.00000
16.72000	8856.00000
16.73000	8840.00000
16.74000	8796.00000
16.75000	8853.00000
16.76000	8822.00000
16.77000	8830.00000
16.78000	8917.00000
16.79000	8952.00000
16.80000	8923.00000
16.81000	9067.00000
16.82000	9144.00000
16.83000	9198.00000
16.84000	9345.00000
16.85000	9461.00000
16.86000	9546.00000
16.87000	9782.00000
16.88000	9977.00000
16.89000	10253.00000
16.90000	10636.00000
16.91000	11076.00000
16.92000	11547.00000
16.93000	12168.00000
16.94000	13014.00000
16.95000	14144.00000
16.96000	15638.00000
16.97000	17562.00000
16.98000	19786.00000
16.99000	23021.00000
17.00000	27077.00000
17.01000	32069.00000
17.02000	38016.00000
17.03000	44296.00000
17.04000	49812.00000
17.05000	54158.00000
17.06000	54581.00000
17.07000	51697.00000
17.08000	45966.00000
17.09000	39100.00000
17.10000	32363.00000
17.11000	26932.00000
17.12000	22416.00000
17.13000	19130.00000
17.14000	16693.00000
17.15000	14844.00000
17.16000	13352.00000
17.17000	12347.00000
17.18000	11522.00000
17.19000	10858.00000
17.20000	10424.00000
17.21000	10005.00000
17.22000	9635.00000
17.23000	9380.00000
17.24000	9192.00000
17.25000	8999.00000
17.26000	8885.00000
17.27000	8805.00000
17.28000	8668.00000
17.29000	8547.00000
17.30000	8485.00000
17.31000	8408.00000
17.32000	8384.00000
17.33000	8323.00000
17.34000	8242.00000
17.35000	8244.00000
17.36000	8194.00000
17.37000	8159.00000
17.38000	8184.00000
17.39000	8163.00000
17.40000	8077.00000
17.41000	8093.00000
17.42000	8059.00000
17.43000	8060.00000
17.44000	8057.00000
17.45000	8095.00000
17.46000	8000.00000
17.47000	8044.00000
17.48000	7988.00000
17.49000	7969.00000
17.50000	8015.00000
17.51000	8049.00000
17.52000	7965.00000
17.53000	7994.00000
17.54000	7991.00000
17.55000	7988.00000
17.56000	7971.00000
17.57000	7999.00000
17.58000	7975.00000
17.59000	8019.00000
17.60000	8028.00000
17.61000	8044.00000
17.62000	8046.00000
17.63000	8066.00000
17.64000	8086.00000
17.65000	8166.00000
17.66000	8225.00000
17.67000	8285.00000
17.68000	8457.00000
17.69000	8594.00000
17.70000	8750.00000
17.71000	9030.00000
17.72000	9366.00000
17.73000	9721.00000
17.74000	10236.00000
17.75000	10835.00000
17.76000	11199.00000
17.77000	11597.00000
17.78000	11891.00000
17.79000	11781.00000
17.80000	11524.00000
17.81000	11029.00000
17.82000	10469.00000
17.83000	9961.00000
17.84000	9602.00000
17.85000	9218.00000
17.86000	9093.00000
17.87000	8941.00000
17.88000	8769.00000
17.89000	8764.00000
17.90000	8779.00000
17.91000	8830.00000
17.92000	9010.00000
17.93000	9223.00000
17.94000	9427.00000
17.95000	9808.00000
17.96000	10284.00000
17.97000	10961.00000
17.98000	11682.00000
17.99000	12531.00000
18.00000	13300.00000
18.01000	13962.00000
18.02000	14087.00000
18.03000	13884.00000
18.04000	13200.00000
18.05000	12309.00000
18.06000	11416.00000
18.07000	10647.00000
18.08000	10021.00000
18.09000	9525.00000
18.10000	9170.00000
18.11000	8851.00000
18.12000	8640.00000
18.13000	8498.00000
18.14000	8364.00000
18.15000	8239.00000
18.16000	8192.00000
18.17000	8162.00000
18.18000	8098.00000
18.19000	8119.00000
18.20000	8169.00000
18.21000	8153.00000
18.22000	8255.00000
18.23000	8258.00000
18.24000	8346.00000
18.25000	8401.00000
18.26000	8456.00000
18.27000	8446.00000
18.28000	8422.00000
18.29000	8321.00000
18.30000	8173.00000
18.31000	8132.00000
18.32000	8051.00000
18.33000	8035.00000
18.34000	8005.00000
18.35000	7964.00000
18.36000	7884.00000
18.37000	7869.00000
18.38000	7896.00000
18.39000	7874.00000
18.40000	7887.00000
18.41000	7902.00000
18.42000	7878.00000
18.43000	7918.00000
18.44000	7909.00000
18.45000	7831.00000
18.46000	7878.00000
18.47000	7902.00000
18.48000	7885.00000
18.49000	7932.00000
18.50000	7924.00000
18.51000	7939.00000
18.52000	7950.00000
18.53000	7949.00000
18.54000	7999.00000
18.55000	8014.00000
18.56000	7977.00000
18.57000	8018.00000
18.58000	8103.00000
18.59000	8136.00000
18.60000	8205.00000
18.61000	8359.00000
18.62000	8513.00000
18.63000	8759.00000
18.64000	9090.00000
18.65000	9413.00000
18.66000	9636.00000
18.67000	9651.00000
18.68000	9464.00000
18.69000	9152.00000
18.70000	8882.00000
18.71000	8615.00000
18.72000	8482.00000
18.73000	8381.00000
18.74000	8357.00000
18.75000	8293.00000
18.76000	8353.00000
18.77000	8325.00000
18.78000	8323.00000
18.79000	8416.00000
18.80000	8443.00000
18.81000	8466.00000
18.82000	8559.00000
18.83000	8644.00000
18.84000	8661.00000
18.85000	8877.00000
18.86000	9037.00000
18.87000	9290.00000
18.88000	9596.00000
18.89000	10080.00000
18.90000	10537.00000
18.91000	11367.00000
18.92000	12407.00000
18.93000	13929.00000
18.94000	15831.00000
18.95000	18133.00000
18.96000	20354.00000
18.97000	22384.00000
18.98000	22965.00000
18.99000	22090.00000
19.00000	20263.00000
19.01000	18066.00000
19.02000	16026.00000
19.03000	14678.00000
19.04000	13639.00000
19.05000	13103.00000
19.06000	12970.00000
19.07000	13264.00000
19.08000	13828.00000
19.09000	14963.00000
19.10000	16623.00000
19.11000	18737.00000
19.12000	21238.00000
19.13000	23517.00000
19.14000	24849.00000
19.15000	24499.00000
19.16000	22851.00000
19.17000	20331.00000
19.18000	18012.00000
19.19000	16037.00000
19.20000	14563.00000
19.21000	13677.00000
19.22000	13192.00000
19.23000	13108.00000
19.24000	13367.00000
19.25000	14025.00000
19.26000	14910.00000
19.27000	16209.00000
19.28000	17866.00000
19.29000	19408.00000
19.30000	20842.00000
19.31000	21458.00000
19.32000	20966.00000
19.33000	19799.00000
19.34000	18022.00000
19.35000	16173.00000
19.36000	14556.00000
19.37000	13254.00000
19.38000	12147.00000
19.39000	11378.00000
19.40000	10805.00000
19.41000	10325.00000
19.42000	10037.00000
19.43000	9863.00000
19.44000	9628.00000
19.45000	9535.00000
19.46000	9433.00000
19.47000	9413.00000
19.48000	9357.00000
19.49000	9444.00000
19.50000	9378.00000
19.51000	9497.00000
19.52000	9552.00000
19.53000	9663.00000
19.54000	9830.00000
19.55000	9986.00000
19.56000	10099.00000
19.57000	10345.00000
19.58000	10624.00000
19.59000	10955.00000
19.60000	11307.00000
19.61000	11748.00000
19.62000	11972.00000
19.63000	12344.00000
19.64000	12529.00000
19.65000	12582.00000
19.66000	12680.00000
19.67000	12655.00000
19.68000	12771.00000
19.69000	12930.00000
19.70000	13210.00000
19.71000	13736.00000
19.72000	14469.00000
19.73000	15126.00000
19.74000	15711.00000
19.75000	16013.00000
19.76000	15862.00000
19.77000	15235.00000
19.78000	14618.00000
19.79000	13902.00000
19.80000	13304.00000
19.81000	13100.00000
19.82000	13031.00000
19.83000	13204.00000
19.84000	13572.00000
19.85000	14023.00000
19.86000	14471.00000
19.87000	15088.00000
19.88000	16168.00000
19.89000	17580.00000
19.90000	19012.00000
19.91000	20026.00000
19.92000	20197.00000
19.93000	19555.00000
19.94000	18317.00000
19.95000	17290.00000
19.96000	17078.00000
19.97000	17724.00000
19.98000	19143.00000
19.99000	21316.00000
20.00000	23115.00000
20.01000	23483.00000
20.02000	22126.00000
20.03000	19520.00000
20.04000	16694.00000
20.05000	14663.00000
20.06000	13261.00000
20.07000	12512.00000
20.08000	12119.00000
20.09000	11956.00000
20.10000	11840.00000
20.11000	11885.00000
20.12000	11795.00000
20.13000	11725.00000
20.14000	11672.00000
20.15000	11413.00000
20.16000	11154.00000
20.17000	10918.00000
20.18000	10682.00000
20.19000	10471.00000
20.20000	10311.00000
20.21000	10137.00000
20.22000	9978.00000
20.23000	9909.00000
20.24000	9842.00000
20.25000	9777.00000
20.26000	9799.00000
20.27000	9817.00000
20.28000	9782.00000
20.29000	9835.00000
20.30000	9990.00000
20.31000	10175.00000
20.32000	10511.00000
20.33000	10896.00000
20.34000	11275.00000
20.35000	12085.00000
20.36000	13055.00000
20.37000	14394.00000
20.38000	16020.00000
20.39000	17992.00000
20.40000	19849.00000
20.41000	21593.00000
20.42000	22167.00000
20.43000	21608.00000
20.44000	20037.00000
20.45000	18106.00000
20.46000	15988.00000
20.47000	14485.00000
20.48000	13138.00000
20.49000	12344.00000
20.50000	11649.00000
20.51000	11276.00000
20.52000	10857.00000
20.53000	10716.00000
20.54000	10601.00000
20.55000	10660.00000
20.56000	10757.00000
20.57000	10928.00000
20.58000	10995.00000
20.59000	11370.00000
20.60000	11796.00000
20.61000	12116.00000
20.62000	12627.00000
20.63000	13224.00000
20.64000	13876.00000
20.65000	14599.00000
20.66000	15315.00000
20.67000	15980.00000
20.68000	16539.00000
20.69000	16751.00000
20.70000	16690.00000
20.71000	16412.00000
20.72000	15998.00000
20.73000	15419.00000
20.74000	14846.00000
20.75000	14286.00000
20.76000	13729.00000
20.77000	13412.00000
20.78000	13184.00000
20.79000	12993.00000
20.80000	12987.00000
20.81000	12958.00000
20.82000	13020.00000
20.83000	13253.00000
20.84000	13400.00000
20.85000	13578.00000
20.86000	13773.00000
20.87000	13825.00000
20.88000	13719.00000
20.89000	13696.00000
20.90000	13559.00000
20.91000	13269.00000
20.92000	12971.00000
20.93000	12637.00000
20.94000	12180.00000
20.95000	11891.00000
20.96000	11605.00000
20.97000	11327.00000
20.98000	11169.00000
20.99000	11116.00000
21.00000	11049.00000
21.01000	11146.00000
21.02000	11202.00000
21.03000	11256.00000
21.04000	11315.00000
21.05000	11288.00000
21.06000	11063.00000
21.07000	10917.00000
21.08000	10683.00000
21.09000	10619.00000
21.10000	10689.00000
21.11000	10915.00000
21.12000	11248.00000
21.13000	11842.00000
21.14000	12595.00000
21.15000	13624.00000
21.16000	14906.00000
21.17000	16061.00000
21.18000	16884.00000
21.19000	17062.00000
21.20000	16266.00000
21.21000	15083.00000
21.22000	13774.00000
21.23000	12630.00000
21.24000	11718.00000
21.25000	11167.00000
21.26000	10710.00000
21.27000	10448.00000
21.28000	10289.00000
21.29000	10201.00000
21.30000	10133.00000
21.31000	10227.00000
21.32000	10347.00000
21.33000	10511.00000
21.34000	10714.00000
21.35000	11055.00000
21.36000	11391.00000
21.37000	11910.00000
21.38000	12469.00000
21.39000	13228.00000
21.40000	14252.00000
21.41000	15547.00000
21.42000	16982.00000
21.43000	18757.00000
21.44000	20679.00000
21.45000	22472.00000
21.46000	24208.00000
21.47000	25203.00000
21.48000	24958.00000
21.49000	23767.00000
21.50000	21714.00000
21.51000	19356.00000
21.52000	17225.00000
21.53000	15379.00000
21.54000	13898.00000
21.55000	12905.00000
21.56000	12065.00000
21.57000	11480.00000
21.58000	11022.00000
21.59000	10736.00000
21.60000	10498.00000
21.61000	10328.00000
21.62000	10248.00000
21.63000	10131.00000
21.64000	10191.00000
21.65000	10220.00000
21.66000	10197.00000
21.67000	10344.00000
21.68000	10433.00000
21.69000	10636.00000
21.70000	10891.00000
21.71000	11229.00000
21.72000	11549.00000
21.73000	12014.00000
21.74000	12555.00000
21.75000	13234.00000
21.76000	13965.00000
21.77000	14682.00000
21.78000	15301.00000
21.79000	16112.00000
21.80000	16884.00000
21.81000	17591.00000
21.82000	18149.00000
21.83000	18583.00000
21.84000	18697.00000
21.85000	19067.00000
21.86000	19333.00000
21.87000	19936.00000
21.88000	20995.00000
21.89000	22184.00000
21.90000	23265.00000
21.91000	24236.00000
21.92000	24602.00000
21.93000	23969.00000
21.94000	22992.00000
21.95000	21383.00000
21.96000	19437.00000
21.97000	17676.00000
21.98000	16092.00000
21.99000	14749.00000
22.00000	13764.00000
22.01000	12917.00000
22.02000	12155.00000
22.03000	11679.00000
22.04000	11253.00000
22.05000	10958.00000
22.06000	10686.00000
22.07000	10567.00000
22.08000	10455.00000
22.09000	10534.00000
22.10000	10625.00000
22.11000	10832.00000
22.12000	11242.00000
22.13000	11749.00000
22.14000	12399.00000
22.15000	13195.00000
22.16000	13849.00000
22.17000	14327.00000
22.18000	14250.00000
22.19000	13668.00000
22.20000	12694.00000
22.21000	11797.00000
22.22000	10993.00000
22.23000	10443.00000
22.24000	10052.00000
22.25000	9761.00000
22.26000	9493.00000
22.27000	9413.00000
22.28000	9276.00000
22.29000	9128.00000
22.30000	9081.00000
22.31000	9022.00000
22.32000	8948.00000
22.33000	8943.00000
22.34000	8899.00000
22.35000	8930.00000
22.36000	8916.00000
22.37000	8865.00000
22.38000	8797.00000
22.39000	8815.00000
22.40000	8810.00000
22.41000	8806.00000
22.42000	8842.00000
22.43000	8838.00000
22.44000	8764.00000
22.45000	8842.00000
22.46000	8817.00000
22.47000	8779.00000
22.48000	8862.00000
22.49000	8836.00000
22.50000	8847.00000
22.51000	8857.00000
22.52000	8820.00000
22.53000	8829.00000
22.54000	8882.00000
22.55000	8833.00000
22.56000	8879.00000
22.57000	8844.00000
22.58000	8873.00000
22.59000	8891.00000
22.60000	8943.00000
22.61000	9015.00000
22.62000	9037.00000
22.63000	9120.00000
22.64000	9203.00000
22.65000	9228.00000
22.66000	9461.00000
22.67000	9677.00000
22.68000	9777.00000
22.69000	10119.00000
22.70000	10465.00000
22.71000	10962.00000
22.72000	11504.00000
22.73000	12260.00000
22.74000	12945.00000
22.75000	13773.00000
22.76000	14276.00000
22.77000	14666.00000
22.78000	14519.00000
22.79000	14082.00000
22.80000	13341.00000
22.81000	12742.00000
22.82000	12100.00000
22.83000	11830.00000
22.84000	11617.00000
22.85000	11552.00000
22.86000	11602.00000
22.87000	11737.00000
22.88000	12007.00000
22.89000	12330.00000
22.90000	12857.00000
22.91000	13348.00000
22.92000	13837.00000
22.93000	14483.00000
22.94000	15220.00000
22.95000	16022.00000
22.96000	17067.00000
22.97000	18281.00000
22.98000	19539.00000
22.99000	20940.00000
23.00000	22343.00000
23.01000	23489.00000
23.02000	24598.00000
23.03000	25111.00000
23.04000	25139.00000
23.05000	24783.00000
23.06000	23966.00000
23.07000	22704.00000
23.08000	21238.00000
23.09000	19691.00000
23.10000	18121.00000
23.11000	16821.00000
23.12000	15641.00000
23.13000	14605.00000
23.14000	13829.00000
23.15000	13156.00000
23.16000	12558.00000
23.17000	12126.00000
23.18000	11762.00000
23.19000	11482.00000
23.20000	11281.00000
23.21000	11065.00000
23.22000	10892.00000
23.23000	10800.00000
23.24000	10728.00000
23.25000	10660.00000
23.26000	10697.00000
23.27000	10766.00000
23.28000	10674.00000
23.29000	10683.00000
23.30000	10651.00000
23.31000	10447.00000
23.32000	10269.00000
23.33000	10078.00000
23.34000	9919.00000
23.35000	9864.00000
23.36000	9744.00000
23.37000	9705.00000
23.38000	9825.00000
23.39000	9934.00000
23.40000	10042.00000
23.41000	10311.00000
23.42000	10721.00000
23.43000	11254.00000
23.44000	12094.00000
23.45000	12948.00000
23.46000	13827.00000
23.47000	14405.00000
23.48000	14513.00000
23.49000	13911.00000
23.50000	13038.00000
23.51000	11998.00000
23.52000	11124.00000
23.53000	10524.00000
23.54000	10074.00000
23.55000	9759.00000
23.56000	9542.00000
23.57000	9381.00000
23.58000	9220.00000
23.59000	9175.00000
23.60000	9084.00000
23.61000	9064.00000
23.62000	9047.00000
23.63000	9049.00000
23.64000	8921.00000
23.65000	8978.00000
23.66000	8966.00000
23.67000	8968.00000
23.68000	8943.00000
23.69000	8958.00000
23.70000	8912.00000
23.71000	8952.00000
23.72000	8979.00000
23.73000	8959.00000
23.74000	9018.00000
23.75000	9033.00000
23.76000	9027.00000
23.77000	9060.00000
23.78000	9109.00000
23.79000	9149.00000
23.80000	9273.00000
23.81000	9312.00000
23.82000	9400.00000
23.83000	9553.00000
23.84000	9724.00000
23.85000	9919.00000
23.86000	10229.00000
23.87000	10583.00000
23.88000	10934.00000
23.89000	11406.00000
23.90000	11853.00000
23.91000	12149.00000
23.92000	12429.00000
23.93000	12487.00000
23.94000	12424.00000
23.95000	12492.00000
23.96000	12621.00000
23.97000	12747.00000
23.98000	12992.00000
23.99000	13221.00000
24.00000	13270.00000
24.01000	13378.00000
24.02000	13407.00000
24.03000	13418.00000
24.04000	13279.00000
24.05000	13315.00000
24.06000	13251.00000
24.07000	13354.00000
24.08000	13466.00000
24.09000	13487.00000
24.10000	13391.00000
24.11000	13178.00000
24.12000	12808.00000
24.13000	12613.00000
24.14000	12267.00000
24.15000	12073.00000
24.16000	11988.00000
24.17000	11947.00000
24.18000	11884.00000
24.19000	12083.00000
24.20000	12284.00000
24.21000	12614.00000
24.22000	12907.00000
24.23000	13268.00000
24.24000	13526.00000
24.25000	13708.00000
24.26000	13723.00000
24.27000	13694.00000
24.28000	13545.00000
24.29000	13362.00000
24.30000	13140.00000
24.31000	13202.00000
24.32000	13352.00000
24.33000	13715.00000
24.34000	14357.00000
24.35000	15120.00000
24.36000	15911.00000
24.37000	16905.00000
24.38000	17832.00000
24.39000	18476.00000
24.40000	18760.00000
24.41000	18693.00000
24.42000	18525.00000
24.43000	18547.00000
24.44000	18733.00000
24.45000	19419.00000
24.46000	20628.00000
24.47000	21973.00000
24.48000	23159.00000
24.49000	23905.00000
24.50000	23723.00000
24.51000	22367.00000
24.52000	20426.00000
24.53000	18363.00000
24.54000	16377.00000
24.55000	14973.00000
24.56000	13808.00000
24.57000	13033.00000
24.58000	12533.00000
24.59000	12193.00000
24.60000	11925.00000
24.61000	11838.00000
24.62000	11932.00000
24.63000	12070.00000
24.64000	12373.00000
24.65000	12690.00000
24.66000	12871.00000
24.67000	13188.00000
24.68000	13362.00000
24.69000	13282.00000
24.70000	13040.00000
24.71000	12652.00000
24.72000	12098.00000
24.73000	11652.00000
24.74000	11233.00000
24.75000	10861.00000
24.76000	10550.00000
24.77000	10303.00000
24.78000	10131.00000
24.79000	10012.00000
24.80000	10023.00000
24.81000	9933.00000
24.82000	10007.00000
24.83000	10088.00000
24.84000	10238.00000
24.85000	10429.00000
24.86000	10657.00000
24.87000	11047.00000
24.88000	11518.00000
24.89000	11951.00000
24.90000	12301.00000
24.91000	12650.00000
24.92000	12740.00000
24.93000	12562.00000
24.94000	12318.00000
24.95000	11860.00000
24.96000	11516.00000
24.97000	11330.00000
24.98000	11143.00000
24.99000	11161.00000
25.00000	11291.00000
25.01000	11400.00000
25.02000	11623.00000
25.03000	12088.00000
25.04000	12530.00000
25.05000	13097.00000
25.06000	13903.00000
25.07000	14586.00000
25.08000	15301.00000
25.09000	16203.00000
25.10000	16983.00000
25.11000	17908.00000
25.12000	18605.00000
25.13000	19495.00000
25.14000	20041.00000
25.15000	20554.00000
25.16000	20654.00000
25.17000	20336.00000
25.18000	19727.00000
25.19000	18682.00000
25.20000	17430.00000
25.21000	16247.00000
25.22000	15115.00000
25.23000	14114.00000
25.24000	13282.00000
25.25000	12581.00000
25.26000	11962.00000
25.27000	11438.00000
25.28000	10997.00000
25.29000	10583.00000
25.30000	10292.00000
25.31000	9957.00000
25.32000	9704.00000
25.33000	9541.00000
25.34000	9312.00000
25.35000	9189.00000
25.36000	9174.00000
25.37000	9145.00000
25.38000	8912.00000
25.39000	8891.00000
25.40000	8912.00000
25.41000	8850.00000
25.42000	8823.00000
25.43000	8774.00000
25.44000	8679.00000
25.45000	8702.00000
25.46000	8630.00000
25.47000	8638.00000
25.48000	8670.00000
25.49000	8690.00000
25.50000	8631.00000
25.51000	8661.00000
25.52000	8604.00000
25.53000	8622.00000
25.54000	8664.00000
25.55000	8658.00000
25.56000	8687.00000
25.57000	8689.00000
25.58000	8688.00000
25.59000	8682.00000
25.60000	8754.00000
25.61000	8812.00000
25.62000	8874.00000
25.63000	8987.00000
25.64000	9087.00000
25.65000	9191.00000
25.66000	9405.00000
25.67000	9570.00000
25.68000	9754.00000
25.69000	9921.00000
25.70000	9957.00000
25.71000	9952.00000
25.72000	9893.00000
25.73000	9739.00000
25.74000	9545.00000
25.75000	9408.00000
25.76000	9320.00000
25.77000	9214.00000
25.78000	9176.00000
25.79000	9134.00000
25.80000	9117.00000
25.81000	9179.00000
25.82000	9342.00000
25.83000	9475.00000
25.84000	9721.00000
25.85000	9948.00000
25.86000	10260.00000
25.87000	10743.00000
25.88000	11357.00000
25.89000	11980.00000
25.90000	12674.00000
25.91000	13227.00000
25.92000	13413.00000
25.93000	13419.00000
25.94000	13049.00000
25.95000	12474.00000
25.96000	11918.00000
25.97000	11426.00000
25.98000	10985.00000
25.99000	10883.00000
26.00000	10790.00000
26.01000	10805.00000
26.02000	11002.00000
26.03000	11143.00000
26.04000	11179.00000
26.05000	11250.00000
26.06000	11142.00000
26.07000	10980.00000
26.08000	10816.00000
26.09000	10482.00000
26.10000	10253.00000
26.11000	10079.00000
26.12000	9855.00000
26.13000	9656.00000
26.14000	9563.00000
26.15000	9507.00000
26.16000	9365.00000
26.17000	9380.00000
26.18000	9427.00000
26.19000	9414.00000
26.20000	9439.00000
26.21000	9539.00000
26.22000	9598.00000
26.23000	9632.00000
26.24000	9702.00000
26.25000	9767.00000
26.26000	9904.00000
26.27000	10019.00000
26.28000	9991.00000
26.29000	10088.00000
26.30000	10039.00000
26.31000	9947.00000
26.32000	9888.00000
26.33000	9696.00000
26.34000	9499.00000
26.35000	9400.00000
26.36000	9225.00000
26.37000	9094.00000
26.38000	9042.00000
26.39000	8894.00000
26.40000	8761.00000
26.41000	8727.00000
26.42000	8697.00000
26.43000	8652.00000
26.44000	8642.00000
26.45000	8609.00000
26.46000	8580.00000
26.47000	8607.00000
26.48000	8624.00000
26.49000	8701.00000
26.50000	8732.00000
26.51000	8828.00000
26.52000	8859.00000
26.53000	8957.00000
26.54000	9074.00000
26.55000	9152.00000
26.56000	9184.00000
26.57000	9143.00000
26.58000	9044.00000
26.59000	8941.00000
26.60000	8866.00000
26.61000	8775.00000
26.62000	8689.00000
26.63000	8631.00000
26.64000	8565.00000
26.65000	8500.00000
26.66000	8469.00000
26.67000	8441.00000
26.68000	8465.00000
26.69000	8441.00000
26.70000	8401.00000
26.71000	8446.00000
26.72000	8432.00000
26.73000	8398.00000
26.74000	8365.00000
26.75000	8398.00000
26.76000	8411.00000
26.77000	8388.00000
26.78000	8436.00000
26.79000	8470.00000
26.80000	8540.00000
26.81000	8549.00000
26.82000	8534.00000
26.83000	8596.00000
26.84000	8625.00000
26.85000	8715.00000
26.86000	8802.00000
26.87000	8840.00000
26.88000	8800.00000
26.89000	8942.00000
26.90000	8976.00000
26.91000	9109.00000
26.92000	9293.00000
26.93000	9492.00000
26.94000	9707.00000
26.95000	10108.00000
26.96000	10471.00000
26.97000	10963.00000
26.98000	11577.00000
26.99000	12215.00000
27.00000	12647.00000
27.01000	12957.00000
27.02000	12955.00000
27.03000	12689.00000
27.04000	12312.00000
27.05000	11810.00000
27.06000	11379.00000
27.07000	11025.00000
27.08000	10730.00000
27.09000	10627.00000
27.10000	10487.00000
27.11000	10323.00000
27.12000	10218.00000
27.13000	10161.00000
27.14000	10106.00000
27.15000	10028.00000
27.16000	10083.00000
27.17000	10062.00000
27.18000	10055.00000
27.19000	10158.00000
27.20000	10209.00000
27.21000	10258.00000
27.22000	10457.00000
27.23000	10544.00000
27.24000	10554.00000
27.25000	10804.00000
27.26000	10996.00000
27.27000	11328.00000
27.28000	11778.00000
27.29000	12300.00000
27.30000	12804.00000
27.31000	13341.00000
27.32000	13768.00000
27.33000	14175.00000
27.34000	14315.00000
27.35000	14192.00000
27.36000	13875.00000
27.37000	13642.00000
27.38000	13341.00000
27.39000	13120.00000
27.40000	13058.00000
27.41000	13084.00000
27.42000	13126.00000
27.43000	13381.00000
27.44000	13570.00000
27.45000	13767.00000
27.46000	13992.00000
27.47000	14095.00000
27.48000	14060.00000
27.49000	14043.00000
27.50000	13881.00000
27.51000	13717.00000
27.52000	13503.00000
27.53000	13200.00000
27.54000	12797.00000
27.55000	12617.00000
27.56000	12471.00000
27.57000	12286.00000
27.58000	12348.00000
27.59000	12458.00000
27.60000	12531.00000
27.61000	12647.00000
27.62000	12765.00000
27.63000	12817.00000
27.64000	12809.00000
27.65000	12703.00000
27.66000	12487.00000
27.67000	12457.00000
27.68000	12488.00000
27.69000	12452.00000
27.70000	12597.00000
27.71000	12627.00000
27.72000	12456.00000
27.73000	12371.00000
27.74000	12158.00000
27.75000	11893.00000
27.76000	11782.00000
27.77000	11661.00000
27.78000	11528.00000
27.79000	11492.00000
27.80000	11382.00000
27.81000	11384.00000
27.82000	11320.00000
27.83000	11154.00000
27.84000	10900.00000
27.85000	10699.00000
27.86000	10409.00000
27.87000	10247.00000
27.88000	10008.00000
27.89000	9827.00000
27.90000	9633.00000
27.91000	9563.00000
27.92000	9379.00000
27.93000	9357.00000
27.94000	9299.00000
27.95000	9245.00000
27.96000	9128.00000
27.97000	9162.00000
27.98000	9182.00000
27.99000	9320.00000
28.00000	9402.00000
28.01000	9491.00000
28.02000	9541.00000
28.03000	9709.00000
28.04000	9893.00000
28.05000	9991.00000
28.06000	10076.00000
28.07000	10002.00000
28.08000	9902.00000
28.09000	9801.00000
28.10000	9669.00000
28.11000	9447.00000
28.12000	9318.00000
28.13000	9156.00000
28.14000	9044.00000
28.15000	8955.00000
28.16000	8868.00000
28.17000	8796.00000
28.18000	8732.00000
28.19000	8734.00000
28.20000	8676.00000
28.21000	8637.00000
28.22000	8659.00000
28.23000	8699.00000
28.24000	8838.00000
28.25000	8854.00000
28.26000	8868.00000
28.27000	9014.00000
28.28000	9153.00000
28.29000	9318.00000
28.30000	9525.00000
28.31000	9806.00000
28.32000	9976.00000
28.33000	10231.00000
28.34000	10379.00000
28.35000	10454.00000
28.36000	10538.00000
28.37000	10545.00000
28.38000	10360.00000
28.39000	10289.00000
28.40000	10056.00000
28.41000	9933.00000
28.42000	9759.00000
28.43000	9522.00000
28.44000	9311.00000
28.45000	9189.00000
28.46000	9069.00000
28.47000	8948.00000
28.48000	8905.00000
28.49000	8841.00000
28.50000	8787.00000
28.51000	8828.00000
28.52000	8865.00000
28.53000	8866.00000
28.54000	8988.00000
28.55000	9112.00000
28.56000	9208.00000
28.57000	9398.00000
28.58000	9635.00000
28.59000	9867.00000
28.60000	10251.00000
28.61000	10556.00000
28.62000	10785.00000
28.63000	10957.00000
28.64000	10987.00000
28.65000	10774.00000
28.66000	10608.00000
28.67000	10311.00000
28.68000	10060.00000
28.69000	9925.00000
28.70000	9817.00000
28.71000	9729.00000
28.72000	9745.00000
28.73000	9708.00000
28.74000	9695.00000
28.75000	9702.00000
28.76000	9571.00000
28.77000	9571.00000
28.78000	9483.00000
28.79000	9464.00000
28.80000	9342.00000
28.81000	9425.00000
28.82000	9540.00000
28.83000	9618.00000
28.84000	9772.00000
28.85000	9882.00000
28.86000	10011.00000
28.87000	10357.00000
28.88000	10639.00000
28.89000	11017.00000
28.90000	11386.00000
28.91000	11763.00000
28.92000	12000.00000
28.93000	12306.00000
28.94000	12519.00000
28.95000	12558.00000
28.96000	12607.00000
28.97000	12490.00000
28.98000	12353.00000
28.99000	12173.00000
29.00000	12023.00000
29.01000	11708.00000
29.02000	11455.00000
29.03000	11167.00000
29.04000	10846.00000
29.05000	10592.00000
29.06000	10308.00000
29.07000	10037.00000
29.08000	9835.00000
29.09000	9650.00000
29.10000	9400.00000
29.11000	9314.00000
29.12000	9137.00000
29.13000	9061.00000
29.14000	8981.00000
29.15000	8957.00000
29.16000	8814.00000
29.17000	8774.00000
29.18000	8703.00000
29.19000	8703.00000
29.20000	8733.00000
29.21000	8744.00000
29.22000	8664.00000
29.23000	8716.00000
29.24000	8776.00000
29.25000	8760.00000
29.26000	8826.00000
29.27000	8883.00000
29.28000	8831.00000
29.29000	8834.00000
29.30000	8787.00000
29.31000	8718.00000
29.32000	8659.00000
29.33000	8722.00000
29.34000	8651.00000
29.35000	8658.00000
29.36000	8704.00000
29.37000	8682.00000
29.38000	8759.00000
29.39000	8793.00000
29.40000	8812.00000
29.41000	8932.00000
29.42000	8980.00000
29.43000	9104.00000
29.44000	9301.00000
29.45000	9389.00000
29.46000	9540.00000
29.47000	9708.00000
29.48000	9900.00000
29.49000	10008.00000
29.50000	10270.00000
29.51000	10322.00000
29.52000	10401.00000
29.53000	10591.00000
29.54000	10747.00000
29.55000	10982.00000
29.56000	11303.00000
29.57000	11627.00000
29.58000	11876.00000
29.59000	12234.00000
29.60000	12509.00000
29.61000	12646.00000
29.62000	12809.00000
29.63000	12807.00000
29.64000	12544.00000
29.65000	12431.00000
29.66000	12164.00000
29.67000	11909.00000
29.68000	11740.00000
29.69000	11654.00000
29.70000	11504.00000
29.71000	11560.00000
29.72000	11490.00000
29.73000	11538.00000
29.74000	11539.00000
29.75000	11494.00000
29.76000	11451.00000
29.77000	11498.00000
29.78000	11431.00000
29.79000	11408.00000
29.80000	11401.00000
29.81000	11377.00000
29.82000	11242.00000
29.83000	11006.00000
29.84000	10795.00000
29.85000	10496.00000
29.86000	10228.00000
29.87000	9921.00000
29.88000	9624.00000
29.89000	9529.00000
29.90000	9358.00000
29.91000	9246.00000
29.92000	9130.00000
29.93000	8976.00000
29.94000	8878.00000
29.95000	8855.00000
29.96000	8783.00000
29.97000	8755.00000
29.98000	8740.00000
29.99000	8665.00000
30.00000	8598.00000
30.01000	8604.00000
30.02000	8623.00000
30.03000	8658.00000
30.04000	8675.00000
30.05000	8696.00000
30.06000	8612.00000
30.07000	8666.00000
30.08000	8661.00000
30.09000	8695.00000
30.10000	8725.00000
30.11000	8746.00000
30.12000	8714.00000
30.13000	8818.00000
30.14000	8885.00000
30.15000	8952.00000
30.16000	9093.00000
30.17000	9274.00000
30.18000	9332.00000
30.19000	9471.00000
30.20000	9593.00000
30.21000	9650.00000
30.22000	9683.00000
30.23000	9613.00000
30.24000	9444.00000
30.25000	9417.00000
30.26000	9394.00000
30.27000	9422.00000
30.28000	9482.00000
30.29000	9564.00000
30.30000	9609.00000
30.31000	9759.00000
30.32000	9981.00000
30.33000	10170.00000
30.34000	10542.00000
30.35000	10841.00000
30.36000	11134.00000
30.37000	11433.00000
30.38000	11616.00000
30.39000	11614.00000
30.40000	11500.00000
30.41000	11253.00000
30.42000	10898.00000
30.43000	10551.00000
30.44000	10193.00000
30.45000	9925.00000
30.46000	9708.00000
30.47000	9542.00000
30.48000	9340.00000
30.49000	9219.00000
30.50000	9149.00000
30.51000	9209.00000
30.52000	9200.00000
30.53000	9125.00000
30.54000	9151.00000
30.55000	9163.00000
30.56000	9263.00000
30.57000	9306.00000
30.58000	9477.00000
30.59000	9530.00000
30.60000	9661.00000
30.61000	9783.00000
30.62000	9825.00000
30.63000	9893.00000
30.64000	9913.00000
30.65000	9854.00000
30.66000	9757.00000
30.67000	9716.00000
30.68000	9628.00000
30.69000	9661.00000
30.70000	9654.00000
30.71000	9787.00000
30.72000	9764.00000
30.73000	9946.00000
30.74000	10116.00000
30.75000	10368.00000
30.76000	10575.00000
30.77000	10762.00000
30.78000	10832.00000
30.79000	10946.00000
30.80000	11014.00000
30.81000	11038.00000
30.82000	10957.00000
30.83000	10932.00000
30.84000	10801.00000
30.85000	10774.00000
30.86000	10858.00000
30.87000	10834.00000
30.88000	10951.00000
30.89000	11076.00000
30.90000	11150.00000
30.91000	11217.00000
30.92000	11320.00000
30.93000	11353.00000
30.94000	11456.00000
30.95000	11561.00000
30.96000	11566.00000
30.97000	11778.00000
30.98000	11963.00000
30.99000	12346.00000
31.00000	12666.00000
31.01000	12883.00000
31.02000	12839.00000
31.03000	12764.00000
31.04000	12428.00000
31.05000	12017.00000
31.06000	11628.00000
31.07000	11187.00000
31.08000	10817.00000
31.09000	10479.00000
31.10000	10169.00000
31.11000	9918.00000
31.12000	9741.00000
31.13000	9621.00000
31.14000	9447.00000
31.15000	9381.00000
31.16000	9298.00000
31.17000	9257.00000
31.18000	9215.00000
31.19000	9220.00000
31.20000	9157.00000
31.21000	9159.00000
31.22000	9184.00000
31.23000	9204.00000
31.24000	9269.00000
31.25000	9268.00000
31.26000	9350.00000
31.27000	9462.00000
31.28000	9505.00000
31.29000	9599.00000
31.30000	9700.00000
31.31000	9801.00000
31.32000	9812.00000
31.33000	9901.00000
31.34000	9892.00000
31.35000	9803.00000
31.36000	9818.00000
31.37000	9797.00000
31.38000	9733.00000
31.39000	9733.00000
31.40000	9678.00000
31.41000	9686.00000
31.42000	9669.00000
31.43000	9680.00000
31.44000	9635.00000
31.45000	9714.00000
31.46000	9767.00000
31.47000	9814.00000
31.48000	9961.00000
31.49000	10136.00000
31.50000	10239.00000
31.51000	10494.00000
31.52000	10703.00000
31.53000	10787.00000
31.54000	10851.00000
31.55000	10929.00000
31.56000	10792.00000
31.57000	10740.00000
31.58000	10671.00000
31.59000	10570.00000
31.60000	10539.00000
31.61000	10549.00000
31.62000	10420.00000
31.63000	10475.00000
31.64000	10504.00000
31.65000	10492.00000
31.66000	10525.00000
31.67000	10507.00000
31.68000	10512.00000
31.69000	10564.00000
31.70000	10657.00000
31.71000	10709.00000
31.72000	10764.00000
31.73000	10726.00000
31.74000	10577.00000
31.75000	10423.00000
31.76000	10194.00000
31.77000	9985.00000
31.78000	9823.00000
31.79000	9671.00000
31.80000	9512.00000
31.81000	9465.00000
31.82000	9440.00000
31.83000	9387.00000
31.84000	9484.00000
31.85000	9523.00000
31.86000	9489.00000
31.87000	9500.00000
31.88000	9477.00000
31.89000	9487.00000
31.90000	9437.00000
31.91000	9384.00000
31.92000	9255.00000
31.93000	9228.00000
31.94000	9154.00000
31.95000	9128.00000
31.96000	9057.00000
31.97000	9056.00000
31.98000	8877.00000
31.99000	8817.00000
32.00000	8775.00000
32.01000	8704.00000
32.02000	8665.00000
32.03000	8629.00000
32.04000	8539.00000
32.05000	8490.00000
32.06000	8473.00000
32.07000	8429.00000
32.08000	8453.00000
32.09000	8400.00000
32.10000	8393.00000
32.11000	8447.00000
32.12000	8431.00000
32.13000	8408.00000
32.14000	8479.00000
32.15000	8464.00000
32.16000	8439.00000
32.17000	8525.00000
32.18000	8551.00000
32.19000	8632.00000
32.20000	8727.00000
32.21000	8751.00000
32.22000	8792.00000
32.23000	8850.00000
32.24000	8861.00000
32.25000	8888.00000
32.26000	8925.00000
32.27000	8988.00000
32.28000	8934.00000
32.29000	8992.00000
32.30000	8923.00000
32.31000	8923.00000
32.32000	9026.00000
32.33000	9028.00000
32.34000	9040.00000
32.35000	9113.00000
32.36000	9202.00000
32.37000	9263.00000
32.38000	9397.00000
32.39000	9547.00000
32.40000	9595.00000
32.41000	9753.00000
32.42000	9862.00000
32.43000	9963.00000
32.44000	9930.00000
32.45000	9902.00000
32.46000	9773.00000
32.47000	9691.00000
32.48000	9490.00000
32.49000	9315.00000
32.50000	9164.00000
32.51000	9042.00000
32.52000	8920.00000
32.53000	8810.00000
32.54000	8742.00000
32.55000	8637.00000
32.56000	8624.00000
32.57000	8556.00000
32.58000	8474.00000
32.59000	8468.00000
32.60000	8474.00000
32.61000	8443.00000
32.62000	8424.00000
32.63000	8437.00000
32.64000	8384.00000
32.65000	8366.00000
32.66000	8389.00000
32.67000	8385.00000
32.68000	8485.00000
32.69000	8462.00000
32.70000	8481.00000
32.71000	8489.00000
32.72000	8570.00000
32.73000	8595.00000
32.74000	8633.00000
32.75000	8705.00000
32.76000	8673.00000
32.77000	8742.00000
32.78000	8802.00000
32.79000	8800.00000
32.80000	8835.00000
32.81000	8900.00000
32.82000	8812.00000
32.83000	8796.00000
32.84000	8759.00000
32.85000	8767.00000
32.86000	8810.00000
32.87000	8749.00000
32.88000	8687.00000
32.89000	8676.00000
32.90000	8696.00000
32.91000	8647.00000
32.92000	8618.00000
32.93000	8702.00000
32.94000	8573.00000
32.95000	8660.00000
32.96000	8642.00000
32.97000	8605.00000
32.98000	8664.00000
32.99000	8634.00000
33.00000	8553.00000
33.01000	8595.00000
33.02000	8542.00000
33.03000	8532.00000
33.04000	8531.00000
33.05000	8541.00000
33.06000	8456.00000
33.07000	8531.00000
33.08000	8468.00000
33.09000	8471.00000
33.10000	8544.00000
33.11000	8530.00000
33.12000	8463.00000
33.13000	8556.00000
33.14000	8576.00000
33.15000	8539.00000
33.16000	8607.00000
33.17000	8602.00000
33.18000	8621.00000
33.19000	8656.00000
33.20000	8673.00000
33.21000	8745.00000
33.22000	8754.00000
33.23000	8812.00000
33.24000	8849.00000
33.25000	8973.00000
33.26000	9062.00000
33.27000	9187.00000
33.28000	9337.00000
33.29000	9534.00000
33.30000	9609.00000
33.31000	9830.00000
33.32000	9968.00000
33.33000	10165.00000
33.34000	10289.00000
33.35000	10352.00000
33.36000	10288.00000
33.37000	10305.00000
33.38000	10247.00000
33.39000	10202.00000
33.40000	10231.00000
33.41000	10278.00000
33.42000	10292.00000
33.43000	10424.00000
33.44000	10552.00000
33.45000	10670.00000
33.46000	10775.00000
33.47000	10717.00000
33.48000	10540.00000
33.49000	10421.00000
33.50000	10272.00000
33.51000	10147.00000
33.52000	10148.00000
33.53000	10073.00000
33.54000	10101.00000
33.55000	10198.00000
33.56000	10254.00000
33.57000	10251.00000
33.58000	10272.00000
33.59000	10211.00000
33.60000	10169.00000
33.61000	10106.00000
33.62000	10113.00000
33.63000	10062.00000
33.64000	10076.00000
33.65000	10104.00000
33.66000	10082.00000
33.67000	10172.00000
33.68000	10314.00000
33.69000	10413.00000
33.70000	10648.00000
33.71000	10830.00000
33.72000	10935.00000
33.73000	11147.00000
33.74000	11215.00000
33.75000	11164.00000
33.76000	11039.00000
33.77000	10827.00000
33.78000	10564.00000
33.79000	10362.00000
33.80000	10123.00000
33.81000	9989.00000
33.82000	9864.00000
33.83000	9744.00000
33.84000	9657.00000
33.85000	9676.00000
33.86000	9743.00000
33.87000	9803.00000
33.88000	9944.00000
33.89000	10053.00000
33.90000	10125.00000
33.91000	10297.00000
33.92000	10538.00000
33.93000	10740.00000
33.94000	10916.00000
33.95000	10971.00000
33.96000	11006.00000
33.97000	11022.00000
33.98000	10883.00000
33.99000	10806.00000
34.00000	10685.00000
34.01000	10497.00000
34.02000	10303.00000
34.03000	10158.00000
34.04000	9954.00000
34.05000	9764.00000
34.06000	9681.00000
34.07000	9515.00000
34.08000	9371.00000
34.09000	9312.00000
34.10000	9239.00000
34.11000	9211.00000
34.12000	9212.00000
34.13000	9229.00000
34.14000	9172.00000
34.15000	9352.00000
34.16000	9322.00000
34.17000	9412.00000
34.18000	9559.00000
34.19000	9694.00000
34.20000	9706.00000
34.21000	9773.00000
34.22000	9692.00000
34.23000	9671.00000
34.24000	9634.00000
34.25000	9601.00000
34.26000	9514.00000
34.27000	9523.00000
34.28000	9468.00000
34.29000	9487.00000
34.30000	9391.00000
34.31000	9386.00000
34.32000	9280.00000
34.33000	9307.00000
34.34000	9227.00000
34.35000	9260.00000
34.36000	9292.00000
34.37000	9212.00000
34.38000	9220.00000
34.39000	9258.00000
34.40000	9312.00000
34.41000	9282.00000
34.42000	9382.00000
34.43000	9407.00000
34.44000	9364.00000
34.45000	9398.00000
34.46000	9449.00000
34.47000	9503.00000
34.48000	9595.00000
34.49000	9578.00000
34.50000	9603.00000
34.51000	9634.00000
34.52000	9696.00000
34.53000	9689.00000
34.54000	9674.00000
34.55000	9631.00000
34.56000	9563.00000
34.57000	9480.00000
34.58000	9498.00000
34.59000	9371.00000
34.60000	9353.00000
34.61000	9288.00000
34.62000	9162.00000
34.63000	9127.00000
34.64000	9040.00000
34.65000	9031.00000
34.66000	8973.00000
34.67000	9034.00000
34.68000	8969.00000
34.69000	9014.00000
34.70000	8975.00000
34.71000	9030.00000
34.72000	9079.00000
34.73000	9119.00000
34.74000	9056.00000
34.75000	9154.00000
34.76000	9158.00000
34.77000	9171.00000
34.78000	9182.00000
34.79000	9156.00000
34.80000	9004.00000
34.81000	8975.00000
34.82000	8931.00000
34.83000	8868.00000
34.84000	8883.00000
34.85000	8842.00000
34.86000	8819.00000
34.87000	8857.00000
34.88000	8818.00000
34.89000	8875.00000
34.90000	8976.00000
34.91000	8988.00000
34.92000	9087.00000
34.93000	9165.00000
34.94000	9277.00000
34.95000	9370.00000
34.96000	9448.00000
34.97000	9521.00000
34.98000	9490.00000
34.99000	9562.00000
35.00000	9561.00000
35.01000	9575.00000
35.02000	9679.00000
35.03000	9715.00000
35.04000	9675.00000
35.05000	9658.00000
35.06000	9655.00000
35.07000	9645.00000
35.08000	9594.00000
35.09000	9588.00000
35.10000	9548.00000
35.11000	9568.00000
35.12000	9565.00000
35.13000	9640.00000
35.14000	9724.00000
35.15000	9808.00000
35.16000	9806.00000
35.17000	9889.00000
35.18000	9846.00000
35.19000	9770.00000
35.20000	9684.00000
35.21000	9539.00000
35.22000	9363.00000
35.23000	9284.00000
35.24000	9197.00000
35.25000	9058.00000
35.26000	8976.00000
35.27000	8900.00000
35.28000	8892.00000
35.29000	8797.00000
35.30000	8757.00000
35.31000	8716.00000
35.32000	8769.00000
35.33000	8719.00000
35.34000	8741.00000
35.35000	8739.00000
35.36000	8741.00000
35.37000	8778.00000
35.38000	8832.00000
35.39000	8880.00000
35.40000	8881.00000
35.41000	8916.00000
35.42000	8866.00000
35.43000	8904.00000
35.44000	8969.00000
35.45000	8975.00000
35.46000	8958.00000
35.47000	9014.00000
35.48000	8993.00000
35.49000	9004.00000
35.50000	9095.00000
35.51000	9093.00000
35.52000	9007.00000
35.53000	9095.00000
35.54000	9107.00000
35.55000	9167.00000
35.56000	9281.00000
35.57000	9421.00000
35.58000	9465.00000
35.59000	9601.00000
35.60000	9647.00000
35.61000	9759.00000
35.62000	9810.00000
35.63000	9930.00000
35.64000	9964.00000
35.65000	9938.00000
35.66000	9964.00000
35.67000	10017.00000
35.68000	10037.00000
35.69000	10038.00000
35.70000	9932.00000
35.71000	9920.00000
35.72000	9889.00000
35.73000	9853.00000
35.74000	9850.00000
35.75000	9776.00000
35.76000	9645.00000
35.77000	9597.00000
35.78000	9550.00000
35.79000	9509.00000
35.80000	9515.00000
35.81000	9478.00000
35.82000	9374.00000
35.83000	9327.00000
35.84000	9317.00000
35.85000	9284.00000
35.86000	9238.00000
35.87000	9180.00000
35.88000	9114.00000
35.89000	9095.00000
35.90000	9154.00000
35.91000	9123.00000
35.92000	9165.00000
35.93000	9186.00000
35.94000	9132.00000
35.95000	9101.00000
35.96000	9107.00000
35.97000	9124.00000
35.98000	9168.00000
35.99000	9211.00000
36.00000	9180.00000
36.01000	9279.00000
36.02000	9317.00000
36.03000	9431.00000
36.04000	9451.00000
36.05000	9640.00000
36.06000	9655.00000
36.07000	9831.00000
36.08000	9966.00000
36.09000	10104.00000
36.10000	10210.00000
36.11000	10242.00000
36.12000	10132.00000
36.13000	10011.00000
36.14000	9816.00000
36.15000	9646.00000
36.16000	9440.00000
36.17000	9357.00000
36.18000	9249.00000
36.19000	9228.00000
36.20000	9144.00000
36.21000	9065.00000
36.22000	9090.00000
36.23000	9135.00000
36.24000	9140.00000
36.25000	9155.00000
36.26000	9169.00000
36.27000	9256.00000
36.28000	9414.00000
36.29000	9520.00000
36.30000	9621.00000
36.31000	9770.00000
36.32000	9971.00000
36.33000	10188.00000
36.34000	10342.00000
36.35000	10428.00000
36.36000	10512.00000
36.37000	10533.00000
36.38000	10413.00000
36.39000	10334.00000
36.40000	10201.00000
36.41000	10185.00000
36.42000	10053.00000
36.43000	10110.00000
36.44000	10008.00000
36.45000	9992.00000
36.46000	10009.00000
36.47000	10001.00000
36.48000	9872.00000
36.49000	9905.00000
36.50000	9926.00000
36.51000	9882.00000
36.52000	9863.00000
36.53000	9835.00000
36.54000	9729.00000
36.55000	9693.00000
36.56000	9581.00000
36.57000	9544.00000
36.58000	9524.00000
36.59000	9445.00000
36.60000	9332.00000
36.61000	9328.00000
36.62000	9268.00000
36.63000	9267.00000
36.64000	9340.00000
36.65000	9288.00000
36.66000	9340.00000
36.67000	9355.00000
36.68000	9378.00000
36.69000	9413.00000
36.70000	9522.00000
36.71000	9543.00000
36.72000	9528.00000
36.73000	9583.00000
36.74000	9570.00000
36.75000	9448.00000
36.76000	9461.00000
36.77000	9446.00000
36.78000	9339.00000
36.79000	9317.00000
36.80000	9315.00000
36.81000	9387.00000
36.82000	9443.00000
36.83000	9487.00000
36.84000	9530.00000
36.85000	9776.00000
36.86000	9861.00000
36.87000	10070.00000
36.88000	10205.00000
36.89000	10439.00000
36.90000	10539.00000
36.91000	10690.00000
36.92000	10685.00000
36.93000	10812.00000
36.94000	10842.00000
36.95000	10761.00000
36.96000	10628.00000
36.97000	10504.00000
36.98000	10304.00000
36.99000	10186.00000
37.00000	10033.00000
37.01000	9839.00000
37.02000	9616.00000
37.03000	9517.00000
37.04000	9437.00000
37.05000	9282.00000
37.06000	9229.00000
37.07000	9161.00000
37.08000	9061.00000
37.09000	9031.00000
37.10000	8977.00000
37.11000	8914.00000
37.12000	8922.00000
37.13000	8936.00000
37.14000	8901.00000
37.15000	8902.00000
37.16000	8826.00000
37.17000	8885.00000
37.18000	8883.00000
37.19000	8869.00000
37.20000	8790.00000
37.21000	8766.00000
37.22000	8763.00000
37.23000	8715.00000
37.24000	8689.00000
37.25000	8611.00000
37.26000	8564.00000
37.27000	8524.00000
37.28000	8546.00000
37.29000	8480.00000
37.30000	8541.00000
37.31000	8508.00000
37.32000	8460.00000
37.33000	8456.00000
37.34000	8460.00000
37.35000	8472.00000
37.36000	8489.00000
37.37000	8511.00000
37.38000	8487.00000
37.39000	8521.00000
37.40000	8524.00000
37.41000	8517.00000
37.42000	8577.00000
37.43000	8591.00000
37.44000	8587.00000
37.45000	8608.00000
37.46000	8699.00000
37.47000	8691.00000
37.48000	8747.00000
37.49000	8816.00000
37.50000	8836.00000
37.51000	8917.00000
37.52000	8913.00000
37.53000	8917.00000
37.54000	8934.00000
37.55000	8844.00000
37.56000	8748.00000
37.57000	8734.00000
37.58000	8743.00000
37.59000	8574.00000
37.60000	8564.00000
37.61000	8521.00000
37.62000	8411.00000
37.63000	8386.00000
37.64000	8355.00000
37.65000	8349.00000
37.66000	8368.00000
37.67000	8333.00000
37.68000	8274.00000
37.69000	8324.00000
37.70000	8367.00000
37.71000	8379.00000
37.72000	8430.00000
37.73000	8441.00000
37.74000	8442.00000
37.75000	8493.00000
37.76000	8518.00000
37.77000	8555.00000
37.78000	8705.00000
37.79000	8714.00000
37.80000	8785.00000
37.81000	8854.00000
37.82000	8938.00000
37.83000	8956.00000
37.84000	8984.00000
37.85000	9064.00000
37.86000	8971.00000
37.87000	9004.00000
37.88000	8975.00000
37.89000	8921.00000
37.90000	8910.00000
37.91000	8914.00000
37.92000	8790.00000
37.93000	8734.00000
37.94000	8721.00000
37.95000	8690.00000
37.96000	8631.00000
37.97000	8583.00000
37.98000	8552.00000
37.99000	8545.00000
38.00000	8463.00000
38.01000	8459.00000
38.02000	8491.00000
38.03000	8499.00000
38.04000	8404.00000
38.05000	8371.00000
38.06000	8392.00000
38.07000	8305.00000
38.08000	8360.00000
38.09000	8335.00000
38.10000	8303.00000
38.11000	8254.00000
38.12000	8263.00000
38.13000	8239.00000
38.14000	8263.00000
38.15000	8219.00000
38.16000	8146.00000
38.17000	8188.00000
38.18000	8180.00000
38.19000	8100.00000
38.20000	8153.00000
38.21000	8131.00000
38.22000	8058.00000
38.23000	8062.00000
38.24000	8069.00000
38.25000	8058.00000
38.26000	8021.00000
38.27000	8028.00000
38.28000	8017.00000
38.29000	8036.00000
