10.00000	10767.00000
10.01998	10896.00000
10.03996	10745.00000
10.05994	10681.00000
10.07992	10674.00000
10.09990	10665.00000
10.11988	10589.00000
10.13986	10709.00000
10.15984	10520.00000
10.17982	10392.00000
10.19980	10334.00000
10.21978	10386.00000
10.23976	10209.00000
10.25974	10175.00000
10.27972	10243.00000
10.29970	10038.00000
10.31968	9938.00000
10.33966	9879.00000
10.35964	9885.00000
10.37962	9881.00000
10.39960	9668.00000
10.41958	9756.00000
10.43956	9631.00000
10.45954	9507.00000
10.47952	9513.00000
10.49950	9562.00000
10.51948	9502.00000
10.53946	9459.00000
10.55944	9298.00000
10.57942	9229.00000
10.59940	9056.00000
10.61938	9201.00000
10.63936	9172.00000
10.65934	9043.00000
10.67932	8978.00000
10.69930	8863.00000
10.71928	8826.00000
10.73926	8744.00000
10.75924	8982.00000
10.77922	8498.00000
10.79920	8426.00000
10.81918	8501.00000
10.83916	8490.00000
10.85914	8440.00000
10.87912	8401.00000
10.89910	8510.00000
10.91908	8138.00000
10.93906	8167.00000
10.95904	8091.00000
10.97902	8264.00000
10.99900	8140.00000
11.01898	8129.00000
11.03896	8002.00000
11.05894	7912.00000
11.07892	8038.00000
11.09890	7927.00000
11.11888	7887.00000
11.13886	7823.00000
11.15884	7907.00000
11.17882	7674.00000
11.19880	7687.00000
11.21878	7673.00000
11.23876	7535.00000
11.25874	7456.00000
11.27872	7494.00000
11.29870	7370.00000
11.31868	7489.00000
11.33866	7368.00000
11.35864	7153.00000
11.37862	7253.00000
11.39860	7099.00000
11.41858	7139.00000
11.43856	7040.00000
11.45854	7005.00000
11.47852	7087.00000
11.49850	6912.00000
11.51848	6951.00000
11.53846	6761.00000
11.55844	6896.00000
11.57842	6709.00000
11.59840	6752.00000
11.61838	6758.00000
11.63836	6663.00000
11.65834	6523.00000
11.67832	6520.00000
11.69830	6355.00000
11.71828	6478.00000
11.73826	6419.00000
11.75824	6401.00000
11.77822	6164.00000
11.79820	6332.00000
11.81818	6159.00000
11.83816	6134.00000
11.85814	6299.00000
11.87812	6091.00000
11.89810	6101.00000
11.91808	6088.00000
11.93806	5948.00000
11.95804	5880.00000
11.97802	5825.00000
11.99800	5948.00000
12.01798	5815.00000
12.03796	5893.00000
12.05794	5764.00000
12.07792	5726.00000
12.09790	5693.00000
12.11788	5608.00000
12.13786	5422.00000
12.15784	5641.00000
12.17782	5413.00000
12.19780	5405.00000
12.21778	5517.00000
12.23776	5319.00000
12.25774	5330.00000
12.27772	5222.00000
12.29770	5360.00000
12.31768	5379.00000
12.33766	5139.00000
12.35764	5002.00000
12.37762	5085.00000
12.39760	4945.00000
12.41758	5224.00000
12.43756	4993.00000
12.45754	4885.00000
12.47752	5027.00000
12.49750	4951.00000
12.51748	4865.00000
12.53746	4880.00000
12.55744	4804.00000
12.57742	4800.00000
12.59740	4786.00000
12.61738	4636.00000
12.63736	4744.00000
12.65734	4622.00000
12.67732	4582.00000
12.69730	4570.00000
12.71728	4602.00000
12.73726	4607.00000
12.75724	4522.00000
12.77722	4454.00000
12.79720	4477.00000
12.81718	4409.00000
12.83716	4436.00000
12.85714	4484.00000
12.87712	4326.00000
12.89710	4336.00000
12.91708	4245.00000
12.93706	4391.00000
12.95704	4223.00000
12.97702	4145.00000
12.99700	4280.00000
13.01698	4255.00000
13.03696	4163.00000
13.05694	4272.00000
13.07692	4062.00000
13.09690	4264.00000
13.11688	4026.00000
13.13686	4206.00000
13.15684	3991.00000
13.17682	4108.00000
13.19680	4133.00000
13.21678	4102.00000
13.23676	4195.00000
13.25674	4059.00000
13.27672	4023.00000
13.29670	4097.00000
13.31668	4043.00000
13.33666	3960.00000
13.35664	4029.00000
13.37662	3992.00000
13.39660	4028.00000
13.41658	4010.00000
13.43656	3953.00000
13.45654	3951.00000
13.47652	4000.00000
13.49650	3929.00000
13.51648	3859.00000
13.53646	3870.00000
13.55644	3750.00000
13.57642	3852.00000
13.59640	3811.00000
13.61638	3905.00000
13.63636	3745.00000
13.65634	3899.00000
13.67632	3765.00000
13.69630	3806.00000
13.71628	3827.00000
13.73626	3924.00000
13.75624	3874.00000
13.77622	3765.00000
13.79620	3879.00000
13.81618	3723.00000
13.83616	3872.00000
13.85614	3756.00000
13.87612	3633.00000
13.89610	3856.00000
13.91608	3791.00000
13.93606	3700.00000
13.95604	3771.00000
13.97602	3802.00000
13.99600	3708.00000
14.01598	3651.00000
14.03596	3840.00000
14.05594	3735.00000
14.07592	3656.00000
14.09590	3738.00000
14.11588	3700.00000
14.13586	3694.00000
14.15584	3581.00000
14.17582	3687.00000
14.19580	3601.00000
14.21578	3708.00000
14.23576	3559.00000
14.25574	3733.00000
14.27572	3728.00000
14.29570	3622.00000
14.31568	3561.00000
14.33566	3638.00000
14.35564	3582.00000
14.37562	3569.00000
14.39560	3586.00000
14.41558	3651.00000
14.43556	3564.00000
14.45554	3508.00000
14.47552	3517.00000
14.49550	3520.00000
14.51548	3453.00000
14.53546	3519.00000
14.55544	3637.00000
14.57542	3471.00000
14.59540	3590.00000
14.61538	3604.00000
14.63536	3580.00000
14.65534	3493.00000
14.67532	3458.00000
14.69530	3492.00000
14.71528	3539.00000
14.73526	3540.00000
14.75524	3459.00000
14.77522	3429.00000
14.79520	3480.00000
14.81518	3408.00000
14.83516	3445.00000
14.85514	3376.00000
14.87512	3293.00000
14.89510	3387.00000
14.91508	3325.00000
14.93506	3415.00000
14.95504	3422.00000
14.97502	3275.00000
14.99500	3376.00000
15.01498	3417.00000
15.03496	3241.00000
15.05494	3297.00000
15.07492	3317.00000
15.09490	3326.00000
15.11488	3391.00000
15.13486	3320.00000
15.15484	3300.00000
15.17482	3291.00000
15.19480	3238.00000
15.21478	3281.00000
15.23476	3311.00000
15.25474	3137.00000
15.27472	3226.00000
15.29470	3196.00000
15.31468	3201.00000
15.33466	3155.00000
15.35464	3233.00000
15.37462	3280.00000
15.39460	3127.00000
15.41458	3333.00000
15.43456	3182.00000
15.45454	3175.00000
15.47452	3094.00000
15.49450	3141.00000
15.51448	3252.00000
15.53446	3350.00000
15.55444	3115.00000
15.57442	3127.00000
15.59440	3099.00000
15.61438	3128.00000
15.63436	3190.00000
15.65434	3159.00000
15.67432	3078.00000
15.69430	3003.00000
15.71428	3137.00000
15.73426	3138.00000
15.75424	3171.00000
15.77422	3141.00000
15.79420	3099.00000
15.81418	2986.00000
15.83416	3122.00000
15.85414	3025.00000
15.87412	3030.00000
15.89410	3089.00000
15.91408	3077.00000
15.93406	3045.00000
15.95404	2955.00000
15.97402	3031.00000
15.99400	2979.00000
16.01398	2992.00000
16.03396	3013.00000
16.05394	3076.00000
16.07392	3005.00000
16.09390	2953.00000
16.11388	3043.00000
16.13386	2897.00000
16.15384	3034.00000
16.17382	2960.00000
16.19380	3047.00000
16.21378	2987.00000
16.23376	2998.00000
16.25374	2964.00000
16.27372	2918.00000
16.29370	2875.00000
16.31368	2892.00000
16.33366	2964.00000
16.35364	2949.00000
16.37362	2877.00000
16.39360	2910.00000
16.41358	2899.00000
16.43356	2893.00000
16.45354	2967.00000
16.47352	2961.00000
16.49350	2823.00000
16.51348	2947.00000
16.53346	2829.00000
16.55344	2873.00000
16.57342	2939.00000
16.59340	2898.00000
16.61338	2898.00000
16.63336	2883.00000
16.65334	2895.00000
16.67332	2839.00000
16.69330	2837.00000
16.71328	2794.00000
16.73326	2939.00000
16.75324	2848.00000
16.77322	2727.00000
16.79320	2838.00000
16.81318	2732.00000
16.83316	2888.00000
16.85314	2772.00000
16.87312	2834.00000
16.89310	2760.00000
16.91308	2811.00000
16.93306	2786.00000
16.95304	2809.00000
16.97302	2828.00000
16.99300	2778.00000
17.01298	2816.00000
17.03296	2827.00000
17.05294	2788.00000
17.07292	2802.00000
17.09290	2766.00000
17.11288	2714.00000
17.13286	2741.00000
17.15284	2752.00000
17.17282	2675.00000
17.19280	2766.00000
17.21278	2760.00000
17.23276	2687.00000
17.25274	2757.00000
17.27272	2737.00000
17.29270	2723.00000
17.31268	2709.00000
17.33266	2743.00000
17.35264	2749.00000
17.37262	2653.00000
17.39260	2729.00000
17.41258	2631.00000
17.43256	2687.00000
17.45254	2728.00000
17.47252	2712.00000
17.49250	2692.00000
17.51248	2668.00000
17.53246	2573.00000
17.55244	2693.00000
17.57242	2552.00000
17.59240	2530.00000
17.61238	2682.00000
17.63236	2700.00000
17.65234	2562.00000
17.67232	2575.00000
17.69230	2675.00000
17.71228	2641.00000
17.73226	2564.00000
17.75224	2649.00000
17.77222	2572.00000
17.79220	2514.00000
17.81218	2632.00000
17.83216	2534.00000
17.85214	2451.00000
17.87212	2438.00000
17.89210	2554.00000
17.91208	2498.00000
17.93206	2475.00000
17.95204	2433.00000
17.97202	2377.00000
17.99200	2521.00000
18.01198	2507.00000
18.03196	2503.00000
18.05194	2507.00000
18.07192	2409.00000
18.09190	2469.00000
18.11188	2466.00000
18.13186	2437.00000
18.15184	2482.00000
18.17182	2508.00000
18.19180	2443.00000
18.21178	2403.00000
18.23176	2445.00000
18.25174	2353.00000
18.27172	2415.00000
18.29170	2341.00000
18.31168	2370.00000
18.33166	2500.00000
18.35164	2456.00000
18.37162	2457.00000
18.39160	2456.00000
18.41158	2355.00000
18.43156	2446.00000
18.45154	2372.00000
18.47152	2448.00000
18.49150	2404.00000
18.51148	2328.00000
18.53146	2313.00000
18.55144	2376.00000
18.57142	2340.00000
18.59140	2287.00000
18.61138	2291.00000
18.63136	2310.00000
18.65134	2237.00000
18.67132	2326.00000
18.69130	2314.00000
18.71128	2360.00000
18.73126	2342.00000
18.75124	2296.00000
18.77122	2334.00000
18.79120	2276.00000
18.81118	2243.00000
18.83116	2366.00000
18.85114	2372.00000
18.87112	2244.00000
18.89110	2324.00000
18.91108	2236.00000
18.93106	2220.00000
18.95104	2189.00000
18.97102	2311.00000
18.99100	2209.00000
19.01098	2264.00000
19.03096	2265.00000
19.05094	2210.00000
19.07092	2171.00000
19.09090	2132.00000
19.11088	2162.00000
19.13086	2270.00000
19.15084	2166.00000
19.17082	2133.00000
19.19080	2148.00000
19.21078	2237.00000
19.23076	2169.00000
19.25074	2148.00000
19.27072	2172.00000
19.29070	2178.00000
19.31068	2149.00000
19.33066	2142.00000
19.35064	2223.00000
19.37062	2262.00000
19.39060	2109.00000
19.41058	2117.00000
19.43056	2179.00000
19.45054	2107.00000
19.47052	2131.00000
19.49050	2171.00000
19.51048	2097.00000
19.53046	2050.00000
19.55044	2114.00000
19.57042	2198.00000
19.59040	2083.00000
19.61038	2116.00000
19.63036	2150.00000
19.65034	2146.00000
19.67032	2228.00000
19.69030	2120.00000
19.71028	2165.00000
19.73026	2136.00000
19.75024	2115.00000
19.77022	2066.00000
19.79020	2094.00000
19.81018	2128.00000
19.83016	2162.00000
19.85014	2102.00000
19.87012	2044.00000
19.89010	2191.00000
19.91008	2126.00000
19.93006	2250.00000
19.95004	2142.00000
19.97002	2137.00000
19.99000	2193.00000
20.00998	2177.00000
20.02996	2290.00000
20.04994	2232.00000
20.06992	2204.00000
20.08990	2182.00000
20.10988	2251.00000
20.12986	2129.00000
20.14984	2305.00000
20.16982	2230.00000
20.18980	2131.00000
20.20978	2152.00000
20.22976	2197.00000
20.24974	2251.00000
20.26972	2237.00000
20.28970	2256.00000
20.30968	2272.00000
20.32966	2275.00000
20.34964	2114.00000
20.36962	2217.00000
20.38960	2153.00000
20.40958	2275.00000
20.42956	2223.00000
20.44954	2075.00000
20.46952	2208.00000
20.48950	2154.00000
20.50948	2290.00000
20.52946	2216.00000
20.54944	2201.00000
20.56942	2168.00000
20.58940	2230.00000
20.60938	2311.00000
20.62936	2239.00000
20.64934	2251.00000
20.66932	2293.00000
20.68930	2246.00000
20.70928	2323.00000
20.72926	2172.00000
20.74924	2316.00000
20.76922	2244.00000
20.78920	2210.00000
20.80918	2260.00000
20.82916	2318.00000
20.84914	2182.00000
20.86912	2266.00000
20.88910	2227.00000
20.90908	2126.00000
20.92906	2070.00000
20.94904	2145.00000
20.96902	2138.00000
20.98900	2117.00000
21.00898	2118.00000
21.02896	2113.00000
21.04894	2114.00000
21.06892	2079.00000
21.08890	2116.00000
21.10888	2164.00000
21.12886	2131.00000
21.14884	2118.00000
21.16882	2068.00000
21.18880	2122.00000
21.20878	2034.00000
21.22876	2029.00000
21.24874	2123.00000
21.26872	2030.00000
21.28870	2052.00000
21.30868	2032.00000
21.32866	1969.00000
21.34864	2011.00000
21.36862	1957.00000
21.38860	1908.00000
21.40858	1970.00000
21.42856	1937.00000
21.44854	1956.00000
21.46852	1955.00000
21.48850	1966.00000
21.50848	1997.00000
21.52846	1940.00000
21.54844	1880.00000
21.56842	1883.00000
21.58840	1912.00000
21.60838	1864.00000
21.62836	1952.00000
21.64834	1921.00000
21.66832	1874.00000
21.68830	1944.00000
21.70828	1896.00000
21.72826	1906.00000
21.74824	1825.00000
21.76822	1907.00000
21.78820	1862.00000
21.80818	1993.00000
21.82816	1868.00000
21.84814	1859.00000
21.86812	1896.00000
21.88810	1885.00000
21.90808	1888.00000
21.92806	1959.00000
21.94804	1908.00000
21.96802	1909.00000
21.98800	1972.00000
22.00798	1847.00000
22.02796	1843.00000
22.04794	1871.00000
22.06792	1864.00000
22.08790	1856.00000
22.10788	1844.00000
22.12786	1818.00000
22.14784	1797.00000
22.16782	1850.00000
22.18780	1818.00000
22.20778	1786.00000
22.22776	1754.00000
22.24774	1833.00000
22.26772	1757.00000
22.28770	1771.00000
22.30768	1774.00000
22.32766	1735.00000
22.34764	1756.00000
22.36762	1768.00000
22.38760	1733.00000
22.40758	1714.00000
22.42756	1772.00000
22.44754	1699.00000
22.46752	1736.00000
22.48750	1790.00000
22.50748	1766.00000
22.52746	1806.00000
22.54744	1811.00000
22.56742	1765.00000
22.58740	1768.00000
22.60738	1748.00000
22.62736	1856.00000
22.64734	1814.00000
22.66732	1771.00000
22.68730	1769.00000
22.70728	1769.00000
22.72726	1709.00000
22.74724	1743.00000
22.76722	1822.00000
22.78720	1801.00000
22.80718	1765.00000
22.82716	1780.00000
22.84714	1748.00000
22.86712	1747.00000
22.88710	1789.00000
22.90708	1812.00000
22.92706	1807.00000
22.94704	1778.00000
22.96702	1817.00000
22.98700	1766.00000
23.00698	1795.00000
23.02696	1802.00000
23.04694	1809.00000
23.06692	1815.00000
23.08690	1837.00000
23.10688	1798.00000
23.12686	1839.00000
23.14684	1864.00000
23.16682	1836.00000
23.18680	1906.00000
23.20678	1888.00000
23.22676	1846.00000
23.24674	1741.00000
23.26672	1846.00000
23.28670	1862.00000
23.30668	1830.00000
23.32666	1859.00000
23.34664	1862.00000
23.36662	1829.00000
23.38660	1985.00000
23.40658	1847.00000
23.42656	1898.00000
23.44654	1915.00000
23.46652	1967.00000
23.48650	2045.00000
23.50648	2051.00000
23.52646	2096.00000
23.54644	2226.00000
23.56642	2175.00000
23.58640	2211.00000
23.60638	2113.00000
23.62636	2207.00000
23.64634	2149.00000
23.66632	2207.00000
23.68630	2269.00000
23.70628	2318.00000
23.72626	2249.00000
23.74624	2337.00000
23.76622	2340.00000
23.78620	2309.00000
23.80618	2350.00000
23.82616	2295.00000
23.84614	2463.00000
23.86612	2494.00000
23.88610	2551.00000
23.90608	2514.00000
23.92606	2641.00000
23.94604	2731.00000
23.96602	2787.00000
23.98600	2907.00000
24.00598	3097.00000
24.02596	3245.00000
24.04594	3560.00000
24.06592	3665.00000
24.08590	4111.00000
24.10588	4532.00000
24.12586	5131.00000
24.14584	5659.00000
24.16582	6567.00000
24.18580	7845.00000
24.20578	9394.00000
24.22576	11915.00000
24.24574	14885.00000
24.26572	18676.00000
24.28570	23141.00000
24.30568	27992.00000
24.32566	33394.00000
24.34564	37949.00000
24.36562	42391.00000
24.38560	44954.00000
24.40558	45274.00000
24.42556	42318.00000
24.44554	37720.00000
24.46552	31756.00000
24.48550	25790.00000
24.50548	20515.00000
24.52546	16160.00000
24.54544	13017.00000
24.56542	10282.00000
24.58540	8320.00000
24.60538	7165.00000
24.62536	6197.00000
24.64534	5302.00000
24.66532	4692.00000
24.68530	4219.00000
24.70528	3941.00000
24.72526	3664.00000
24.74524	3380.00000
24.76522	3179.00000
24.78520	3015.00000
24.80518	2887.00000
24.82516	2781.00000
24.84514	2680.00000
24.86512	2572.00000
24.88510	2548.00000
24.90508	2413.00000
24.92506	2417.00000
24.94504	2334.00000
24.96502	2260.00000
24.98500	2248.00000
25.00498	2239.00000
25.02496	2192.00000
25.04494	2179.00000
25.06492	2142.00000
25.08490	2145.00000
25.10488	2181.00000
25.12486	2029.00000
25.14484	2075.00000
25.16482	2086.00000
25.18480	2087.00000
25.20478	2068.00000
25.22476	2049.00000
25.24474	2008.00000
25.26472	2013.00000
25.28470	2040.00000
25.30468	2022.00000
25.32466	1983.00000
25.34464	2005.00000
25.36462	1944.00000
25.38460	1879.00000
25.40458	1864.00000
25.42456	1854.00000
25.44454	1855.00000
25.46452	1834.00000
25.48450	1848.00000
25.50448	1878.00000
25.52446	1868.00000
25.54444	1900.00000
25.56442	1802.00000
25.58440	1844.00000
25.60438	1775.00000
25.62436	1854.00000
25.64434	1781.00000
25.66432	1759.00000
25.68430	1717.00000
25.70428	1785.00000
25.72426	1821.00000
25.74424	1800.00000
25.76422	1750.00000
25.78420	1721.00000
25.80418	1768.00000
25.82416	1756.00000
25.84414	1756.00000
25.86412	1723.00000
25.88410	1796.00000
25.90408	1672.00000
25.92406	1739.00000
25.94404	1666.00000
25.96402	1672.00000
25.98400	1737.00000
26.00398	1673.00000
26.02396	1691.00000
26.04394	1726.00000
26.06392	1600.00000
26.08390	1710.00000
26.10388	1636.00000
26.12386	1672.00000
26.14384	1660.00000
26.16382	1621.00000
26.18380	1641.00000
26.20378	1712.00000
26.22376	1701.00000
26.24374	1611.00000
26.26372	1676.00000
26.28370	1661.00000
26.30368	1644.00000
26.32366	1680.00000
26.34364	1592.00000
26.36362	1603.00000
26.38360	1671.00000
26.40358	1627.00000
26.42356	1590.00000
26.44354	1661.00000
26.46352	1586.00000
26.48350	1639.00000
26.50348	1637.00000
26.52346	1707.00000
26.54344	1758.00000
26.56342	1593.00000
26.58340	1667.00000
26.60338	1662.00000
26.62336	1624.00000
26.64334	1662.00000
26.66332	1627.00000
26.68330	1598.00000
26.70328	1629.00000
26.72326	1603.00000
26.74324	1597.00000
26.76322	1525.00000
26.78320	1624.00000
26.80318	1543.00000
26.82316	1537.00000
26.84314	1497.00000
26.86312	1563.00000
26.88310	1646.00000
26.90308	1591.00000
26.92306	1524.00000
26.94304	1508.00000
26.96302	1550.00000
26.98300	1589.00000
27.00298	1618.00000
27.02296	1545.00000
27.04294	1515.00000
27.06292	1574.00000
27.08290	1575.00000
27.10288	1509.00000
27.12286	1535.00000
27.14284	1498.00000
27.16282	1554.00000
27.18280	1523.00000
27.20278	1532.00000
27.22276	1439.00000
27.24274	1559.00000
27.26272	1546.00000
27.28270	1493.00000
27.30268	1544.00000
27.32266	1548.00000
27.34264	1513.00000
27.36262	1585.00000
27.38260	1562.00000
27.40258	1588.00000
27.42256	1568.00000
27.44254	1584.00000
27.46252	1584.00000
27.48250	1628.00000
27.50248	1663.00000
27.52246	1629.00000
27.54244	1609.00000
27.56242	1699.00000
27.58240	1720.00000
27.60238	1716.00000
27.62236	1799.00000
27.64234	1895.00000
27.66232	1805.00000
27.68230	1863.00000
27.70228	1790.00000
27.72226	1774.00000
27.74224	1762.00000
27.76222	1653.00000
27.78220	1621.00000
27.80218	1525.00000
27.82216	1572.00000
27.84214	1523.00000
27.86212	1512.00000
27.88210	1556.00000
27.90208	1519.00000
27.92206	1517.00000
27.94204	1542.00000
27.96202	1480.00000
27.98200	1548.00000
28.00198	1477.00000
28.02196	1538.00000
28.04194	1615.00000
28.06192	1562.00000
28.08190	1592.00000
28.10188	1669.00000
28.12186	1641.00000
28.14184	1727.00000
28.16182	1662.00000
28.18180	1769.00000
28.20178	1820.00000
28.22176	1796.00000
28.24174	1866.00000
28.26172	1859.00000
28.28170	1725.00000
28.30168	1734.00000
28.32166	1705.00000
28.34164	1638.00000
28.36162	1589.00000
28.38160	1596.00000
28.40158	1570.00000
28.42156	1507.00000
28.44154	1514.00000
28.46152	1525.00000
28.48150	1507.00000
28.50148	1511.00000
28.52146	1490.00000
28.54144	1540.00000
28.56142	1531.00000
28.58140	1483.00000
28.60138	1428.00000
28.62136	1431.00000
28.64134	1436.00000
28.66132	1420.00000
28.68130	1447.00000
28.70128	1436.00000
28.72126	1449.00000
28.74124	1413.00000
28.76122	1433.00000
28.78120	1466.00000
28.80118	1423.00000
28.82116	1377.00000
28.84114	1380.00000
28.86112	1424.00000
28.88110	1432.00000
28.90108	1325.00000
28.92106	1321.00000
28.94104	1331.00000
28.96102	1420.00000
28.98100	1346.00000
29.00098	1400.00000
29.02096	1423.00000
29.04094	1394.00000
29.06092	1360.00000
29.08090	1433.00000
29.10088	1422.00000
29.12086	1416.00000
29.14084	1476.00000
29.16082	1388.00000
29.18080	1311.00000
29.20078	1426.00000
29.22076	1342.00000
29.24074	1389.00000
29.26072	1437.00000
29.28070	1294.00000
29.30068	1429.00000
29.32066	1363.00000
29.34064	1375.00000
29.36062	1398.00000
29.38060	1318.00000
29.40058	1394.00000
29.42056	1399.00000
29.44054	1380.00000
29.46052	1335.00000
29.48050	1378.00000
29.50048	1415.00000
29.52046	1368.00000
29.54044	1368.00000
29.56042	1393.00000
29.58040	1304.00000
29.60038	1346.00000
29.62036	1374.00000
29.64034	1381.00000
29.66032	1364.00000
29.68030	1351.00000
29.70028	1394.00000
29.72026	1365.00000
29.74024	1388.00000
29.76022	1305.00000
29.78020	1356.00000
29.80018	1429.00000
29.82016	1306.00000
29.84014	1355.00000
29.86012	1413.00000
29.88010	1360.00000
29.90008	1387.00000
29.92006	1355.00000
29.94004	1353.00000
29.96002	1317.00000
29.98000	1320.00000
29.99998	1348.00000
30.01996	1282.00000
30.03994	1377.00000
30.05992	1376.00000
30.07990	1290.00000
30.09988	1355.00000
30.11986	1382.00000
30.13984	1289.00000
30.15982	1327.00000
30.17980	1379.00000
30.19978	1345.00000
30.21976	1342.00000
30.23974	1313.00000
30.25972	1316.00000
30.27970	1383.00000
30.29968	1377.00000
30.31966	1414.00000
30.33964	1340.00000
30.35962	1397.00000
30.37960	1387.00000
30.39958	1402.00000
30.41956	1422.00000
30.43954	1402.00000
30.45952	1342.00000
30.47950	1366.00000
30.49948	1311.00000
30.51946	1391.00000
30.53944	1334.00000
30.55942	1399.00000
30.57940	1506.00000
30.59938	1439.00000
30.61936	1510.00000
30.63934	1527.00000
30.65932	1566.00000
30.67930	1573.00000
30.69928	1672.00000
30.71926	1662.00000
30.73924	1548.00000
30.75922	1491.00000
30.77920	1513.00000
30.79918	1497.00000
30.81916	1423.00000
30.83914	1419.00000
30.85912	1362.00000
30.87910	1274.00000
30.89908	1345.00000
30.91906	1372.00000
30.93904	1317.00000
30.95902	1255.00000
30.97900	1354.00000
30.99898	1357.00000
31.01896	1346.00000
31.03894	1248.00000
31.05892	1358.00000
31.07890	1308.00000
31.09888	1394.00000
31.11886	1334.00000
31.13884	1293.00000
31.15882	1197.00000
31.17880	1247.00000
31.19878	1345.00000
31.21876	1332.00000
31.23874	1350.00000
31.25872	1355.00000
31.27870	1317.00000
31.29868	1217.00000
31.31866	1397.00000
31.33864	1345.00000
31.35862	1384.00000
31.37860	1269.00000
31.39858	1316.00000
31.41856	1279.00000
31.43854	1331.00000
31.45852	1274.00000
31.47850	1308.00000
31.49848	1274.00000
31.51846	1315.00000
31.53844	1251.00000
31.55842	1217.00000
31.57840	1304.00000
31.59838	1304.00000
31.61836	1323.00000
31.63834	1271.00000
31.65832	1252.00000
31.67830	1242.00000
31.69828	1290.00000
31.71826	1284.00000
31.73824	1305.00000
31.75822	1305.00000
31.77820	1296.00000
31.79818	1227.00000
31.81816	1304.00000
31.83814	1364.00000
31.85812	1241.00000
31.87810	1308.00000
31.89808	1400.00000
31.91806	1291.00000
31.93804	1221.00000
31.95802	1304.00000
31.97800	1289.00000
31.99798	1242.00000
32.01796	1253.00000
32.03794	1339.00000
32.05792	1269.00000
32.07790	1301.00000
32.09788	1308.00000
32.11786	1302.00000
32.13784	1274.00000
32.15782	1243.00000
32.17780	1278.00000
32.19778	1292.00000
32.21776	1233.00000
32.23774	1275.00000
32.25772	1272.00000
32.27770	1320.00000
32.29768	1296.00000
32.31766	1322.00000
32.33764	1303.00000
32.35762	1337.00000
32.37760	1331.00000
32.39758	1255.00000
32.41756	1286.00000
32.43754	1279.00000
32.45752	1281.00000
32.47750	1226.00000
32.49748	1320.00000
32.51746	1273.00000
32.53744	1229.00000
32.55742	1220.00000
32.57740	1251.00000
32.59738	1299.00000
32.61736	1270.00000
32.63734	1217.00000
32.65732	1257.00000
32.67730	1208.00000
32.69728	1226.00000
32.71726	1293.00000
32.73724	1281.00000
32.75722	1249.00000
32.77720	1205.00000
32.79718	1275.00000
32.81716	1244.00000
32.83714	1280.00000
32.85712	1173.00000
32.87710	1276.00000
32.89708	1248.00000
32.91706	1315.00000
32.93704	1305.00000
32.95702	1227.00000
32.97700	1246.00000
32.99698	1232.00000
33.01696	1248.00000
33.03694	1230.00000
33.05692	1284.00000
33.07690	1243.00000
33.09688	1213.00000
33.11686	1290.00000
33.13684	1220.00000
33.15682	1230.00000
33.17680	1253.00000
33.19678	1261.00000
33.21676	1287.00000
33.23674	1307.00000
33.25672	1242.00000
33.27670	1229.00000
33.29668	1262.00000
33.31666	1286.00000
33.33664	1297.00000
33.35662	1248.00000
33.37660	1270.00000
33.39658	1271.00000
33.41656	1255.00000
33.43654	1199.00000
33.45652	1269.00000
33.47650	1319.00000
33.49648	1240.00000
33.51646	1338.00000
33.53644	1260.00000
33.55642	1221.00000
33.57640	1287.00000
33.59638	1276.00000
33.61636	1262.00000
33.63634	1273.00000
33.65632	1186.00000
33.67630	1251.00000
33.69628	1175.00000
33.71626	1238.00000
33.73624	1220.00000
33.75622	1215.00000
33.77620	1228.00000
33.79618	1210.00000
33.81616	1222.00000
33.83614	1269.00000
33.85612	1244.00000
33.87610	1257.00000
33.89608	1287.00000
33.91606	1228.00000
33.93604	1259.00000
33.95602	1288.00000
33.97600	1278.00000
33.99598	1195.00000
34.01596	1205.00000
34.03594	1237.00000
34.05592	1213.00000
34.07590	1280.00000
34.09588	1251.00000
34.11586	1173.00000
34.13584	1259.00000
34.15582	1192.00000
34.17580	1201.00000
34.19578	1248.00000
34.21576	1200.00000
34.23574	1252.00000
34.25572	1270.00000
34.27570	1172.00000
34.29568	1229.00000
34.31566	1282.00000
34.33564	1248.00000
34.35562	1254.00000
34.37560	1265.00000
34.39558	1198.00000
34.41556	1179.00000
34.43554	1202.00000
34.45552	1196.00000
34.47550	1262.00000
34.49548	1201.00000
34.51546	1201.00000
34.53544	1222.00000
34.55542	1234.00000
34.57540	1253.00000
34.59538	1254.00000
34.61536	1220.00000
34.63534	1157.00000
34.65532	1235.00000
34.67530	1193.00000
34.69528	1189.00000
34.71526	1203.00000
34.73524	1217.00000
34.75522	1195.00000
34.77520	1163.00000
34.79518	1222.00000
34.81516	1180.00000
34.83514	1198.00000
34.85512	1195.00000
34.87510	1197.00000
34.89508	1202.00000
34.91506	1242.00000
34.93504	1132.00000
34.95502	1182.00000
34.97500	1200.00000
34.99498	1172.00000
35.01496	1229.00000
35.03494	1209.00000
35.05492	1170.00000
35.07490	1171.00000
35.09488	1216.00000
35.11486	1294.00000
35.13484	1210.00000
35.15482	1151.00000
35.17480	1181.00000
35.19478	1217.00000
35.21476	1191.00000
35.23474	1146.00000
35.25472	1229.00000
35.27470	1214.00000
35.29468	1214.00000
35.31466	1226.00000
35.33464	1221.00000
35.35462	1239.00000
35.37460	1225.00000
35.39458	1202.00000
35.41456	1256.00000
35.43454	1213.00000
35.45452	1221.00000
35.47450	1215.00000
35.49448	1250.00000
35.51446	1196.00000
35.53444	1281.00000
35.55442	1316.00000
35.57440	1329.00000
35.59438	1323.00000
35.61436	1190.00000
35.63434	1237.00000
35.65432	1192.00000
35.67430	1233.00000
35.69428	1215.00000
35.71426	1168.00000
35.73424	1231.00000
35.75422	1208.00000
35.77420	1207.00000
35.79418	1171.00000
35.81416	1199.00000
35.83414	1171.00000
35.85412	1184.00000
35.87410	1163.00000
35.89408	1185.00000
35.91406	1297.00000
35.93404	1183.00000
35.95402	1193.00000
35.97400	1141.00000
35.99398	1232.00000
36.01396	1180.00000
36.03394	1201.00000
36.05392	1207.00000
36.07390	1206.00000
36.09388	1203.00000
36.11386	1207.00000
36.13384	1212.00000
36.15382	1226.00000
36.17380	1239.00000
36.19378	1245.00000
36.21376	1237.00000
36.23374	1234.00000
36.25372	1290.00000
36.27370	1278.00000
36.29368	1253.00000
36.31366	1292.00000
36.33364	1204.00000
36.35362	1233.00000
36.37360	1226.00000
36.39358	1193.00000
36.41356	1238.00000
36.43354	1236.00000
36.45352	1254.00000
36.47350	1218.00000
36.49348	1168.00000
36.51346	1157.00000
36.53344	1222.00000
36.55342	1206.00000
36.57340	1186.00000
36.59338	1169.00000
36.61336	1204.00000
36.63334	1166.00000
36.65332	1247.00000
36.67330	1156.00000
36.69328	1265.00000
36.71326	1246.00000
36.73324	1204.00000
36.75322	1155.00000
36.77320	1199.00000
36.79318	1171.00000
36.81316	1160.00000
36.83314	1178.00000
36.85312	1164.00000
36.87310	1130.00000
36.89308	1195.00000
36.91306	1211.00000
36.93304	1211.00000
36.95302	1238.00000
36.97300	1145.00000
36.99298	1197.00000
37.01296	1219.00000
37.03294	1228.00000
37.05292	1219.00000
37.07290	1180.00000
37.09288	1224.00000
37.11286	1098.00000
37.13284	1211.00000
37.15282	1201.00000
37.17280	1136.00000
37.19278	1164.00000
37.21276	1215.00000
37.23274	1153.00000
37.25272	1173.00000
37.27270	1178.00000
37.29268	1172.00000
37.31266	1105.00000
37.33264	1127.00000
37.35262	1154.00000
37.37260	1163.00000
37.39258	1205.00000
37.41256	1186.00000
37.43254	1238.00000
37.45252	1209.00000
37.47250	1157.00000
37.49248	1179.00000
37.51246	1166.00000
37.53244	1157.00000
37.55242	1120.00000
37.57240	1195.00000
37.59238	1218.00000
37.61236	1213.00000
37.63234	1123.00000
37.65232	1140.00000
37.67230	1177.00000
37.69228	1179.00000
37.71226	1192.00000
37.73224	1220.00000
37.75222	1170.00000
37.77220	1168.00000
37.79218	1214.00000
37.81216	1220.00000
37.83214	1269.00000
37.85212	1192.00000
37.87210	1184.00000
37.89208	1194.00000
37.91206	1219.00000
37.93204	1161.00000
37.95202	1205.00000
37.97200	1132.00000
37.99198	1160.00000
38.01196	1167.00000
38.03194	1157.00000
38.05192	1207.00000
38.07190	1172.00000
38.09188	1198.00000
38.11186	1234.00000
38.13184	1272.00000
38.15182	1248.00000
38.17180	1295.00000
38.19178	1217.00000
38.21176	1211.00000
38.23174	1204.00000
38.25172	1272.00000
38.27170	1241.00000
38.29168	1318.00000
38.31166	1220.00000
38.33164	1213.00000
38.35162	1280.00000
38.37160	1300.00000
38.39158	1336.00000
38.41156	1328.00000
38.43154	1348.00000
38.45152	1298.00000
38.47150	1304.00000
38.49148	1295.00000
38.51146	1266.00000
38.53144	1319.00000
38.55142	1259.00000
38.57140	1184.00000
38.59138	1208.00000
38.61136	1271.00000
38.63134	1305.00000
38.65132	1282.00000
38.67130	1241.00000
38.69128	1309.00000
38.71126	1307.00000
38.73124	1277.00000
38.75122	1266.00000
38.77120	1303.00000
38.79118	1276.00000
38.81116	1290.00000
38.83114	1325.00000
38.85112	1349.00000
38.87110	1353.00000
38.89108	1321.00000
38.91106	1324.00000
38.93104	1354.00000
38.95102	1498.00000
38.97100	1386.00000
38.99098	1419.00000
39.01096	1409.00000
39.03094	1474.00000
39.05092	1362.00000
39.07090	1539.00000
39.09088	1435.00000
39.11086	1466.00000
39.13084	1487.00000
39.15082	1434.00000
39.17080	1382.00000
39.19078	1468.00000
39.21076	1513.00000
39.23074	1502.00000
39.25072	1552.00000
39.27070	1557.00000
39.29068	1435.00000
39.31066	1515.00000
39.33064	1456.00000
39.35062	1552.00000
39.37060	1528.00000
39.39058	1461.00000
39.41056	1481.00000
39.43054	1485.00000
39.45052	1513.00000
39.47050	1608.00000
39.49048	1657.00000
39.51046	1609.00000
39.53044	1685.00000
39.55042	1600.00000
39.57040	1625.00000
39.59038	1681.00000
39.61036	1726.00000
39.63034	1708.00000
39.65032	1811.00000
39.67030	1735.00000
39.69028	1879.00000
39.71026	1971.00000
39.73024	1960.00000
39.75022	1981.00000
39.77020	2057.00000
39.79018	2158.00000
39.81016	2238.00000
39.83014	2325.00000
39.85012	2540.00000
39.87010	2571.00000
39.89008	2796.00000
39.91006	3054.00000
39.93004	3291.00000
39.95002	3529.00000
39.97000	3810.00000
39.98998	4067.00000
40.00996	4457.00000
40.02994	5060.00000
40.04992	5628.00000
40.06990	6327.00000
40.08988	7313.00000
40.10986	8488.00000
40.12984	9877.00000
40.14982	11779.00000
40.16980	13795.00000
40.18978	16432.00000
40.20976	19149.00000
40.22974	21746.00000
40.24972	24263.00000
40.26970	25691.00000
40.28968	26708.00000
40.30966	26714.00000
40.32964	25380.00000
40.34962	24199.00000
40.36960	22460.00000
40.38958	20531.00000
40.40956	18343.00000
40.42954	16210.00000
40.44952	14016.00000
40.46950	12042.00000
40.48948	10461.00000
40.50946	9082.00000
40.52944	8011.00000
40.54942	7196.00000
40.56940	6357.00000
40.58938	5510.00000
40.60936	5005.00000
40.62934	4369.00000
40.64932	4152.00000
40.66930	3847.00000
40.68928	3382.00000
40.70926	3120.00000
40.72924	2890.00000
40.74922	2692.00000
40.76920	2562.00000
40.78918	2499.00000
40.80916	2325.00000
40.82914	2170.00000
40.84912	2170.00000
40.86910	2062.00000
40.88908	2015.00000
40.90906	2049.00000
40.92904	1948.00000
40.94902	1900.00000
40.96900	1892.00000
40.98898	1781.00000
41.00896	1777.00000
41.02894	1759.00000
41.04892	1687.00000
41.06890	1639.00000
41.08888	1618.00000
41.10886	1673.00000
41.12884	1683.00000
41.14882	1657.00000
41.16880	1643.00000
41.18878	1589.00000
41.20876	1569.00000
41.22874	1590.00000
41.24872	1485.00000
41.26870	1462.00000
41.28868	1493.00000
41.30866	1517.00000
41.32864	1487.00000
41.34862	1502.00000
41.36860	1543.00000
41.38858	1404.00000
41.40856	1378.00000
41.42854	1408.00000
41.44852	1474.00000
41.46850	1345.00000
41.48848	1448.00000
41.50846	1451.00000
41.52844	1430.00000
41.54842	1401.00000
41.56840	1390.00000
41.58838	1392.00000
41.60836	1358.00000
41.62834	1455.00000
41.64832	1367.00000
41.66830	1357.00000
41.68828	1359.00000
41.70826	1411.00000
41.72824	1409.00000
41.74822	1338.00000
41.76820	1322.00000
41.78818	1350.00000
41.80816	1358.00000
41.82814	1378.00000
41.84812	1342.00000
41.86810	1309.00000
41.88808	1358.00000
41.90806	1318.00000
41.92804	1232.00000
41.94802	1363.00000
41.96800	1336.00000
41.98798	1335.00000
42.00796	1294.00000
42.02794	1371.00000
42.04792	1322.00000
42.06790	1338.00000
42.08788	1247.00000
42.10786	1385.00000
42.12784	1228.00000
42.14782	1253.00000
42.16780	1264.00000
42.18778	1234.00000
42.20776	1277.00000
42.22774	1242.00000
42.24772	1219.00000
42.26770	1204.00000
42.28768	1308.00000
42.30766	1262.00000
42.32764	1246.00000
42.34762	1250.00000
42.36760	1239.00000
42.38758	1259.00000
42.40756	1264.00000
42.42754	1281.00000
42.44752	1229.00000
42.46750	1229.00000
42.48748	1191.00000
42.50746	1262.00000
42.52744	1261.00000
42.54742	1184.00000
42.56740	1250.00000
42.58738	1204.00000
42.60736	1194.00000
42.62734	1166.00000
42.64732	1304.00000
42.66730	1188.00000
42.68728	1268.00000
42.70726	1244.00000
42.72724	1237.00000
42.74722	1177.00000
42.76720	1253.00000
42.78718	1268.00000
42.80716	1195.00000
42.82714	1203.00000
42.84712	1208.00000
42.86710	1254.00000
42.88708	1184.00000
42.90706	1167.00000
42.92704	1279.00000
42.94702	1246.00000
42.96700	1197.00000
42.98698	1166.00000
43.00696	1192.00000
43.02694	1255.00000
43.04692	1189.00000
43.06690	1146.00000
43.08688	1162.00000
43.10686	1214.00000
43.12684	1177.00000
43.14682	1183.00000
43.16680	1181.00000
43.18678	1166.00000
43.20676	1246.00000
43.22674	1165.00000
43.24672	1204.00000
43.26670	1284.00000
43.28668	1183.00000
43.30666	1244.00000
43.32664	1178.00000
43.34662	1204.00000
43.36660	1177.00000
43.38658	1188.00000
43.40656	1146.00000
43.42654	1149.00000
43.44652	1159.00000
43.46650	1191.00000
43.48648	1216.00000
43.50646	1187.00000
43.52644	1150.00000
43.54642	1188.00000
43.56640	1179.00000
43.58638	1113.00000
43.60636	1259.00000
43.62634	1164.00000
43.64632	1179.00000
43.66630	1210.00000
43.68628	1173.00000
43.70626	1148.00000
43.72624	1174.00000
43.74622	1147.00000
43.76620	1180.00000
43.78618	1131.00000
43.80616	1154.00000
43.82614	1137.00000
43.84612	1201.00000
43.86610	1139.00000
43.88608	1130.00000
43.90606	1220.00000
43.92604	1155.00000
43.94602	1195.00000
43.96600	1191.00000
43.98598	1151.00000
44.00596	1173.00000
44.02594	1164.00000
44.04592	1184.00000
44.06590	1175.00000
44.08588	1153.00000
44.10586	1190.00000
44.12584	1216.00000
44.14582	1161.00000
44.16580	1167.00000
44.18578	1164.00000
44.20576	1228.00000
44.22574	1159.00000
44.24572	1158.00000
44.26570	1156.00000
44.28568	1113.00000
44.30566	1111.00000
44.32564	1136.00000
44.34562	1136.00000
44.36560	1176.00000
44.38558	1127.00000
44.40556	1142.00000
44.42554	1143.00000
44.44552	1110.00000
44.46550	1110.00000
44.48548	1161.00000
44.50546	1184.00000
44.52544	1153.00000
44.54542	1168.00000
44.56540	1156.00000
44.58538	1172.00000
44.60536	1159.00000
44.62534	1170.00000
44.64532	1114.00000
44.66530	1133.00000
44.68528	1177.00000
44.70526	1170.00000
44.72524	1143.00000
44.74522	1165.00000
44.76520	1144.00000
44.78518	1084.00000
44.80516	1154.00000
44.82514	1153.00000
44.84512	1155.00000
44.86510	1135.00000
44.88508	1193.00000
44.90506	1099.00000
44.92504	1109.00000
44.94502	1097.00000
44.96500	1164.00000
44.98498	1100.00000
45.00496	1212.00000
45.02494	1111.00000
45.04492	1181.00000
45.06490	1124.00000
45.08488	1164.00000
45.10486	1172.00000
45.12484	1184.00000
45.14482	1118.00000
45.16480	1109.00000
45.18478	1132.00000
45.20476	1077.00000
45.22474	1161.00000
45.24472	1123.00000
45.26470	1121.00000
45.28468	1074.00000
45.30466	1089.00000
45.32464	1079.00000
45.34462	1147.00000
45.36460	1189.00000
45.38458	1112.00000
45.40456	1166.00000
45.42454	1083.00000
45.44452	1113.00000
45.46450	1097.00000
45.48448	1124.00000
45.50446	1078.00000
45.52444	1081.00000
45.54442	1105.00000
45.56440	1149.00000
45.58438	1102.00000
45.60436	1099.00000
45.62434	1094.00000
45.64432	1166.00000
45.66430	1115.00000
45.68428	1202.00000
45.70426	1171.00000
45.72424	1158.00000
45.74422	1196.00000
45.76420	1116.00000
45.78418	1127.00000
45.80416	1190.00000
45.82414	1173.00000
45.84412	1220.00000
45.86410	1169.00000
45.88408	1120.00000
45.90406	1212.00000
45.92404	1196.00000
45.94402	1223.00000
45.96400	1219.00000
45.98398	1212.00000
46.00396	1190.00000
46.02394	1211.00000
46.04392	1250.00000
46.06390	1204.00000
46.08388	1194.00000
46.10386	1208.00000
46.12384	1212.00000
46.14382	1277.00000
46.16380	1176.00000
46.18378	1220.00000
46.20376	1295.00000
46.22374	1242.00000
46.24372	1246.00000
46.26370	1213.00000
46.28368	1252.00000
46.30366	1286.00000
46.32364	1255.00000
46.34362	1218.00000
46.36360	1347.00000
46.38358	1221.00000
46.40356	1310.00000
46.42354	1185.00000
46.44352	1278.00000
46.46350	1239.00000
46.48348	1260.00000
46.50346	1221.00000
46.52344	1293.00000
46.54342	1282.00000
46.56340	1276.00000
46.58338	1218.00000
46.60336	1339.00000
46.62334	1269.00000
46.64332	1348.00000
46.66330	1309.00000
46.68328	1268.00000
46.70326	1300.00000
46.72324	1359.00000
46.74322	1362.00000
46.76320	1404.00000
46.78318	1313.00000
46.80316	1378.00000
46.82314	1384.00000
46.84312	1410.00000
46.86310	1380.00000
46.88308	1442.00000
46.90306	1472.00000
46.92304	1512.00000
46.94302	1457.00000
46.96300	1556.00000
46.98298	1583.00000
47.00296	1568.00000
47.02294	1610.00000
47.04292	1589.00000
47.06290	1754.00000
47.08288	1729.00000
47.10286	1821.00000
47.12284	1932.00000
47.14282	1982.00000
47.16280	2105.00000
47.18278	2111.00000
47.20276	2186.00000
47.22274	2388.00000
47.24272	2536.00000
47.26270	2581.00000
47.28268	2847.00000
47.30266	3049.00000
47.32264	3352.00000
47.34262	3596.00000
47.36260	3904.00000
47.38258	4310.00000
47.40256	4960.00000
47.42254	5389.00000
47.44252	6129.00000
47.46250	7087.00000
47.48248	7831.00000
47.50246	8687.00000
47.52244	10012.00000
47.54242	10904.00000
47.56240	12181.00000
47.58238	12840.00000
47.60236	13275.00000
47.62234	13323.00000
47.64232	13384.00000
47.66230	12811.00000
47.68228	12237.00000
47.70226	11496.00000
47.72224	10921.00000
47.74222	10209.00000
47.76220	9410.00000
47.78218	8496.00000
47.80216	7534.00000
47.82214	6700.00000
47.84212	6084.00000
47.86210	5518.00000
47.88208	4842.00000
47.90206	4633.00000
47.92204	3867.00000
47.94202	3734.00000
47.96200	3300.00000
47.98198	2912.00000
48.00196	2826.00000
48.02194	2638.00000
48.04192	2419.00000
48.06190	2232.00000
48.08188	2237.00000
48.10186	1984.00000
48.12184	1902.00000
48.14182	1884.00000
48.16180	1774.00000
48.18178	1760.00000
48.20176	1649.00000
48.22174	1647.00000
48.24172	1565.00000
48.26170	1540.00000
48.28168	1445.00000
48.30166	1437.00000
48.32164	1437.00000
48.34162	1501.00000
48.36160	1409.00000
48.38158	1388.00000
48.40156	1388.00000
48.42154	1335.00000
48.44152	1341.00000
48.46150	1243.00000
48.48148	1269.00000
48.50146	1265.00000
48.52144	1236.00000
48.54142	1295.00000
48.56140	1225.00000
48.58138	1199.00000
48.60136	1210.00000
48.62134	1169.00000
48.64132	1179.00000
48.66130	1231.00000
48.68128	1182.00000
48.70126	1222.00000
48.72124	1201.00000
48.74122	1171.00000
48.76120	1087.00000
48.78118	1150.00000
48.80116	1156.00000
48.82114	1171.00000
48.84112	1093.00000
48.86110	1111.00000
48.88108	1123.00000
48.90106	1119.00000
48.92104	1165.00000
48.94102	1082.00000
48.96100	1081.00000
48.98098	1123.00000
49.00096	1095.00000
49.02094	1077.00000
49.04092	1043.00000
49.06090	1112.00000
49.08088	1115.00000
49.10086	1156.00000
49.12084	1047.00000
49.14082	1110.00000
49.16080	1076.00000
49.18078	1118.00000
49.20076	1043.00000
49.22074	1116.00000
49.24072	1090.00000
49.26070	1116.00000
49.28068	1104.00000
49.30066	1049.00000
49.32064	1112.00000
49.34062	1028.00000
49.36060	1103.00000
49.38058	1047.00000
49.40056	1128.00000
49.42054	1156.00000
49.44052	1109.00000
49.46050	1125.00000
49.48048	1020.00000
49.50046	1048.00000
49.52044	1146.00000
49.54042	1117.00000
49.56040	1121.00000
49.58038	1027.00000
49.60036	1048.00000
49.62034	1057.00000
49.64032	1084.00000
49.66030	1088.00000
49.68028	1064.00000
49.70026	1058.00000
49.72024	1089.00000
49.74022	1103.00000
49.76020	1091.00000
49.78018	1069.00000
49.80016	1150.00000
49.82014	1089.00000
49.84012	1100.00000
49.86010	1105.00000
49.88008	1097.00000
49.90006	1081.00000
49.92004	1131.00000
49.94002	1122.00000
49.96000	1078.00000
49.97998	1121.00000
49.99996	1035.00000
50.01994	1043.00000
50.03992	1053.00000
50.05990	1064.00000
50.07988	1051.00000
50.09986	992.00000
50.11984	985.00000
50.13982	1042.00000
50.15980	1003.00000
50.17978	1075.00000
50.19976	987.00000
50.21974	986.00000
50.23972	1025.00000
50.25970	1036.00000
50.27968	1027.00000
50.29966	989.00000
50.31964	969.00000
50.33962	1028.00000
50.35960	984.00000
50.37958	990.00000
50.39956	1019.00000
50.41954	1023.00000
50.43952	980.00000
50.45950	938.00000
50.47948	1010.00000
50.49946	1057.00000
50.51944	936.00000
50.53942	1001.00000
50.55940	1005.00000
50.57938	969.00000
50.59936	948.00000
50.61934	1012.00000
50.63932	976.00000
50.65930	971.00000
50.67928	964.00000
50.69926	928.00000
50.71924	1021.00000
50.73922	982.00000
50.75920	1026.00000
50.77918	954.00000
50.79916	1012.00000
50.81914	959.00000
50.83912	960.00000
50.85910	986.00000
50.87908	983.00000
50.89906	1004.00000
50.91904	920.00000
50.93902	969.00000
50.95900	935.00000
50.97898	1002.00000
50.99896	948.00000
51.01894	1069.00000
51.03892	1080.00000
51.05890	998.00000
51.07888	1025.00000
51.09886	1058.00000
51.11884	1034.00000
51.13882	1044.00000
51.15880	1078.00000
51.17878	1057.00000
51.19876	1027.00000
51.21874	1046.00000
51.23872	983.00000
51.25870	1016.00000
51.27868	947.00000
51.29866	983.00000
51.31864	1021.00000
51.33862	1003.00000
51.35860	936.00000
51.37858	992.00000
51.39856	970.00000
51.41854	956.00000
51.43852	981.00000
51.45850	934.00000
51.47848	992.00000
51.49846	960.00000
51.51844	923.00000
51.53842	930.00000
51.55840	930.00000
51.57838	855.00000
51.59836	984.00000
51.61834	941.00000
51.63832	981.00000
51.65830	882.00000
51.67828	936.00000
51.69826	973.00000
51.71824	946.00000
51.73822	907.00000
51.75820	958.00000
51.77818	951.00000
51.79816	921.00000
51.81814	919.00000
51.83812	930.00000
51.85810	972.00000
51.87808	943.00000
51.89806	902.00000
51.91804	946.00000
51.93802	929.00000
51.95800	940.00000
51.97798	943.00000
51.99796	897.00000
52.01794	885.00000
52.03792	929.00000
52.05790	906.00000
52.07788	949.00000
52.09786	978.00000
52.11784	934.00000
52.13782	978.00000
52.15780	991.00000
52.17778	957.00000
52.19776	924.00000
52.21774	923.00000
52.23772	916.00000
52.25770	1002.00000
52.27768	990.00000
52.29766	925.00000
52.31764	925.00000
52.33762	995.00000
52.35760	888.00000
52.37758	951.00000
52.39756	911.00000
52.41754	936.00000
52.43752	930.00000
52.45750	941.00000
52.47748	918.00000
52.49746	897.00000
52.51744	909.00000
52.53742	907.00000
52.55740	907.00000
52.57738	934.00000
52.59736	960.00000
52.61734	903.00000
52.63732	927.00000
52.65730	917.00000
52.67728	975.00000
52.69726	907.00000
52.71724	945.00000
52.73722	902.00000
52.75720	909.00000
52.77718	972.00000
52.79716	926.00000
52.81714	884.00000
52.83712	933.00000
52.85710	862.00000
52.87708	868.00000
52.89706	904.00000
52.91704	859.00000
52.93702	900.00000
52.95700	922.00000
52.97698	916.00000
52.99696	908.00000
53.01694	900.00000
53.03692	895.00000
53.05690	878.00000
53.07688	869.00000
53.09686	922.00000
53.11684	873.00000
53.13682	895.00000
53.15680	902.00000
53.17678	909.00000
53.19676	894.00000
53.21674	945.00000
53.23672	895.00000
53.25670	878.00000
53.27668	856.00000
53.29666	899.00000
53.31664	906.00000
53.33662	887.00000
53.35660	860.00000
53.37658	929.00000
53.39656	865.00000
53.41654	877.00000
53.43652	937.00000
53.45650	885.00000
53.47648	899.00000
53.49646	903.00000
53.51644	920.00000
53.53642	877.00000
53.55640	911.00000
53.57638	915.00000
53.59636	944.00000
53.61634	841.00000
53.63632	872.00000
53.65630	857.00000
53.67628	852.00000
53.69626	919.00000
53.71624	886.00000
53.73622	952.00000
53.75620	862.00000
53.77618	800.00000
53.79616	872.00000
53.81614	856.00000
53.83612	865.00000
53.85610	888.00000
53.87608	873.00000
53.89606	945.00000
53.91604	885.00000
53.93602	885.00000
53.95600	889.00000
53.97598	958.00000
53.99596	896.00000
54.01594	871.00000
54.03592	878.00000
54.05590	896.00000
54.07588	907.00000
54.09586	862.00000
54.11584	885.00000
54.13582	959.00000
54.15580	886.00000
54.17578	875.00000
54.19576	884.00000
54.21574	858.00000
54.23572	916.00000
54.25570	851.00000
54.27568	869.00000
54.29566	908.00000
54.31564	881.00000
54.33562	887.00000
54.35560	923.00000
54.37558	835.00000
54.39556	839.00000
54.41554	872.00000
54.43552	858.00000
54.45550	831.00000
54.47548	939.00000
54.49546	888.00000
54.51544	847.00000
54.53542	843.00000
54.55540	904.00000
54.57538	871.00000
54.59536	880.00000
54.61534	878.00000
54.63532	907.00000
54.65530	901.00000
54.67528	930.00000
54.69526	907.00000
54.71524	886.00000
54.73522	844.00000
54.75520	853.00000
54.77518	891.00000
54.79516	869.00000
54.81514	863.00000
54.83512	854.00000
54.85510	865.00000
54.87508	921.00000
54.89506	916.00000
54.91504	904.00000
54.93502	887.00000
54.95500	844.00000
54.97498	901.00000
54.99496	874.00000
55.01494	836.00000
55.03492	898.00000
55.05490	916.00000
55.07488	851.00000
55.09486	872.00000
55.11484	867.00000
55.13482	826.00000
55.15480	931.00000
55.17478	925.00000
55.19476	855.00000
55.21474	838.00000
55.23472	863.00000
55.25470	825.00000
55.27468	864.00000
55.29466	849.00000
55.31464	895.00000
55.33462	905.00000
55.35460	875.00000
55.37458	838.00000
55.39456	861.00000
55.41454	881.00000
55.43452	893.00000
55.45450	908.00000
55.47448	954.00000
55.49446	829.00000
55.51444	855.00000
55.53442	881.00000
55.55440	908.00000
55.57438	885.00000
55.59436	925.00000
55.61434	878.00000
55.63432	875.00000
55.65430	888.00000
55.67428	871.00000
55.69426	874.00000
55.71424	820.00000
55.73422	849.00000
55.75420	864.00000
55.77418	858.00000
55.79416	900.00000
55.81414	872.00000
55.83412	897.00000
55.85410	902.00000
55.87408	876.00000
55.89406	844.00000
55.91404	851.00000
55.93402	859.00000
55.95400	890.00000
55.97398	938.00000
55.99396	874.00000
56.01394	899.00000
56.03392	831.00000
56.05390	951.00000
56.07388	878.00000
56.09386	944.00000
56.11384	925.00000
56.13382	900.00000
56.15380	929.00000
56.17378	840.00000
56.19376	941.00000
56.21374	938.00000
56.23372	896.00000
56.25370	893.00000
56.27368	915.00000
56.29366	893.00000
56.31364	879.00000
56.33362	906.00000
56.35360	897.00000
56.37358	895.00000
56.39356	890.00000
56.41354	920.00000
56.43352	870.00000
56.45350	846.00000
56.47348	928.00000
56.49346	893.00000
56.51344	884.00000
56.53342	882.00000
56.55340	909.00000
56.57338	871.00000
56.59336	900.00000
56.61334	890.00000
56.63332	908.00000
56.65330	917.00000
56.67328	933.00000
56.69326	899.00000
56.71324	876.00000
56.73322	919.00000
56.75320	864.00000
56.77318	940.00000
56.79316	893.00000
56.81314	949.00000
56.83312	903.00000
56.85310	918.00000
56.87308	928.00000
56.89306	904.00000
56.91304	913.00000
56.93302	926.00000
56.95300	940.00000
56.97298	897.00000
56.99296	910.00000
57.01294	948.00000
57.03292	967.00000
57.05290	920.00000
57.07288	933.00000
57.09286	889.00000
57.11284	883.00000
57.13282	956.00000
57.15280	929.00000
57.17278	943.00000
57.19276	957.00000
57.21274	942.00000
57.23272	922.00000
57.25270	962.00000
57.27268	933.00000
57.29266	976.00000
57.31264	977.00000
57.33262	912.00000
57.35260	1024.00000
57.37258	1002.00000
57.39256	959.00000
57.41254	983.00000
57.43252	994.00000
57.45250	1043.00000
57.47248	955.00000
57.49246	1005.00000
57.51244	1012.00000
57.53242	1055.00000
57.55240	989.00000
57.57238	1058.00000
57.59236	955.00000
57.61234	1056.00000
57.63232	1017.00000
57.65230	1040.00000
57.67228	1040.00000
57.69226	1087.00000
57.71224	1122.00000
57.73222	1116.00000
57.75220	1124.00000
57.77218	1187.00000
57.79216	1114.00000
57.81214	1240.00000
57.83212	1322.00000
57.85210	1286.00000
57.87208	1220.00000
57.89206	1354.00000
57.91204	1410.00000
57.93202	1492.00000
57.95200	1551.00000
57.97198	1609.00000
57.99196	1632.00000
58.01194	1742.00000
58.03192	1999.00000
58.05190	2007.00000
58.07188	2111.00000
58.09186	2360.00000
58.11184	2418.00000
58.13182	2637.00000
58.15180	2794.00000
58.17178	3004.00000
58.19176	3163.00000
58.21174	3122.00000
58.23172	3133.00000
58.25170	3135.00000
58.27168	3214.00000
58.29166	3110.00000
58.31164	3042.00000
58.33162	2957.00000
58.35160	2922.00000
58.37158	2807.00000
58.39156	2668.00000
58.41154	2587.00000
58.43152	2421.00000
58.45150	2348.00000
58.47148	2163.00000
58.49146	2057.00000
58.51144	1880.00000
58.53142	1810.00000
58.55140	1775.00000
58.57138	1552.00000
58.59136	1590.00000
58.61134	1479.00000
58.63132	1362.00000
58.65130	1414.00000
58.67128	1356.00000
58.69126	1328.00000
58.71124	1226.00000
58.73122	1184.00000
58.75120	1194.00000
58.77118	1174.00000
58.79116	1098.00000
58.81114	1139.00000
58.83112	1107.00000
58.85110	1092.00000
58.87108	1063.00000
58.89106	1077.00000
58.91104	1100.00000
58.93102	947.00000
58.95100	978.00000
58.97098	997.00000
58.99096	1040.00000
59.01094	1022.00000
59.03092	963.00000
59.05090	1031.00000
59.07088	926.00000
59.09086	947.00000
59.11084	981.00000
59.13082	916.00000
59.15080	986.00000
59.17078	961.00000
59.19076	952.00000
59.21074	952.00000
59.23072	934.00000
59.25070	931.00000
59.27068	952.00000
59.29066	990.00000
59.31064	941.00000
59.33062	934.00000
59.35060	914.00000
59.37058	897.00000
59.39056	884.00000
59.41054	936.00000
59.43052	898.00000
59.45050	837.00000
59.47048	917.00000
59.49046	921.00000
59.51044	924.00000
59.53042	919.00000
59.55040	892.00000
59.57038	895.00000
59.59036	935.00000
59.61034	912.00000
59.63032	829.00000
59.65030	895.00000
59.67028	883.00000
59.69026	860.00000
59.71024	869.00000
59.73022	925.00000
59.75020	849.00000
59.77018	915.00000
59.79016	892.00000
59.81014	928.00000
59.83012	897.00000
59.85010	917.00000
59.87008	924.00000
59.89006	838.00000
59.91004	975.00000
59.93002	877.00000
59.95000	937.00000
59.96998	906.00000
59.98996	878.00000
60.00994	879.00000
60.02992	826.00000
60.04990	871.00000
60.06988	866.00000
60.08986	872.00000
60.10984	870.00000
60.12982	850.00000
60.14980	830.00000
60.16978	864.00000
60.18976	863.00000
60.20974	906.00000
60.22972	871.00000
60.24970	851.00000
60.26968	880.00000
60.28966	916.00000
60.30964	862.00000
60.32962	898.00000
60.34960	837.00000
60.36958	836.00000
60.38956	879.00000
60.40954	911.00000
60.42952	872.00000
60.44950	886.00000
60.46948	869.00000
60.48946	914.00000
60.50944	875.00000
60.52942	922.00000
60.54940	870.00000
60.56938	893.00000
60.58936	882.00000
60.60934	931.00000
60.62932	924.00000
60.64930	902.00000
60.66928	894.00000
60.68926	903.00000
60.70924	931.00000
60.72922	903.00000
60.74920	946.00000
60.76918	957.00000
60.78916	920.00000
60.80914	992.00000
60.82912	900.00000
60.84910	921.00000
60.86908	973.00000
60.88906	918.00000
60.90904	907.00000
60.92902	915.00000
60.94900	850.00000
60.96898	914.00000
60.98896	949.00000
61.00894	924.00000
61.02892	938.00000
61.04890	902.00000
61.06888	892.00000
61.08886	865.00000
61.10884	861.00000
61.12882	912.00000
61.14880	888.00000
61.16878	815.00000
61.18876	864.00000
61.20874	904.00000
61.22872	917.00000
61.24870	898.00000
61.26868	932.00000
61.28866	842.00000
61.30864	945.00000
61.32862	893.00000
61.34860	852.00000
61.36858	899.00000
61.38856	895.00000
61.40854	891.00000
61.42852	859.00000
61.44850	884.00000
61.46848	887.00000
61.48846	900.00000
61.50844	881.00000
61.52842	922.00000
61.54840	946.00000
61.56838	893.00000
61.58836	881.00000
61.60834	821.00000
61.62832	896.00000
61.64830	928.00000
61.66828	918.00000
61.68826	912.00000
61.70824	929.00000
61.72822	932.00000
61.74820	935.00000
61.76818	966.00000
61.78816	954.00000
61.80814	895.00000
61.82812	950.00000
61.84810	891.00000
61.86808	862.00000
61.88806	912.00000
61.90804	949.00000
61.92802	924.00000
61.94800	884.00000
61.96798	863.00000
61.98796	864.00000
62.00794	922.00000
62.02792	936.00000
62.04790	889.00000
62.06788	928.00000
62.08786	925.00000
62.10784	910.00000
62.12782	920.00000
62.14780	926.00000
62.16778	892.00000
62.18776	912.00000
62.20774	879.00000
62.22772	869.00000
62.24770	946.00000
62.26768	914.00000
62.28766	889.00000
62.30764	889.00000
62.32762	918.00000
62.34760	890.00000
62.36758	929.00000
62.38756	933.00000
62.40754	993.00000
62.42752	921.00000
62.44750	897.00000
62.46748	864.00000
62.48746	955.00000
62.50744	860.00000
62.52742	921.00000
62.54740	905.00000
62.56738	889.00000
62.58736	924.00000
62.60734	977.00000
62.62732	938.00000
62.64730	949.00000
62.66728	943.00000
62.68726	926.00000
62.70724	986.00000
62.72722	888.00000
62.74720	871.00000
62.76718	953.00000
62.78716	974.00000
62.80714	936.00000
62.82712	923.00000
62.84710	935.00000
62.86708	902.00000
62.88706	999.00000
62.90704	943.00000
62.92702	955.00000
62.94700	1000.00000
62.96698	1071.00000
62.98696	929.00000
63.00694	984.00000
63.02692	962.00000
63.04690	997.00000
63.06688	988.00000
63.08686	994.00000
63.10684	985.00000
63.12682	1001.00000
63.14680	990.00000
63.16678	974.00000
63.18676	967.00000
63.20674	1030.00000
63.22672	1019.00000
63.24670	999.00000
63.26668	991.00000
63.28666	987.00000
63.30664	1011.00000
63.32662	1097.00000
63.34660	1086.00000
63.36658	1100.00000
63.38656	1125.00000
63.40654	1043.00000
63.42652	1134.00000
63.44650	1177.00000
63.46648	1122.00000
63.48646	1207.00000
63.50644	1239.00000
63.52642	1271.00000
63.54640	1256.00000
63.56638	1285.00000
63.58636	1322.00000
63.60634	1384.00000
63.62632	1442.00000
63.64630	1538.00000
63.66628	1525.00000
63.68626	1599.00000
63.70624	1664.00000
63.72622	1680.00000
63.74620	1879.00000
63.76618	1954.00000
63.78616	2122.00000
63.80614	2290.00000
63.82612	2417.00000
63.84610	2635.00000
63.86608	2827.00000
63.88606	3003.00000
63.90604	3340.00000
63.92602	3617.00000
63.94600	3781.00000
63.96598	3982.00000
63.98596	4171.00000
64.00594	4306.00000
64.02592	4249.00000
64.04590	4334.00000
64.06588	4311.00000
64.08586	4201.00000
64.10584	4163.00000
64.12582	4002.00000
64.14580	3768.00000
64.16578	3842.00000
64.18576	3667.00000
64.20574	3396.00000
64.22572	3314.00000
64.24570	3123.00000
64.26568	2918.00000
64.28566	2709.00000
64.30564	2557.00000
64.32562	2306.00000
64.34560	2239.00000
64.36558	2118.00000
64.38556	1997.00000
64.40554	1909.00000
64.42552	1857.00000
64.44550	1670.00000
64.46548	1667.00000
64.48546	1568.00000
64.50544	1505.00000
64.52542	1501.00000
64.54540	1413.00000
64.56538	1380.00000
64.58536	1278.00000
64.60534	1280.00000
64.62532	1282.00000
64.64530	1308.00000
64.66528	1223.00000
64.68526	1122.00000
64.70524	1137.00000
64.72522	1115.00000
64.74520	1162.00000
64.76518	1013.00000
64.78516	1109.00000
64.80514	1071.00000
64.82512	1109.00000
64.84510	1027.00000
64.86508	1037.00000
64.88506	1057.00000
64.90504	990.00000
64.92502	942.00000
64.94500	952.00000
64.96498	991.00000
64.98496	1031.00000
65.00494	977.00000
65.02492	1035.00000
65.04490	964.00000
65.06488	983.00000
65.08486	990.00000
65.10484	1011.00000
65.12482	981.00000
65.14480	1041.00000
65.16478	1013.00000
65.18476	952.00000
65.20474	903.00000
65.22472	956.00000
65.24470	943.00000
65.26468	962.00000
65.28466	941.00000
65.30464	985.00000
65.32462	909.00000
65.34460	970.00000
65.36458	966.00000
65.38456	932.00000
65.40454	966.00000
65.42452	938.00000
65.44450	914.00000
65.46448	895.00000
65.48446	947.00000
65.50444	988.00000
65.52442	906.00000
65.54440	954.00000
65.56438	930.00000
65.58436	907.00000
65.60434	860.00000
65.62432	946.00000
65.64430	935.00000
65.66428	940.00000
65.68426	947.00000
65.70424	961.00000
65.72422	947.00000
65.74420	923.00000
65.76418	1029.00000
65.78416	977.00000
65.80414	1014.00000
65.82412	1002.00000
65.84410	986.00000
65.86408	991.00000
65.88406	967.00000
65.90404	924.00000
65.92402	1001.00000
65.94400	905.00000
65.96398	970.00000
65.98396	933.00000
66.00394	926.00000
66.02392	935.00000
66.04390	935.00000
66.06388	953.00000
66.08386	952.00000
66.10384	970.00000
66.12382	936.00000
66.14380	947.00000
66.16378	927.00000
66.18376	936.00000
66.20374	917.00000
66.22372	950.00000
66.24370	972.00000
66.26368	911.00000
66.28366	895.00000
66.30364	896.00000
66.32362	926.00000
66.34360	906.00000
66.36358	909.00000
66.38356	913.00000
66.40354	888.00000
66.42352	878.00000
66.44350	922.00000
66.46348	900.00000
66.48346	904.00000
66.50344	875.00000
66.52342	886.00000
66.54340	884.00000
66.56338	893.00000
66.58336	869.00000
66.60334	865.00000
66.62332	932.00000
66.64330	909.00000
66.66328	905.00000
66.68326	893.00000
66.70324	885.00000
66.72322	886.00000
66.74320	857.00000
66.76318	902.00000
66.78316	928.00000
66.80314	891.00000
66.82312	843.00000
66.84310	888.00000
66.86308	917.00000
66.88306	909.00000
66.90304	908.00000
66.92302	928.00000
66.94300	879.00000
66.96298	876.00000
66.98296	912.00000
67.00294	905.00000
67.02292	899.00000
67.04290	917.00000
67.06288	866.00000
67.08286	902.00000
67.10284	894.00000
67.12282	900.00000
67.14280	909.00000
67.16278	843.00000
67.18276	884.00000
67.20274	849.00000
67.22272	860.00000
67.24270	860.00000
67.26268	850.00000
67.28266	842.00000
67.30264	860.00000
67.32262	884.00000
67.34260	877.00000
67.36258	864.00000
67.38256	891.00000
67.40254	809.00000
67.42252	850.00000
67.44250	893.00000
67.46248	835.00000
67.48246	866.00000
67.50244	834.00000
67.52242	841.00000
67.54240	886.00000
67.56238	869.00000
67.58236	932.00000
67.60234	859.00000
67.62232	812.00000
67.64230	830.00000
67.66228	856.00000
67.68226	834.00000
67.70224	879.00000
67.72222	868.00000
67.74220	843.00000
67.76218	876.00000
67.78216	875.00000
67.80214	866.00000
67.82212	859.00000
67.84210	882.00000
67.86208	852.00000
67.88206	867.00000
67.90204	861.00000
67.92202	891.00000
67.94200	877.00000
67.96198	898.00000
67.98196	880.00000
68.00194	875.00000
68.02192	904.00000
68.04190	950.00000
68.06188	925.00000
68.08186	887.00000
68.10184	908.00000
68.12182	834.00000
68.14180	850.00000
68.16178	811.00000
68.18176	859.00000
68.20174	872.00000
68.22172	886.00000
68.24170	919.00000
68.26168	850.00000
68.28166	952.00000
68.30164	830.00000
68.32162	913.00000
68.34160	782.00000
68.36158	886.00000
68.38156	836.00000
68.40154	899.00000
68.42152	837.00000
68.44150	836.00000
68.46148	880.00000
68.48146	872.00000
68.50144	858.00000
68.52142	866.00000
68.54140	812.00000
68.56138	799.00000
68.58136	828.00000
68.60134	850.00000
68.62132	788.00000
68.64130	851.00000
68.66128	842.00000
68.68126	907.00000
68.70124	794.00000
68.72122	910.00000
68.74120	888.00000
68.76118	886.00000
68.78116	871.00000
68.80114	850.00000
68.82112	866.00000
68.84110	824.00000
68.86108	831.00000
68.88106	849.00000
68.90104	856.00000
68.92102	821.00000
68.94100	848.00000
68.96098	871.00000
68.98096	884.00000
69.00094	863.00000
69.02092	842.00000
69.04090	869.00000
69.06088	883.00000
69.08086	854.00000
69.10084	928.00000
69.12082	913.00000
69.14080	857.00000
69.16078	924.00000
69.18076	822.00000
69.20074	863.00000
69.22072	857.00000
69.24070	820.00000
69.26068	924.00000
69.28066	901.00000
69.30064	848.00000
69.32062	880.00000
69.34060	889.00000
69.36058	822.00000
69.38056	859.00000
69.40054	843.00000
69.42052	836.00000
69.44050	852.00000
69.46048	853.00000
69.48046	885.00000
69.50044	824.00000
69.52042	835.00000
69.54040	920.00000
69.56038	861.00000
69.58036	819.00000
69.60034	811.00000
69.62032	839.00000
69.64030	849.00000
69.66028	901.00000
69.68026	871.00000
69.70024	890.00000
69.72022	882.00000
69.74020	899.00000
69.76018	896.00000
69.78016	868.00000
69.80014	846.00000
69.82012	922.00000
69.84010	893.00000
69.86008	845.00000
69.88006	896.00000
69.90004	821.00000
69.92002	847.00000
69.94000	805.00000
69.95998	861.00000
69.97996	919.00000
69.99994	857.00000
70.01992	824.00000
70.03990	877.00000
70.05988	869.00000
70.07986	863.00000
70.09984	885.00000
70.11982	894.00000
70.13980	851.00000
70.15978	857.00000
70.17976	869.00000
70.19974	883.00000
70.21972	812.00000
70.23970	898.00000
70.25968	914.00000
70.27966	913.00000
70.29964	907.00000
70.31962	844.00000
70.33960	858.00000
70.35958	850.00000
70.37956	862.00000
70.39954	852.00000
70.41952	868.00000
70.43950	916.00000
70.45948	893.00000
70.47946	885.00000
70.49944	870.00000
70.51942	875.00000
70.53940	886.00000
70.55938	859.00000
70.57936	932.00000
70.59934	865.00000
70.61932	914.00000
70.63930	893.00000
70.65928	933.00000
70.67926	920.00000
70.69924	880.00000
70.71922	863.00000
70.73920	904.00000
70.75918	884.00000
70.77916	871.00000
70.79914	932.00000
70.81912	851.00000
70.83910	872.00000
70.85908	908.00000
70.87906	941.00000
70.89904	876.00000
70.91902	861.00000
70.93900	901.00000
70.95898	884.00000
70.97896	907.00000
70.99894	820.00000
71.01892	849.00000
71.03890	836.00000
71.05888	879.00000
71.07886	879.00000
71.09884	888.00000
71.11882	911.00000
71.13880	888.00000
71.15878	852.00000
71.17876	871.00000
71.19874	852.00000
71.21872	834.00000
71.23870	903.00000
71.25868	971.00000
71.27866	856.00000
71.29864	874.00000
71.31862	881.00000
71.33860	885.00000
71.35858	874.00000
71.37856	923.00000
71.39854	974.00000
71.41852	922.00000
71.43850	947.00000
71.45848	908.00000
71.47846	906.00000
71.49844	913.00000
71.51842	930.00000
71.53840	930.00000
71.55838	883.00000
71.57836	903.00000
71.59834	907.00000
71.61832	902.00000
71.63830	877.00000
71.65828	917.00000
71.67826	945.00000
71.69824	931.00000
71.71822	913.00000
71.73820	928.00000
71.75818	958.00000
71.77816	942.00000
71.79814	976.00000
71.81812	895.00000
71.83810	899.00000
71.85808	948.00000
71.87806	958.00000
71.89804	896.00000
71.91802	920.00000
71.93800	945.00000
71.95798	933.00000
71.97796	975.00000
71.99794	983.00000
72.01792	930.00000
72.03790	970.00000
72.05788	947.00000
72.07786	908.00000
72.09784	910.00000
72.11782	937.00000
72.13780	991.00000
72.15778	975.00000
72.17776	1010.00000
72.19774	999.00000
72.21772	988.00000
72.23770	1053.00000
72.25768	984.00000
72.27766	1051.00000
72.29764	1002.00000
72.31762	1005.00000
72.33760	1111.00000
72.35758	1094.00000
72.37756	1026.00000
72.39754	1074.00000
72.41752	1120.00000
72.43750	1149.00000
72.45748	1121.00000
72.47746	1155.00000
72.49744	1159.00000
72.51742	1154.00000
72.53740	1277.00000
72.55738	1269.00000
72.57736	1269.00000
72.59734	1324.00000
72.61732	1395.00000
72.63730	1374.00000
72.65728	1426.00000
72.67726	1455.00000
72.69724	1521.00000
72.71722	1566.00000
72.73720	1672.00000
72.75718	1659.00000
72.77716	1813.00000
72.79714	1935.00000
72.81712	1961.00000
72.83710	2172.00000
72.85708	2246.00000
72.87706	2394.00000
72.89704	2605.00000
72.91702	2789.00000
72.93700	2892.00000
72.95698	3179.00000
72.97696	3304.00000
72.99694	3532.00000
73.01692	3810.00000
73.03690	3836.00000
73.05688	4151.00000
73.07686	4226.00000
73.09684	4433.00000
73.11682	4271.00000
73.13680	4405.00000
73.15678	4323.00000
73.17676	4331.00000
73.19674	4049.00000
73.21672	4014.00000
73.23670	3912.00000
73.25668	3832.00000
73.27666	3862.00000
73.29664	3731.00000
73.31662	3633.00000
73.33660	3334.00000
73.35658	3227.00000
73.37656	3038.00000
73.39654	2835.00000
73.41652	2752.00000
73.43650	2541.00000
73.45648	2466.00000
73.47646	2349.00000
73.49644	2275.00000
73.51642	2135.00000
73.53640	2078.00000
73.55638	1933.00000
73.57636	1864.00000
73.59634	1709.00000
73.61632	1675.00000
73.63630	1587.00000
73.65628	1558.00000
73.67626	1536.00000
73.69624	1490.00000
73.71622	1467.00000
73.73620	1414.00000
73.75618	1324.00000
73.77616	1312.00000
73.79614	1233.00000
73.81612	1284.00000
73.83610	1221.00000
73.85608	1109.00000
73.87606	1214.00000
73.89604	1090.00000
73.91602	1175.00000
73.93600	1179.00000
73.95598	1090.00000
73.97596	1121.00000
73.99594	1049.00000
74.01592	1017.00000
74.03590	1047.00000
74.05588	1025.00000
74.07586	973.00000
74.09584	1037.00000
74.11582	1018.00000
74.13580	1005.00000
74.15578	975.00000
74.17576	948.00000
74.19574	1024.00000
74.21572	976.00000
74.23570	946.00000
74.25568	985.00000
74.27566	945.00000
74.29564	957.00000
74.31562	977.00000
74.33560	966.00000
74.35558	936.00000
74.37556	1023.00000
74.39554	935.00000
74.41552	887.00000
74.43550	953.00000
74.45548	956.00000
74.47546	965.00000
74.49544	946.00000
74.51542	902.00000
74.53540	893.00000
74.55538	899.00000
74.57536	979.00000
74.59534	941.00000
74.61532	852.00000
74.63530	906.00000
74.65528	899.00000
74.67526	945.00000
74.69524	879.00000
74.71522	929.00000
74.73520	957.00000
74.75518	869.00000
74.77516	939.00000
74.79514	825.00000
74.81512	847.00000
74.83510	903.00000
74.85508	827.00000
74.87506	892.00000
74.89504	903.00000
74.91502	929.00000
74.93500	875.00000
74.95498	936.00000
74.97496	915.00000
74.99494	939.00000
75.01492	879.00000
75.03490	908.00000
75.05488	900.00000
75.07486	955.00000
75.09484	884.00000
75.11482	894.00000
75.13480	870.00000
75.15478	930.00000
75.17476	897.00000
75.19474	848.00000
75.21472	884.00000
75.23470	906.00000
75.25468	928.00000
75.27466	900.00000
75.29464	854.00000
75.31462	867.00000
75.33460	921.00000
75.35458	860.00000
75.37456	926.00000
75.39454	903.00000
75.41452	964.00000
75.43450	887.00000
75.45448	936.00000
75.47446	893.00000
75.49444	841.00000
75.51442	898.00000
75.53440	902.00000
75.55438	860.00000
75.57436	816.00000
75.59434	843.00000
75.61432	908.00000
75.63430	885.00000
75.65428	902.00000
75.67426	906.00000
75.69424	925.00000
75.71422	874.00000
75.73420	925.00000
75.75418	878.00000
75.77416	848.00000
75.79414	918.00000
75.81412	917.00000
75.83410	822.00000
75.85408	837.00000
75.87406	841.00000
75.89404	933.00000
75.91402	895.00000
75.93400	946.00000
75.95398	886.00000
75.97396	873.00000
75.99394	821.00000
76.01392	893.00000
76.03390	852.00000
76.05388	894.00000
76.07386	889.00000
76.09384	915.00000
76.11382	848.00000
76.13380	885.00000
76.15378	872.00000
76.17376	881.00000
76.19374	893.00000
76.21372	859.00000
76.23370	891.00000
76.25368	818.00000
76.27366	873.00000
76.29364	823.00000
76.31362	878.00000
76.33360	877.00000
76.35358	859.00000
76.37356	889.00000
76.39354	871.00000
76.41352	888.00000
76.43350	868.00000
76.45348	930.00000
76.47346	904.00000
76.49344	984.00000
76.51342	872.00000
76.53340	924.00000
76.55338	848.00000
76.57336	871.00000
76.59334	896.00000
76.61332	859.00000
76.63330	868.00000
76.65328	897.00000
76.67326	899.00000
76.69324	906.00000
76.71322	935.00000
76.73320	845.00000
76.75318	867.00000
76.77316	895.00000
76.79314	896.00000
76.81312	889.00000
76.83310	934.00000
76.85308	879.00000
76.87306	893.00000
76.89304	880.00000
76.91302	867.00000
76.93300	915.00000
76.95298	922.00000
76.97296	873.00000
76.99294	887.00000
77.01292	873.00000
77.03290	889.00000
77.05288	878.00000
77.07286	872.00000
77.09284	897.00000
77.11282	920.00000
77.13280	911.00000
77.15278	904.00000
77.17276	884.00000
77.19274	895.00000
77.21272	927.00000
77.23270	860.00000
77.25268	916.00000
77.27266	965.00000
77.29264	972.00000
77.31262	894.00000
77.33260	934.00000
77.35258	947.00000
77.37256	909.00000
77.39254	957.00000
77.41252	976.00000
77.43250	892.00000
77.45248	991.00000
77.47246	1014.00000
77.49244	974.00000
77.51242	960.00000
77.53240	949.00000
77.55238	1013.00000
77.57236	1006.00000
77.59234	969.00000
77.61232	943.00000
77.63230	1015.00000
77.65228	991.00000
77.67226	1048.00000
77.69224	1029.00000
77.71222	1042.00000
77.73220	1068.00000
77.75218	1019.00000
77.77216	1029.00000
77.79214	1030.00000
77.81212	1093.00000
77.83210	1122.00000
77.85208	1118.00000
77.87206	1141.00000
77.89204	1179.00000
77.91202	1199.00000
77.93200	1219.00000
77.95198	1266.00000
77.97196	1283.00000
77.99194	1353.00000
78.01192	1428.00000
78.03190	1481.00000
78.05188	1460.00000
78.07186	1514.00000
78.09184	1546.00000
78.11182	1591.00000
78.13180	1675.00000
78.15178	1794.00000
78.17176	1879.00000
78.19174	2031.00000
78.21172	2104.00000
78.23170	2096.00000
78.25168	2242.00000
78.27166	2295.00000
78.29164	2424.00000
78.31162	2346.00000
78.33160	2393.00000
78.35158	2439.00000
78.37156	2394.00000
78.39154	2420.00000
78.41152	2403.00000
78.43150	2450.00000
78.45148	2369.00000
78.47146	2365.00000
78.49144	2208.00000
78.51142	2211.00000
78.53140	2159.00000
78.55138	2088.00000
78.57136	2044.00000
78.59134	2018.00000
78.61132	1965.00000
78.63130	1824.00000
78.65128	1766.00000
78.67126	1691.00000
78.69124	1663.00000
78.71122	1616.00000
78.73120	1532.00000
78.75118	1527.00000
78.77116	1496.00000
78.79114	1403.00000
78.81112	1385.00000
78.83110	1265.00000
78.85108	1296.00000
78.87106	1259.00000
78.89104	1233.00000
78.91102	1197.00000
78.93100	1153.00000
78.95098	1154.00000
78.97096	1177.00000
78.99094	1139.00000
79.01092	1156.00000
79.03090	1047.00000
79.05088	1060.00000
79.07086	1048.00000
79.09084	1023.00000
79.11082	991.00000
79.13080	1011.00000
79.15078	998.00000
79.17076	1021.00000
79.19074	938.00000
79.21072	927.00000
79.23070	964.00000
79.25068	979.00000
79.27066	971.00000
79.29064	920.00000
79.31062	938.00000
79.33060	877.00000
79.35058	872.00000
79.37056	916.00000
79.39054	918.00000
79.41052	893.00000
79.43050	950.00000
79.45048	878.00000
79.47046	932.00000
79.49044	941.00000
79.51042	883.00000
79.53040	914.00000
79.55038	886.00000
79.57036	893.00000
79.59034	835.00000
79.61032	871.00000
79.63030	928.00000
79.65028	879.00000
79.67026	911.00000
79.69024	897.00000
79.71022	836.00000
79.73020	871.00000
79.75018	849.00000
79.77016	838.00000
79.79014	841.00000
79.81012	861.00000
79.83010	870.00000
79.85008	822.00000
79.87006	859.00000
79.89004	954.00000
79.91002	862.00000
79.93000	864.00000
79.94998	838.00000
79.96996	942.00000
79.98994	864.00000
80.00992	833.00000
80.02990	846.00000
80.04988	855.00000
80.06986	826.00000
80.08984	824.00000
80.10982	858.00000
80.12980	884.00000
80.14978	862.00000
80.16976	911.00000
80.18974	895.00000
80.20972	871.00000
80.22970	826.00000
80.24968	865.00000
80.26966	834.00000
80.28964	830.00000
80.30962	878.00000
80.32960	825.00000
80.34958	794.00000
80.36956	853.00000
80.38954	828.00000
80.40952	785.00000
80.42950	794.00000
80.44948	856.00000
80.46946	909.00000
80.48944	856.00000
80.50942	887.00000
80.52940	809.00000
80.54938	778.00000
80.56936	840.00000
80.58934	882.00000
80.60932	833.00000
80.62930	852.00000
80.64928	876.00000
80.66926	803.00000
80.68924	783.00000
80.70922	770.00000
80.72920	784.00000
80.74918	814.00000
80.76916	867.00000
80.78914	871.00000
80.80912	859.00000
80.82910	824.00000
80.84908	812.00000
80.86906	798.00000
80.88904	798.00000
80.90902	809.00000
80.92900	834.00000
80.94898	824.00000
80.96896	803.00000
80.98894	880.00000
81.00892	848.00000
81.02890	806.00000
81.04888	824.00000
81.06886	812.00000
81.08884	883.00000
81.10882	862.00000
81.12880	847.00000
81.14878	835.00000
81.16876	838.00000
81.18874	784.00000
81.20872	873.00000
81.22870	879.00000
81.24868	832.00000
81.26866	810.00000
81.28864	863.00000
81.30862	836.00000
81.32860	844.00000
81.34858	825.00000
81.36856	829.00000
81.38854	829.00000
81.40852	831.00000
81.42850	841.00000
81.44848	770.00000
81.46846	790.00000
81.48844	833.00000
81.50842	844.00000
81.52840	819.00000
81.54838	801.00000
81.56836	824.00000
81.58834	811.00000
81.60832	803.00000
81.62830	791.00000
81.64828	771.00000
81.66826	827.00000
81.68824	805.00000
81.70822	855.00000
81.72820	834.00000
81.74818	858.00000
81.76816	806.00000
81.78814	877.00000
81.80812	821.00000
81.82810	815.00000
81.84808	894.00000
81.86806	837.00000
81.88804	836.00000
81.90802	847.00000
81.92800	851.00000
81.94798	842.00000
81.96796	825.00000
81.98794	814.00000
82.00792	846.00000
82.02790	830.00000
82.04788	793.00000
82.06786	847.00000
82.08784	782.00000
82.10782	875.00000
82.12780	785.00000
82.14778	841.00000
82.16776	892.00000
82.18774	812.00000
82.20772	850.00000
82.22770	780.00000
82.24768	810.00000
82.26766	830.00000
82.28764	843.00000
82.30762	841.00000
82.32760	802.00000
82.34758	824.00000
82.36756	813.00000
82.38754	797.00000
82.40752	859.00000
82.42750	786.00000
82.44748	835.00000
82.46746	818.00000
82.48744	804.00000
82.50742	787.00000
82.52740	888.00000
82.54738	823.00000
82.56736	808.00000
82.58734	789.00000
82.60732	818.00000
82.62730	815.00000
82.64728	837.00000
82.66726	827.00000
82.68724	793.00000
82.70722	783.00000
82.72720	800.00000
82.74718	785.00000
82.76716	802.00000
82.78714	818.00000
82.80712	840.00000
82.82710	846.00000
82.84708	796.00000
82.86706	850.00000
82.88704	861.00000
82.90702	838.00000
82.92700	805.00000
82.94698	767.00000
82.96696	797.00000
82.98694	892.00000
83.00692	832.00000
83.02690	850.00000
83.04688	817.00000
83.06686	818.00000
83.08684	804.00000
83.10682	802.00000
83.12680	765.00000
83.14678	847.00000
83.16676	819.00000
83.18674	797.00000
83.20672	790.00000
83.22670	814.00000
83.24668	804.00000
83.26666	872.00000
83.28664	868.00000
83.30662	800.00000
83.32660	837.00000
83.34658	818.00000
83.36656	833.00000
83.38654	791.00000
83.40652	803.00000
83.42650	841.00000
83.44648	826.00000
83.46646	816.00000
83.48644	805.00000
83.50642	827.00000
83.52640	811.00000
83.54638	851.00000
83.56636	853.00000
83.58634	832.00000
83.60632	748.00000
83.62630	787.00000
83.64628	770.00000
83.66626	734.00000
83.68624	805.00000
83.70622	803.00000
83.72620	849.00000
83.74618	802.00000
83.76616	774.00000
83.78614	771.00000
83.80612	797.00000
83.82610	793.00000
83.84608	833.00000
83.86606	779.00000
83.88604	822.00000
83.90602	807.00000
83.92600	847.00000
83.94598	813.00000
83.96596	801.00000
83.98594	805.00000
84.00592	776.00000
84.02590	759.00000
84.04588	795.00000
84.06586	743.00000
84.08584	766.00000
84.10582	801.00000
84.12580	855.00000
84.14578	791.00000
84.16576	793.00000
84.18574	785.00000
84.20572	778.00000
84.22570	791.00000
84.24568	769.00000
84.26566	781.00000
84.28564	817.00000
84.30562	811.00000
84.32560	823.00000
84.34558	837.00000
84.36556	831.00000
84.38554	771.00000
84.40552	795.00000
84.42550	814.00000
84.44548	815.00000
84.46546	853.00000
84.48544	766.00000
84.50542	808.00000
84.52540	780.00000
84.54538	780.00000
84.56536	817.00000
84.58534	804.00000
84.60532	813.00000
84.62530	792.00000
84.64528	791.00000
84.66526	843.00000
84.68524	807.00000
84.70522	859.00000
84.72520	774.00000
84.74518	795.00000
84.76516	818.00000
84.78514	774.00000
84.80512	826.00000
84.82510	817.00000
84.84508	771.00000
84.86506	774.00000
84.88504	827.00000
84.90502	776.00000
84.92500	772.00000
84.94498	796.00000
84.96496	776.00000
84.98494	826.00000
85.00492	813.00000
85.02490	850.00000
85.04488	868.00000
85.06486	772.00000
85.08484	824.00000
85.10482	762.00000
85.12480	828.00000
85.14478	808.00000
85.16476	827.00000
85.18474	793.00000
85.20472	811.00000
85.22470	809.00000
85.24468	839.00000
85.26466	795.00000
85.28464	871.00000
85.30462	836.00000
85.32460	804.00000
85.34458	762.00000
85.36456	773.00000
85.38454	778.00000
85.40452	771.00000
85.42450	830.00000
85.44448	817.00000
85.46446	792.00000
85.48444	833.00000
85.50442	796.00000
85.52440	830.00000
85.54438	800.00000
85.56436	831.00000
85.58434	870.00000
85.60432	869.00000
85.62430	826.00000
85.64428	815.00000
85.66426	834.00000
85.68424	811.00000
85.70422	761.00000
85.72420	874.00000
85.74418	828.00000
85.76416	815.00000
85.78414	887.00000
85.80412	822.00000
85.82410	895.00000
85.84408	799.00000
85.86406	826.00000
85.88404	855.00000
85.90402	914.00000
85.92400	831.00000
85.94398	802.00000
85.96396	822.00000
85.98394	849.00000
86.00392	892.00000
86.02390	861.00000
86.04388	835.00000
86.06386	879.00000
86.08384	838.00000
86.10382	865.00000
86.12380	899.00000
86.14378	847.00000
86.16376	881.00000
86.18374	843.00000
86.20372	855.00000
86.22370	919.00000
86.24368	849.00000
86.26366	796.00000
86.28364	853.00000
86.30362	937.00000
86.32360	933.00000
86.34358	902.00000
86.36356	971.00000
86.38354	983.00000
86.40352	1019.00000
86.42350	980.00000
86.44348	980.00000
86.46346	986.00000
86.48344	1026.00000
86.50342	1042.00000
86.52340	1030.00000
86.54338	1049.00000
86.56336	1076.00000
86.58334	1159.00000
86.60332	1152.00000
86.62330	1194.00000
86.64328	1210.00000
86.66326	1201.00000
86.68324	1313.00000
86.70322	1385.00000
86.72320	1409.00000
86.74318	1477.00000
86.76316	1432.00000
86.78314	1476.00000
86.80312	1504.00000
86.82310	1488.00000
86.84308	1553.00000
86.86306	1553.00000
86.88304	1510.00000
86.90302	1511.00000
86.92300	1553.00000
86.94298	1495.00000
86.96296	1476.00000
86.98294	1510.00000
87.00292	1509.00000
87.02290	1484.00000
87.04288	1522.00000
87.06286	1498.00000
87.08284	1412.00000
87.10282	1261.00000
87.12280	1329.00000
87.14278	1336.00000
87.16276	1346.00000
87.18274	1388.00000
87.20272	1254.00000
87.22270	1229.00000
87.24268	1173.00000
87.26266	1168.00000
87.28264	1191.00000
87.30262	1107.00000
87.32260	1145.00000
87.34258	1094.00000
87.36256	1107.00000
87.38254	1031.00000
87.40252	1071.00000
87.42250	1014.00000
87.44248	1021.00000
87.46246	1015.00000
87.48244	955.00000
87.50242	921.00000
87.52240	977.00000
87.54238	970.00000
87.56236	972.00000
87.58234	967.00000
87.60232	905.00000
87.62230	931.00000
87.64228	905.00000
87.66226	890.00000
87.68224	924.00000
87.70222	901.00000
87.72220	882.00000
87.74218	856.00000
87.76216	895.00000
87.78214	876.00000
87.80212	853.00000
87.82210	888.00000
87.84208	823.00000
87.86206	802.00000
87.88204	843.00000
87.90202	829.00000
87.92200	828.00000
87.94198	831.00000
87.96196	819.00000
87.98194	825.00000
88.00192	869.00000
88.02190	832.00000
88.04188	881.00000
88.06186	828.00000
88.08184	843.00000
88.10182	830.00000
88.12180	800.00000
88.14178	781.00000
88.16176	832.00000
88.18174	812.00000
88.20172	823.00000
88.22170	810.00000
88.24168	830.00000
88.26166	818.00000
88.28164	823.00000
88.30162	849.00000
88.32160	777.00000
88.34158	799.00000
88.36156	817.00000
88.38154	837.00000
88.40152	775.00000
88.42150	792.00000
88.44148	792.00000
88.46146	794.00000
88.48144	799.00000
88.50142	817.00000
88.52140	834.00000
88.54138	787.00000
88.56136	817.00000
88.58134	799.00000
88.60132	794.00000
88.62130	789.00000
88.64128	814.00000
88.66126	789.00000
88.68124	787.00000
88.70122	858.00000
88.72120	752.00000
88.74118	814.00000
88.76116	740.00000
88.78114	789.00000
88.80112	774.00000
88.82110	776.00000
88.84108	799.00000
88.86106	829.00000
88.88104	804.00000
88.90102	784.00000
88.92100	803.00000
88.94098	779.00000
88.96096	817.00000
88.98094	824.00000
89.00092	830.00000
89.02090	817.00000
89.04088	777.00000
89.06086	818.00000
89.08084	834.00000
89.10082	825.00000
89.12080	803.00000
89.14078	801.00000
89.16076	824.00000
89.18074	818.00000
89.20072	761.00000
89.22070	810.00000
89.24068	756.00000
89.26066	794.00000
89.28064	805.00000
89.30062	775.00000
89.32060	765.00000
89.34058	771.00000
89.36056	830.00000
89.38054	835.00000
89.40052	829.00000
89.42050	785.00000
89.44048	802.00000
89.46046	784.00000
89.48044	819.00000
89.50042	836.00000
89.52040	826.00000
89.54038	829.00000
89.56036	784.00000
89.58034	826.00000
89.60032	737.00000
89.62030	819.00000
89.64028	850.00000
89.66026	834.00000
89.68024	767.00000
89.70022	792.00000
89.72020	811.00000
89.74018	781.00000
89.76016	818.00000
89.78014	813.00000
89.80012	793.00000
89.82010	770.00000
89.84008	832.00000
89.86006	820.00000
89.88004	792.00000
89.90002	824.00000
89.92000	835.00000
89.93998	771.00000
89.95996	811.00000
89.97994	813.00000
89.99992	802.00000
90.01990	793.00000
90.03988	804.00000
90.05986	789.00000
90.07984	810.00000
90.09982	784.00000
90.11980	780.00000
90.13978	710.00000
90.15976	790.00000
90.17974	756.00000
90.19972	865.00000
90.21970	796.00000
90.23968	753.00000
90.25966	833.00000
90.27964	822.00000
90.29962	794.00000
90.31960	821.00000
90.33958	772.00000
90.35956	795.00000
90.37954	820.00000
90.39952	821.00000
90.41950	775.00000
90.43948	825.00000
90.45946	792.00000
90.47944	781.00000
90.49942	826.00000
90.51940	738.00000
90.53938	803.00000
90.55936	801.00000
90.57934	827.00000
90.59932	766.00000
90.61930	827.00000
90.63928	859.00000
90.65926	841.00000
90.67924	806.00000
90.69922	801.00000
90.71920	847.00000
90.73918	833.00000
90.75916	853.00000
90.77914	870.00000
90.79912	849.00000
90.81910	806.00000
90.83908	873.00000
90.85906	833.00000
90.87904	846.00000
90.89902	834.00000
90.91900	822.00000
90.93898	860.00000
90.95896	861.00000
90.97894	926.00000
90.99892	859.00000
91.01890	877.00000
91.03888	855.00000
91.05886	847.00000
91.07884	877.00000
91.09882	968.00000
91.11880	884.00000
91.13878	896.00000
91.15876	920.00000
91.17874	965.00000
91.19872	960.00000
91.21870	970.00000
91.23868	921.00000
91.25866	911.00000
91.27864	936.00000
91.29862	970.00000
91.31860	1046.00000
91.33858	995.00000
91.35856	1036.00000
91.37854	977.00000
91.39852	1009.00000
91.41850	1033.00000
91.43848	1095.00000
91.45846	1171.00000
91.47844	1060.00000
91.49842	1166.00000
91.51840	1225.00000
91.53838	1189.00000
91.55836	1200.00000
91.57834	1216.00000
91.59832	1267.00000
91.61830	1340.00000
91.63828	1314.00000
91.65826	1444.00000
91.67824	1431.00000
91.69822	1536.00000
91.71820	1531.00000
91.73818	1580.00000
91.75816	1618.00000
91.77814	1690.00000
91.79812	1748.00000
91.81810	1783.00000
91.83808	1826.00000
91.85806	1905.00000
91.87804	1899.00000
91.89802	1879.00000
91.91800	1918.00000
91.93798	1857.00000
91.95796	1917.00000
91.97794	1921.00000
91.99792	1965.00000
92.01790	1877.00000
92.03788	1860.00000
92.05786	1908.00000
92.07784	1831.00000
92.09782	1878.00000
92.11780	1778.00000
92.13778	1756.00000
92.15776	1737.00000
92.17774	1697.00000
92.19772	1660.00000
92.21770	1659.00000
92.23768	1657.00000
92.25766	1559.00000
92.27764	1526.00000
92.29762	1551.00000
92.31760	1544.00000
92.33758	1478.00000
92.35756	1413.00000
92.37754	1423.00000
92.39752	1381.00000
92.41750	1327.00000
92.43748	1298.00000
92.45746	1289.00000
92.47744	1300.00000
92.49742	1165.00000
92.51740	1184.00000
92.53738	1187.00000
92.55736	1148.00000
92.57734	1105.00000
92.59732	1064.00000
92.61730	1025.00000
92.63728	1120.00000
92.65726	1075.00000
92.67724	1055.00000
92.69722	1057.00000
92.71720	1044.00000
92.73718	1001.00000
92.75716	1051.00000
92.77714	976.00000
92.79712	956.00000
92.81710	959.00000
92.83708	969.00000
92.85706	949.00000
92.87704	927.00000
92.89702	924.00000
92.91700	831.00000
92.93698	951.00000
92.95696	865.00000
92.97694	843.00000
92.99692	882.00000
93.01690	887.00000
93.03688	853.00000
93.05686	868.00000
93.07684	891.00000
93.09682	850.00000
93.11680	831.00000
93.13678	819.00000
93.15676	844.00000
93.17674	850.00000
93.19672	846.00000
93.21670	867.00000
93.23668	846.00000
93.25666	823.00000
93.27664	848.00000
93.29662	777.00000
93.31660	841.00000
93.33658	783.00000
93.35656	785.00000
93.37654	825.00000
93.39652	805.00000
93.41650	761.00000
93.43648	826.00000
93.45646	814.00000
93.47644	854.00000
93.49642	799.00000
93.51640	720.00000
93.53638	732.00000
93.55636	813.00000
93.57634	830.00000
93.59632	793.00000
93.61630	835.00000
93.63628	842.00000
93.65626	828.00000
93.67624	871.00000
93.69622	800.00000
93.71620	863.00000
93.73618	785.00000
93.75616	794.00000
93.77614	830.00000
93.79612	836.00000
93.81610	774.00000
93.83608	780.00000
93.85606	799.00000
93.87604	815.00000
93.89602	800.00000
93.91600	814.00000
93.93598	743.00000
93.95596	806.00000
93.97594	802.00000
93.99592	803.00000
94.01590	774.00000
94.03588	792.00000
94.05586	778.00000
94.07584	799.00000
94.09582	756.00000
94.11580	758.00000
94.13578	760.00000
94.15576	750.00000
94.17574	752.00000
94.19572	761.00000
94.21570	766.00000
94.23568	772.00000
94.25566	773.00000
94.27564	765.00000
94.29562	834.00000
94.31560	799.00000
94.33558	811.00000
94.35556	754.00000
94.37554	758.00000
94.39552	793.00000
94.41550	728.00000
94.43548	782.00000
94.45546	731.00000
94.47544	790.00000
94.49542	704.00000
94.51540	732.00000
94.53538	769.00000
94.55536	782.00000
94.57534	787.00000
94.59532	772.00000
94.61530	765.00000
94.63528	746.00000
94.65526	770.00000
94.67524	782.00000
94.69522	711.00000
94.71520	795.00000
94.73518	795.00000
94.75516	760.00000
94.77514	806.00000
94.79512	777.00000
94.81510	740.00000
94.83508	762.00000
94.85506	785.00000
94.87504	701.00000
94.89502	816.00000
94.91500	806.00000
94.93498	747.00000
94.95496	746.00000
94.97494	742.00000
94.99492	801.00000
95.01490	782.00000
95.03488	756.00000
95.05486	808.00000
95.07484	742.00000
95.09482	724.00000
95.11480	752.00000
95.13478	769.00000
95.15476	766.00000
95.17474	792.00000
95.19472	767.00000
95.21470	760.00000
95.23468	761.00000
95.25466	757.00000
95.27464	790.00000
95.29462	741.00000
95.31460	749.00000
95.33458	745.00000
95.35456	765.00000
95.37454	692.00000
95.39452	765.00000
95.41450	788.00000
95.43448	772.00000
95.45446	799.00000
95.47444	784.00000
95.49442	791.00000
95.51440	724.00000
95.53438	792.00000
95.55436	796.00000
95.57434	775.00000
95.59432	751.00000
95.61430	764.00000
95.63428	762.00000
95.65426	748.00000
95.67424	740.00000
95.69422	752.00000
95.71420	745.00000
95.73418	739.00000
95.75416	762.00000
95.77414	736.00000
95.79412	794.00000
95.81410	726.00000
95.83408	757.00000
95.85406	776.00000
95.87404	754.00000
95.89402	742.00000
95.91400	764.00000
95.93398	728.00000
95.95396	745.00000
95.97394	761.00000
95.99392	828.00000
96.01390	753.00000
96.03388	814.00000
96.05386	750.00000
96.07384	752.00000
96.09382	825.00000
96.11380	773.00000
96.13378	786.00000
96.15376	790.00000
96.17374	765.00000
96.19372	786.00000
96.21370	773.00000
96.23368	714.00000
96.25366	778.00000
96.27364	810.00000
96.29362	718.00000
96.31360	768.00000
96.33358	743.00000
96.35356	781.00000
96.37354	813.00000
96.39352	767.00000
96.41350	755.00000
96.43348	739.00000
96.45346	778.00000
96.47344	711.00000
96.49342	793.00000
96.51340	770.00000
96.53338	756.00000
96.55336	776.00000
96.57334	741.00000
96.59332	744.00000
96.61330	747.00000
96.63328	775.00000
96.65326	725.00000
96.67324	813.00000
96.69322	748.00000
96.71320	792.00000
96.73318	760.00000
96.75316	730.00000
96.77314	755.00000
96.79312	764.00000
96.81310	757.00000
96.83308	740.00000
96.85306	816.00000
96.87304	744.00000
96.89302	749.00000
96.91300	798.00000
96.93298	746.00000
96.95296	814.00000
96.97294	774.00000
96.99292	765.00000
97.01290	775.00000
97.03288	815.00000
97.05286	766.00000
97.07284	813.00000
97.09282	784.00000
97.11280	749.00000
97.13278	730.00000
97.15276	780.00000
97.17274	786.00000
97.19272	702.00000
97.21270	771.00000
97.23268	776.00000
97.25266	756.00000
97.27264	761.00000
97.29262	767.00000
97.31260	752.00000
97.33258	759.00000
97.35256	788.00000
97.37254	760.00000
97.39252	751.00000
97.41250	736.00000
97.43248	708.00000
97.45246	722.00000
97.47244	784.00000
97.49242	750.00000
97.51240	788.00000
97.53238	806.00000
97.55236	756.00000
97.57234	778.00000
97.59232	733.00000
97.61230	821.00000
97.63228	747.00000
97.65226	780.00000
97.67224	777.00000
97.69222	792.00000
97.71220	759.00000
97.73218	781.00000
97.75216	791.00000
97.77214	754.00000
97.79212	751.00000
97.81210	773.00000
97.83208	746.00000
97.85206	762.00000
97.87204	749.00000
97.89202	784.00000
97.91200	776.00000
97.93198	784.00000
97.95196	745.00000
97.97194	758.00000
97.99192	771.00000
98.01190	772.00000
98.03188	785.00000
98.05186	793.00000
98.07184	757.00000
98.09182	766.00000
98.11180	774.00000
98.13178	742.00000
98.15176	768.00000
98.17174	757.00000
98.19172	801.00000
98.21170	734.00000
98.23168	770.00000
98.25166	816.00000
98.27164	742.00000
98.29162	802.00000
98.31160	796.00000
98.33158	802.00000
98.35156	779.00000
98.37154	767.00000
98.39152	750.00000
98.41150	770.00000
98.43148	753.00000
98.45146	772.00000
98.47144	746.00000
98.49142	783.00000
98.51140	770.00000
98.53138	789.00000
98.55136	759.00000
98.57134	797.00000
98.59132	750.00000
98.61130	726.00000
98.63128	782.00000
98.65126	712.00000
98.67124	766.00000
98.69122	768.00000
98.71120	817.00000
98.73118	769.00000
98.75116	780.00000
98.77114	762.00000
98.79112	801.00000
98.81110	728.00000
98.83108	801.00000
98.85106	814.00000
98.87104	758.00000
98.89102	794.00000
98.91100	783.00000
98.93098	798.00000
98.95096	816.00000
98.97094	746.00000
98.99092	754.00000
99.01090	747.00000
99.03088	741.00000
99.05086	804.00000
99.07084	764.00000
99.09082	775.00000
99.11080	821.00000
99.13078	837.00000
99.15076	862.00000
99.17074	785.00000
99.19072	760.00000
99.21070	773.00000
99.23068	808.00000
99.25066	850.00000
99.27064	772.00000
99.29062	807.00000
99.31060	820.00000
99.33058	816.00000
99.35056	805.00000
99.37054	827.00000
99.39052	866.00000
99.41050	858.00000
99.43048	783.00000
99.45046	869.00000
99.47044	819.00000
99.49042	861.00000
99.51040	869.00000
99.53038	856.00000
99.55036	845.00000
99.57034	865.00000
99.59032	897.00000
99.61030	826.00000
99.63028	911.00000
99.65026	843.00000
99.67024	907.00000
99.69022	875.00000
99.71020	875.00000
99.73018	877.00000
99.75016	910.00000
99.77014	943.00000
99.79012	883.00000
99.81010	952.00000
99.83008	930.00000
99.85006	994.00000
99.87004	979.00000
99.89002	1024.00000
99.91000	911.00000
99.92998	962.00000
99.94996	997.00000
99.96994	1061.00000
99.98992	1048.00000
