5.00535	246.49000
5.02206	237.16000
5.03877	246.49000
5.05549	243.36000
5.07220	225.00000
5.08891	265.69000
5.10562	249.64000
5.12233	265.69000
5.13904	295.84000
5.15575	237.16000
5.17246	262.44000
5.18918	252.81000
5.20589	243.36000
5.22260	234.09000
5.23931	228.01000
5.25602	252.81000
5.27273	268.96000
5.28944	268.96000
5.30616	262.44000
5.32287	243.36000
5.33958	222.01000
5.35629	246.49000
5.37300	302.76000
5.38971	285.61000
5.40642	268.96000
5.42313	234.09000
5.43985	262.44000
5.45656	219.04000
5.47327	219.04000
5.48998	225.00000
5.50669	243.36000
5.52340	234.09000
5.54011	243.36000
5.55682	268.96000
5.57354	275.56000
5.59025	246.49000
5.60696	237.16000
5.62367	237.16000
5.64038	243.36000
5.65709	228.01000
5.67380	252.81000
5.69051	228.01000
5.70723	256.00000
5.72394	262.44000
5.74065	225.00000
5.75736	256.00000
5.77407	237.16000
5.79078	207.36000
5.80749	259.21000
5.82420	256.00000
5.84092	259.21000
5.85763	228.01000
5.87434	240.25000
5.89105	237.16000
5.90776	237.16000
5.92447	213.16000
5.94118	222.01000
5.95789	234.09000
5.97461	256.00000
5.99132	262.44000
6.00803	252.81000
6.02474	249.64000
6.04145	231.04000
6.05816	219.04000
6.07487	246.49000
6.09158	252.81000
6.10830	259.21000
6.12501	243.36000
6.14172	246.49000
6.15843	246.49000
6.17514	259.21000
6.19185	234.09000
6.20856	234.09000
6.22527	234.09000
6.24199	231.04000
6.25870	240.25000
6.27541	246.49000
6.29212	246.49000
6.30883	262.44000
6.32554	268.96000
6.34225	240.25000
6.35897	252.81000
6.37568	240.25000
6.39239	225.00000
6.40910	234.09000
6.42581	225.00000
6.44252	252.81000
6.45923	234.09000
6.47594	249.64000
6.49266	256.00000
6.50937	259.21000
6.52608	231.04000
6.54279	275.56000
6.55950	262.44000
6.57621	268.96000
6.59292	265.69000
6.60963	275.56000
6.62635	228.01000
6.64306	246.49000
6.65977	237.16000
6.67648	237.16000
6.69319	237.16000
6.70990	285.61000
6.72661	259.21000
6.74332	272.25000
6.76004	246.49000
6.77675	252.81000
6.79346	252.81000
6.81017	262.44000
6.82688	222.01000
6.84359	222.01000
6.86030	234.09000
6.87701	201.64000
6.89373	252.81000
6.91044	243.36000
6.92715	268.96000
6.94386	243.36000
6.96057	216.09000
6.97728	265.69000
6.99399	252.81000
7.01070	234.09000
7.02742	256.00000
7.04413	228.01000
7.06084	252.81000
7.07755	252.81000
7.09426	262.44000
7.11097	278.89000
7.12768	249.64000
7.14439	268.96000
7.16111	282.24000
7.17782	272.25000
7.19453	285.61000
7.21124	302.76000
7.22795	295.84000
7.24466	252.81000
7.26137	240.25000
7.27808	272.25000
7.29480	262.44000
7.31151	234.09000
7.32822	262.44000
7.34493	196.00000
7.36164	275.56000
7.37835	243.36000
7.39506	268.96000
7.41178	246.49000
7.42849	275.56000
7.44520	259.21000
7.46191	285.61000
7.47862	256.00000
7.49533	272.25000
7.51204	272.25000
7.52875	324.00000
7.54547	272.25000
7.56218	262.44000
7.57889	282.24000
7.59560	306.25000
7.61231	275.56000
7.62902	289.00000
7.64573	292.41000
7.66244	338.56000
7.67916	313.29000
7.69587	353.44000
7.71258	392.04000
7.72929	408.04000
7.74600	408.04000
7.76271	432.64000
7.77942	488.41000
7.79613	510.76000
7.81285	529.00000
7.82956	457.96000
7.84627	457.96000
7.86298	416.16000
7.87969	364.81000
7.89640	331.24000
7.91311	306.25000
7.92982	262.44000
7.94654	285.61000
7.96325	252.81000
7.97996	272.25000
7.99667	272.25000
8.01338	292.41000
8.03009	309.76000
8.04680	289.00000
8.06351	259.21000
8.08023	262.44000
8.09694	268.96000
8.11365	285.61000
8.13036	302.76000
8.14707	327.61000
8.16378	320.41000
8.18049	272.25000
8.19720	320.41000
8.21392	299.29000
8.23063	313.29000
8.24734	353.44000
8.26405	357.21000
8.28076	384.16000
8.29747	396.01000
8.31418	436.81000
8.33089	449.44000
8.34761	484.00000
8.36432	510.76000
8.38103	615.04000
8.39774	630.01000
8.41445	745.29000
8.43116	852.64000
8.44787	973.44000
8.46458	1142.44000
8.48130	1332.25000
8.49801	1536.64000
8.51472	1584.04000
8.53143	1632.16000
8.54814	1361.61000
8.56485	924.16000
8.58156	665.64000
8.59828	488.41000
8.61499	424.36000
8.63170	436.81000
8.64841	449.44000
8.66512	497.29000
8.68183	466.56000
8.69854	585.64000
8.71525	610.09000
8.73197	665.64000
8.74868	630.01000
8.76539	605.16000
8.78210	519.84000
8.79881	462.25000
8.81552	392.04000
8.83223	327.61000
8.84894	292.41000
8.86566	256.00000
8.88237	313.29000
8.89908	268.96000
8.91579	275.56000
8.93250	292.41000
8.94921	265.69000
8.96592	292.41000
8.98263	282.24000
8.99935	295.84000
9.01606	292.41000
9.03277	309.76000
9.04948	302.76000
9.06619	272.25000
9.08290	292.41000
9.09961	289.00000
9.11632	299.29000
9.13304	327.61000
9.14975	313.29000
9.16646	313.29000
9.18317	327.61000
9.19988	320.41000
9.21659	364.81000
9.23330	372.49000
9.25001	449.44000
9.26673	479.61000
9.28344	492.84000
9.30015	506.25000
9.31686	457.96000
9.33357	384.16000
9.35028	376.36000
9.36699	320.41000
9.38370	285.61000
9.40042	302.76000
9.41713	275.56000
9.43384	265.69000
9.45055	262.44000
9.46726	272.25000
9.48397	272.25000
9.50068	262.44000
9.51739	246.49000
9.53411	268.96000
9.55082	259.21000
9.56753	252.81000
9.58424	302.76000
9.60095	292.41000
9.61766	289.00000
9.63437	265.69000
9.65109	265.69000
9.66780	234.09000
9.68451	282.24000
9.70122	265.69000
9.71793	275.56000
9.73464	259.21000
9.75135	275.56000
9.76806	272.25000
9.78478	285.61000
9.80149	268.96000
9.81820	262.44000
9.83491	249.64000
9.85162	268.96000
9.86833	275.56000
9.88504	295.84000
9.90175	246.49000
9.91847	285.61000
9.93518	262.44000
9.95189	256.00000
9.96860	262.44000
9.98531	240.25000
10.00202	272.25000
10.01873	306.25000
10.03544	272.25000
10.05216	234.09000
10.06887	256.00000
10.08558	262.44000
10.10229	265.69000
10.11900	234.09000
10.13571	275.56000
10.15242	249.64000
10.16913	222.01000
10.18585	278.89000
10.20256	285.61000
10.21927	292.41000
10.23598	259.21000
10.25269	278.89000
10.26940	285.61000
10.28611	265.69000
10.30282	268.96000
10.31954	278.89000
10.33625	275.56000
10.35296	272.25000
10.36967	285.61000
10.38638	256.00000
10.40309	295.84000
10.41980	272.25000
10.43651	275.56000
10.45323	302.76000
10.46994	306.25000
10.48665	299.29000
10.50336	299.29000
10.52007	338.56000
10.53678	338.56000
10.55349	345.96000
10.57020	342.25000
10.58692	331.24000
10.60363	331.24000
10.62034	345.96000
10.63705	306.25000
10.65376	302.76000
10.67047	285.61000
10.68718	252.81000
10.70389	302.76000
10.72061	285.61000
10.73732	306.25000
10.75403	252.81000
10.77074	278.89000
10.78745	275.56000
10.80416	272.25000
10.82087	243.36000
10.83759	268.96000
10.85430	272.25000
10.87101	259.21000
10.88772	246.49000
10.90443	225.00000
10.92114	252.81000
10.93785	265.69000
10.95456	272.25000
10.97128	285.61000
10.98799	234.09000
11.00470	265.69000
11.02141	282.24000
11.03812	262.44000
11.05483	262.44000
11.07154	259.21000
11.08825	285.61000
11.10497	275.56000
11.12168	237.16000
11.13839	262.44000
11.15510	282.24000
11.17181	228.01000
11.18852	219.04000
11.20523	268.96000
11.22194	289.00000
11.23866	259.21000
11.25537	275.56000
11.27208	262.44000
11.28879	268.96000
11.30550	240.25000
11.32221	246.49000
11.33892	256.00000
11.35563	275.56000
11.37235	278.89000
11.38906	275.56000
11.40577	252.81000
11.42248	285.61000
11.43919	275.56000
11.45590	295.84000
11.47261	262.44000
11.48932	282.24000
11.50604	249.64000
11.52275	262.44000
11.53946	259.21000
11.55617	237.16000
11.57288	292.41000
11.58959	265.69000
11.60630	268.96000
11.62301	289.00000
11.63973	285.61000
11.65644	256.00000
11.67315	292.41000
11.68986	295.84000
11.70657	353.44000
11.72328	327.61000
11.73999	338.56000
11.75670	345.96000
11.77342	388.09000
11.79013	408.04000
11.80684	412.09000
11.82355	424.36000
11.84026	376.36000
11.85697	392.04000
11.87368	380.25000
11.89040	372.49000
11.90711	408.04000
11.92382	392.04000
11.94053	432.64000
11.95724	466.56000
11.97395	506.25000
11.99066	519.84000
12.00737	561.69000
12.02409	660.49000
12.04080	681.21000
12.05751	660.49000
12.07422	645.16000
12.09093	686.44000
12.10764	702.25000
12.12435	789.61000
12.14106	894.01000
12.15778	961.00000
12.17449	924.16000
12.19120	882.09000
12.20791	767.29000
12.22462	655.36000
12.24133	515.29000
12.25804	432.64000
12.27475	400.00000
12.29147	388.09000
12.30818	342.25000
12.32489	349.69000
12.34160	345.96000
12.35831	306.25000
12.37502	353.44000
12.39173	396.01000
12.40844	420.25000
12.42516	400.00000
12.44187	392.04000
12.45858	453.69000
12.47529	538.24000
12.49200	635.04000
12.50871	605.16000
12.52542	723.61000
12.54213	806.56000
12.55885	918.09000
12.57556	1082.41000
12.59227	1332.25000
12.60898	1656.49000
12.62569	1953.64000
12.64240	2540.16000
12.65911	3058.09000
12.67582	3624.04000
12.69254	4096.00000
12.70925	4212.01000
12.72596	3956.41000
12.74267	3113.64000
12.75938	2088.49000
12.77609	1296.00000
12.79280	812.25000
12.80951	571.21000
12.82623	519.84000
12.84294	424.36000
12.85965	400.00000
12.87636	380.25000
12.89307	342.25000
12.90978	345.96000
12.92649	331.24000
12.94321	334.89000
12.95992	342.25000
12.97663	334.89000
12.99334	338.56000
13.01005	331.24000
13.02676	345.96000
13.04347	345.96000
13.06018	400.00000
13.07690	376.36000
13.09361	384.16000
13.11032	416.16000
13.12703	396.01000
13.14374	388.09000
13.16045	428.49000
13.17716	436.81000
13.19387	408.04000
13.21059	400.00000
13.22730	449.44000
13.24401	462.25000
13.26072	515.29000
13.27743	515.29000
13.29414	620.01000
13.31085	691.69000
13.32756	812.25000
13.34428	894.01000
13.36099	1095.61000
13.37770	1246.09000
13.39441	1513.21000
13.41112	1814.76000
13.42783	2097.64000
13.44454	2530.09000
13.46125	3003.04000
13.47797	3340.84000
13.49468	3528.36000
13.51139	3294.76000
13.52810	2916.00000
13.54481	2294.41000
13.56152	1664.64000
13.57823	1253.16000
13.59494	930.25000
13.61166	761.76000
13.62837	729.00000
13.64508	718.24000
13.66179	712.89000
13.67850	806.56000
13.69521	852.64000
13.71192	894.01000
13.72863	948.64000
13.74535	1142.44000
13.76206	1260.25000
13.77877	1317.69000
13.79548	1413.76000
13.81219	1398.76000
13.82890	1459.24000
13.84561	1505.44000
13.86232	1466.89000
13.87904	1632.16000
13.89575	1814.76000
13.91246	2061.16000
13.92917	2361.96000
13.94588	2766.76000
13.96259	2905.21000
13.97930	2798.41000
13.99601	2342.56000
14.01273	1883.56000
14.02944	1398.76000
14.04615	948.64000
14.06286	640.09000
14.07957	556.96000
14.09628	515.29000
14.11299	475.24000
14.12971	515.29000
14.14642	484.00000
14.16313	510.76000
14.17984	538.24000
14.19655	547.56000
14.21326	615.04000
14.22997	630.01000
14.24668	712.89000
14.26340	778.41000
14.28011	870.25000
14.29682	870.25000
14.31353	936.36000
14.33024	1036.84000
14.34695	1122.25000
14.36366	1239.04000
14.38037	1225.00000
14.39709	1274.49000
14.41380	1303.21000
14.43051	1296.00000
14.44722	1108.89000
14.46393	924.16000
14.48064	745.29000
14.49735	660.49000
14.51406	561.69000
14.53078	470.89000
14.54749	445.21000
14.56420	445.21000
14.58091	436.81000
14.59762	441.00000
14.61433	424.36000
14.63104	462.25000
14.64775	453.69000
14.66447	488.41000
14.68118	538.24000
14.69789	561.69000
14.71460	620.01000
14.73131	650.25000
14.74802	761.76000
14.76473	835.21000
14.78144	961.00000
14.79816	1036.84000
14.81487	1095.61000
14.83158	1149.21000
14.84829	1122.25000
14.86500	1115.56000
14.88171	900.00000
14.89842	761.76000
14.91513	635.04000
14.93185	552.25000
14.94856	457.96000
14.96527	408.04000
14.98198	400.00000
14.99869	334.89000
15.01540	404.01000
15.03211	349.69000
15.04882	364.81000
15.06554	338.56000
15.08225	327.61000
15.09896	313.29000
15.11567	316.84000
15.13238	334.89000
15.14909	292.41000
15.16580	327.61000
15.18252	299.29000
15.19923	338.56000
15.21594	309.76000
15.23265	313.29000
15.24936	282.24000
15.26607	324.00000
15.28278	289.00000
15.29949	320.41000
15.31621	324.00000
15.33292	275.56000
15.34963	316.84000
15.36634	331.24000
15.38305	345.96000
15.39976	289.00000
15.41647	345.96000
15.43318	292.41000
15.44990	289.00000
15.46661	285.61000
15.48332	342.25000
15.50003	338.56000
15.51674	299.29000
15.53345	282.24000
15.55016	292.41000
15.56687	327.61000
15.58359	292.41000
15.60030	313.29000
15.61701	331.24000
15.63372	357.21000
15.65043	299.29000
15.66714	309.76000
15.68385	342.25000
15.70056	368.64000
15.71728	342.25000
15.73399	331.24000
15.75070	342.25000
15.76741	327.61000
15.78412	353.44000
15.80083	327.61000
15.81754	331.24000
15.83425	320.41000
15.85097	357.21000
15.86768	324.00000
15.88439	361.00000
15.90110	353.44000
15.91781	380.25000
15.93452	404.01000
15.95123	424.36000
15.96794	475.24000
15.98466	445.21000
16.00137	529.00000
16.01808	556.96000
16.03479	625.00000
16.05150	660.49000
16.06821	734.41000
16.08492	702.25000
16.10163	734.41000
16.11835	750.76000
16.13506	778.41000
16.15177	734.41000
16.16848	772.84000
16.18519	823.69000
16.20190	924.16000
16.21861	924.16000
16.23533	1043.29000
16.25204	1075.84000
16.26875	1142.44000
16.28546	1011.24000
16.30217	979.69000
16.31888	864.36000
16.33559	707.56000
16.35230	610.09000
16.36902	547.56000
16.38573	457.96000
16.40244	453.69000
16.41915	408.04000
16.43586	388.09000
16.45257	376.36000
16.46928	357.21000
16.48599	380.25000
16.50271	320.41000
16.51942	334.89000
16.53613	380.25000
16.55284	285.61000
16.56955	327.61000
16.58626	327.61000
16.60297	353.44000
16.61968	302.76000
16.63640	285.61000
16.65311	292.41000
16.66982	327.61000
16.68653	338.56000
16.70324	306.25000
16.71995	327.61000
16.73666	302.76000
16.75337	309.76000
16.77009	342.25000
16.78680	292.41000
16.80351	331.24000
16.82022	353.44000
16.83693	364.81000
16.85364	306.25000
16.87035	345.96000
16.88706	331.24000
16.90378	324.00000
16.92049	338.56000
16.93720	368.64000
16.95391	349.69000
16.97062	376.36000
16.98733	376.36000
17.00404	392.04000
17.02075	420.25000
17.03747	380.25000
17.05418	380.25000
17.07089	392.04000
17.08760	368.64000
17.10431	396.01000
17.12102	396.01000
17.13773	388.09000
17.15444	428.49000
17.17116	420.25000
17.18787	462.25000
17.20458	501.76000
17.22129	524.41000
17.23800	566.44000
17.25471	620.01000
17.27142	620.01000
17.28813	686.44000
17.30485	795.24000
17.32156	894.01000
17.33827	992.25000
17.35498	1142.44000
17.37169	1197.16000
17.38840	1339.56000
17.40511	1260.25000
17.42183	1339.56000
17.43854	1218.01000
17.45525	1122.25000
17.47196	1024.00000
17.48867	930.25000
17.50538	784.00000
17.52209	767.29000
17.53880	778.41000
17.55552	812.25000
17.57223	756.25000
17.58894	761.76000
17.60565	829.44000
17.62236	800.89000
17.63907	823.69000
17.65578	806.56000
17.67249	739.84000
17.68921	615.04000
17.70592	595.36000
17.72263	547.56000
17.73934	488.41000
17.75605	445.21000
17.77276	408.04000
17.78947	364.81000
17.80618	376.36000
17.82290	388.09000
17.83961	364.81000
17.85632	349.69000
17.87303	331.24000
17.88974	334.89000
17.90645	338.56000
17.92316	327.61000
17.93987	353.44000
17.95659	302.76000
17.97330	331.24000
17.99001	331.24000
18.00672	327.61000
18.02343	324.00000
18.04014	306.25000
18.05685	324.00000
18.07356	349.69000
18.09028	316.84000
18.10699	327.61000
18.12370	316.84000
18.14041	320.41000
18.15712	338.56000
18.17383	342.25000
18.19054	316.84000
18.20725	342.25000
18.22397	320.41000
18.24068	320.41000
18.25739	338.56000
18.27410	364.81000
18.29081	349.69000
18.30752	364.81000
18.32423	338.56000
18.34094	380.25000
18.35766	364.81000
18.37437	357.21000
18.39108	412.09000
18.40779	396.01000
18.42450	396.01000
18.44121	376.36000
18.45792	400.00000
18.47464	392.04000
18.49135	449.44000
18.50806	453.69000
18.52477	475.24000
18.54148	510.76000
18.55819	488.41000
18.57490	571.21000
18.59161	566.44000
18.60833	533.61000
18.62504	515.29000
18.64175	488.41000
18.65846	466.56000
18.67517	408.04000
18.69188	484.00000
18.70859	416.16000
18.72530	441.00000
18.74202	416.16000
18.75873	457.96000
18.77544	479.61000
18.79215	515.29000
18.80886	515.29000
18.82557	542.89000
18.84228	501.76000
18.85899	519.84000
18.87571	424.36000
18.89242	412.09000
18.90913	384.16000
18.92584	380.25000
18.94255	372.49000
18.95926	353.44000
18.97597	345.96000
18.99268	364.81000
19.00940	353.44000
19.02611	364.81000
19.04282	392.04000
19.05953	428.49000
19.07624	424.36000
19.09295	449.44000
19.10966	501.76000
19.12637	497.29000
19.14309	484.00000
19.15980	492.84000
19.17651	479.61000
19.19322	432.64000
19.20993	445.21000
19.22664	424.36000
19.24335	349.69000
19.26006	400.00000
19.27678	400.00000
19.29349	338.56000
19.31020	327.61000
19.32691	342.25000
19.34362	342.25000
19.36033	338.56000
19.37704	349.69000
19.39375	338.56000
19.41047	345.96000
19.42718	353.44000
19.44389	338.56000
19.46060	324.00000
19.47731	357.21000
19.49402	338.56000
19.51073	345.96000
19.52745	353.44000
19.54416	338.56000
19.56087	334.89000
19.57758	345.96000
19.59429	384.16000
19.61100	345.96000
19.62771	408.04000
19.64442	400.00000
19.66114	412.09000
19.67785	428.49000
19.69456	441.00000
19.71127	424.36000
19.72798	428.49000
19.74469	400.00000
19.76140	400.00000
19.77811	416.16000
19.79483	384.16000
19.81154	376.36000
19.82825	424.36000
19.84496	408.04000
19.86167	412.09000
19.87838	416.16000
19.89509	428.49000
19.91180	436.81000
19.92852	492.84000
19.94523	506.25000
19.96194	547.56000
19.97865	571.21000
19.99536	585.64000
20.01207	590.49000
20.02878	556.96000
20.04549	556.96000
20.06221	610.09000
20.07892	590.49000
20.09563	590.49000
20.11234	529.00000
20.12905	571.21000
20.14576	595.36000
20.16247	552.25000
20.17918	547.56000
20.19590	576.00000
20.21261	538.24000
20.22932	492.84000
20.24603	457.96000
20.26274	497.29000
20.27945	501.76000
20.29616	462.25000
20.31287	392.04000
20.32959	364.81000
20.34630	436.81000
20.36301	445.21000
20.37972	432.64000
20.39643	497.29000
20.41314	519.84000
20.42985	466.56000
20.44656	610.09000
20.46328	650.25000
20.47999	625.00000
20.49670	707.56000
20.51341	756.25000
20.53012	864.36000
20.54683	918.09000
20.56354	1089.00000
20.58025	1190.25000
20.59697	1281.64000
20.61368	1339.56000
20.63039	1339.56000
20.64710	1296.00000
20.66381	1108.89000
20.68052	1017.61000
20.69723	894.01000
20.71395	858.49000
20.73066	761.76000
20.74737	772.84000
20.76408	686.44000
20.78079	691.69000
20.79750	640.09000
20.81421	645.16000
20.83092	556.96000
20.84764	529.00000
20.86435	519.84000
20.88106	475.24000
20.89777	470.89000
20.91448	453.69000
20.93119	432.64000
20.94790	400.00000
20.96461	392.04000
20.98133	416.16000
20.99804	388.09000
21.01475	384.16000
21.03146	424.36000
21.04817	372.49000
21.06488	368.64000
21.08159	404.01000
21.09830	420.25000
21.11502	466.56000
21.13173	484.00000
21.14844	484.00000
21.16515	470.89000
21.18186	519.84000
21.19857	492.84000
21.21528	529.00000
21.23199	475.24000
21.24871	470.89000
21.26542	441.00000
21.28213	404.01000
21.29884	449.44000
21.31555	396.01000
21.33226	380.25000
21.34897	453.69000
21.36568	470.89000
21.38240	470.89000
21.39911	428.49000
21.41582	470.89000
21.43253	475.24000
21.44924	529.00000
21.46595	571.21000
21.48266	620.01000
21.49937	610.09000
21.51609	707.56000
21.53280	723.61000
21.54951	841.00000
21.56622	864.36000
21.58293	888.04000
21.59964	918.09000
21.61635	876.16000
21.63306	841.00000
21.64978	846.81000
21.66649	686.44000
21.68320	745.29000
21.69991	655.36000
21.71662	691.69000
21.73333	670.81000
21.75004	640.09000
21.76676	707.56000
21.78347	670.81000
21.80018	670.81000
21.81689	665.64000
21.83360	635.04000
21.85031	556.96000
21.86702	561.69000
21.88373	547.56000
21.90045	519.84000
21.91716	533.61000
21.93387	497.29000
21.95058	479.61000
21.96729	501.76000
21.98400	497.29000
22.00071	538.24000
22.01742	501.76000
22.03414	580.81000
22.05085	670.81000
22.06756	676.00000
22.08427	718.24000
22.10098	894.01000
22.11769	924.16000
22.13440	1108.89000
22.15111	1267.36000
22.16783	1413.76000
22.18454	1592.01000
22.20125	1814.76000
22.21796	1936.00000
22.23467	1971.36000
22.25138	1730.56000
22.26809	1592.01000
22.28480	1376.41000
22.30152	1183.36000
22.31823	936.36000
22.33494	812.25000
22.35165	707.56000
22.36836	600.25000
22.38507	529.00000
22.40178	497.29000
22.41849	479.61000
22.43521	484.00000
22.45192	416.16000
22.46863	470.89000
22.48534	412.09000
22.50205	420.25000
22.51876	364.81000
22.53547	372.49000
22.55218	420.25000
22.56890	449.44000
22.58561	396.01000
22.60232	441.00000
22.61903	436.81000
22.63574	408.04000
22.65245	432.64000
22.66916	436.81000
22.68587	436.81000
22.70259	436.81000
22.71930	484.00000
22.73601	524.41000
22.75272	561.69000
22.76943	552.25000
22.78614	600.25000
22.80285	650.25000
22.81957	681.21000
22.83628	756.25000
22.85299	800.89000
22.86970	841.00000
22.88641	852.64000
22.90312	835.21000
22.91983	864.36000
22.93654	888.04000
22.95326	888.04000
22.96997	900.00000
22.98668	906.01000
23.00339	924.16000
23.02010	961.00000
23.03681	1075.84000
23.05352	1142.44000
23.07023	1156.00000
23.08695	1225.00000
23.10366	1274.49000
23.12037	1183.36000
23.13708	1183.36000
23.15379	1142.44000
23.17050	1069.29000
23.18721	1017.61000
23.20392	918.09000
23.22064	961.00000
23.23735	841.00000
23.25406	852.64000
23.27077	723.61000
23.28748	660.49000
23.30419	686.44000
23.32090	665.64000
23.33761	580.81000
23.35433	610.09000
23.37104	552.25000
23.38775	595.36000
23.40446	585.64000
23.42117	702.25000
23.43788	660.49000
23.45459	718.24000
23.47130	750.76000
23.48802	789.61000
23.50473	882.09000
23.52144	936.36000
23.53815	888.04000
23.55486	930.25000
23.57157	998.56000
23.58828	906.01000
23.60499	924.16000
23.62171	882.09000
23.63842	835.21000
23.65513	817.96000
23.67184	789.61000
23.68855	718.24000
23.70526	640.09000
23.72197	660.49000
23.73868	605.16000
23.75540	576.00000
23.77211	533.61000
23.78882	506.25000
23.80553	556.96000
23.82224	457.96000
23.83895	510.76000
23.85566	492.84000
23.87237	479.61000
23.88909	432.64000
23.90580	470.89000
23.92251	449.44000
23.93922	436.81000
23.95593	457.96000
23.97264	432.64000
23.98935	453.69000
24.00607	428.49000
24.02278	466.56000
24.03949	492.84000
24.05620	470.89000
24.07291	484.00000
24.08962	501.76000
24.10633	466.56000
24.12304	445.21000
24.13976	484.00000
24.15647	445.21000
24.17318	515.29000
24.18989	533.61000
24.20660	585.64000
24.22331	561.69000
24.24002	645.16000
24.25673	676.00000
24.27345	660.49000
24.29016	761.76000
24.30687	767.29000
24.32358	882.09000
24.34029	835.21000
24.35700	918.09000
24.37371	1082.41000
24.39042	1017.61000
24.40714	1108.89000
24.42385	1115.56000
24.44056	1197.16000
24.45727	1317.69000
24.47398	1513.21000
24.49069	1568.16000
24.50740	1672.81000
24.52411	1900.96000
24.54083	2016.01000
24.55754	2332.89000
24.57425	2735.29000
24.59096	3203.56000
24.60767	3445.69000
24.62438	3696.64000
24.64109	4032.25000
24.65780	4057.69000
24.67452	3956.41000
24.69123	3881.29000
24.70794	3410.56000
24.72465	3169.69000
24.74136	2745.76000
24.75807	2218.41000
24.77478	1772.41000
24.79149	1521.00000
24.80821	1354.24000
24.82492	1246.09000
24.84163	1036.84000
24.85834	967.21000
24.87505	876.16000
24.89176	829.44000
24.90847	795.24000
24.92518	789.61000
24.94190	800.89000
24.95861	729.00000
24.97532	800.89000
24.99203	750.76000
25.00874	723.61000
25.02545	761.76000
25.04216	772.84000
25.05888	729.00000
25.07559	745.29000
25.09230	718.24000
25.10901	681.21000
25.12572	718.24000
25.14243	729.00000
25.15914	635.04000
25.17585	696.96000
25.19257	686.44000
25.20928	691.69000
25.22599	691.69000
25.24270	640.09000
25.25941	620.01000
25.27612	600.25000
25.29283	625.00000
25.30954	590.49000
25.32626	556.96000
25.34297	547.56000
25.35968	547.56000
25.37639	529.00000
25.39310	556.96000
25.40981	524.41000
25.42652	506.25000
25.44323	484.00000
25.45995	529.00000
25.47666	571.21000
25.49337	571.21000
25.51008	533.61000
25.52679	580.81000
25.54350	576.00000
25.56021	590.49000
25.57692	600.25000
25.59364	640.09000
25.61035	561.69000
25.62706	552.25000
25.64377	595.36000
25.66048	580.81000
25.67719	571.21000
25.69390	600.25000
25.71061	552.25000
25.72733	630.01000
25.74404	645.16000
25.76075	620.01000
25.77746	610.09000
25.79417	615.04000
25.81088	615.04000
25.82759	571.21000
25.84430	590.49000
25.86102	547.56000
25.87773	595.36000
25.89444	610.09000
25.91115	605.16000
25.92786	605.16000
25.94457	556.96000
25.96128	580.81000
25.97799	585.64000
25.99471	676.00000
26.01142	712.89000
26.02813	772.84000
26.04484	882.09000
26.06155	870.25000
26.07826	954.81000
26.09497	1017.61000
26.11168	1108.89000
26.12840	1176.49000
26.14511	1267.36000
26.16182	1398.76000
26.17853	1521.00000
26.19524	1552.36000
26.21195	1705.69000
26.22866	1849.00000
26.24538	1953.64000
26.26209	2284.84000
26.27880	2540.16000
26.29551	2704.00000
26.31222	3091.36000
26.32893	3364.00000
26.34564	3856.41000
26.36235	4290.25000
26.37907	4816.36000
26.39578	5140.89000
26.41249	5461.21000
26.42920	5446.44000
26.44591	5285.29000
26.46262	4872.04000
26.47933	4316.49000
26.49604	3918.76000
26.51276	3203.56000
26.52947	2735.29000
26.54618	2284.84000
26.56289	1944.81000
26.57960	1722.25000
26.59631	1489.96000
26.61302	1369.00000
26.62973	1317.69000
26.64645	1169.64000
26.66316	1162.81000
26.67987	1056.25000
26.69658	985.96000
26.71329	973.44000
26.73000	882.09000
26.74671	772.84000
26.76342	772.84000
26.78014	745.29000
26.79685	745.29000
26.81356	750.76000
26.83027	670.81000
26.84698	660.49000
26.86369	729.00000
26.88040	739.84000
26.89711	734.41000
26.91383	660.49000
26.93054	795.24000
26.94725	739.84000
26.96396	800.89000
26.98067	789.61000
26.99738	882.09000
27.01409	841.00000
27.03080	900.00000
27.04752	876.16000
27.06423	882.09000
27.08094	930.25000
27.09765	924.16000
27.11436	936.36000
27.13107	942.49000
27.14778	985.96000
27.16449	942.49000
27.18121	900.00000
27.19792	767.29000
27.21463	800.89000
27.23134	806.56000
27.24805	806.56000
27.26476	817.96000
27.28147	767.29000
27.29819	841.00000
27.31490	888.04000
27.33161	1004.89000
27.34832	998.56000
27.36503	1062.76000
27.38174	1135.69000
27.39845	1135.69000
27.41516	1197.16000
27.43188	1176.49000
27.44859	1176.49000
27.46530	1190.25000
27.48201	1190.25000
27.49872	1239.04000
27.51543	1183.36000
27.53214	1204.09000
27.54885	1183.36000
27.56557	1169.64000
27.58228	1176.49000
27.59899	1246.09000
27.61570	1253.16000
27.63241	1253.16000
27.64912	1369.00000
27.66583	1317.69000
27.68254	1376.41000
27.69926	1361.61000
27.71597	1339.56000
27.73268	1406.25000
27.74939	1459.24000
27.76610	1568.16000
27.78281	1705.69000
27.79952	1681.00000
27.81623	1857.61000
27.83295	1953.64000
27.84966	2152.96000
27.86637	2218.41000
27.88308	2275.29000
27.89979	2237.29000
27.91650	2227.84000
27.93321	2052.09000
27.94992	1806.25000
27.96664	1592.01000
27.98335	1413.76000
28.00006	1310.44000
28.01677	1176.49000
28.03348	1108.89000
28.05019	1011.24000
28.06690	942.49000
28.08361	900.00000
28.10033	912.04000
28.11704	835.21000
28.13375	888.04000
28.15046	870.25000
28.16717	924.16000
28.18388	948.64000
28.20059	930.25000
28.21730	985.96000
28.23402	1036.84000
28.25073	1036.84000
28.26744	1089.00000
28.28415	998.56000
28.30086	1030.41000
28.31757	924.16000
28.33428	924.16000
28.35100	888.04000
28.36771	876.16000
28.38442	756.25000
28.40113	734.41000
28.41784	723.61000
28.43455	745.29000
28.45126	778.41000
28.46797	778.41000
28.48469	852.64000
28.50140	888.04000
28.51811	882.09000
28.53482	1004.89000
28.55153	1062.76000
28.56824	1062.76000
28.58495	1190.25000
28.60166	1183.36000
28.61838	1253.16000
28.63509	1324.96000
28.65180	1339.56000
28.66851	1361.61000
28.68522	1346.89000
28.70193	1135.69000
28.71864	1176.49000
28.73535	1149.21000
28.75207	1024.00000
28.76878	973.44000
28.78549	967.21000
28.80220	876.16000
28.81891	912.04000
28.83562	846.81000
28.85233	900.00000
28.86904	882.09000
28.88576	900.00000
28.90247	864.36000
28.91918	846.81000
28.93589	789.61000
28.95260	696.96000
28.96931	734.41000
28.98602	681.21000
29.00273	635.04000
29.01945	585.64000
29.03616	538.24000
29.05287	524.41000
29.06958	547.56000
29.08629	501.76000
29.10300	533.61000
29.11971	488.41000
29.13642	515.29000
29.15314	538.24000
29.16985	501.76000
29.18656	556.96000
29.20327	561.69000
29.21998	590.49000
29.23669	585.64000
29.25340	655.36000
29.27011	686.44000
29.28683	665.64000
29.30354	691.69000
29.32025	767.29000
29.33696	729.00000
29.35367	734.41000
29.37038	817.96000
29.38709	745.29000
29.40380	772.84000
29.42052	686.44000
29.43723	707.56000
29.45394	660.49000
29.47065	655.36000
29.48736	681.21000
29.50407	620.01000
29.52078	580.81000
29.53750	580.81000
29.55421	590.49000
29.57092	585.64000
29.58763	585.64000
29.60434	615.04000
29.62105	552.25000
29.63776	580.81000
29.65447	595.36000
29.67119	605.16000
29.68790	635.04000
29.70461	676.00000
29.72132	686.44000
29.73803	691.69000
29.75474	745.29000
29.77145	702.25000
29.78816	734.41000
29.80488	784.00000
29.82159	712.89000
29.83830	712.89000
29.85501	712.89000
29.87172	745.29000
29.88843	745.29000
29.90514	712.89000
29.92185	681.21000
29.93857	635.04000
29.95528	605.16000
29.97199	615.04000
29.98870	566.44000
30.00541	547.56000
30.02212	492.84000
30.03883	484.00000
30.05554	475.24000
30.07226	453.69000
30.08897	449.44000
30.10568	515.29000
30.12239	432.64000
30.13910	432.64000
30.15581	420.25000
30.17252	436.81000
30.18923	457.96000
30.20595	420.25000
30.22266	436.81000
30.23937	470.89000
30.25608	441.00000
30.27279	457.96000
30.28950	462.25000
30.30621	457.96000
30.32292	449.44000
30.33964	445.21000
30.35635	479.61000
30.37306	432.64000
30.38977	400.00000
30.40648	470.89000
30.42319	441.00000
30.43990	424.36000
30.45661	445.21000
30.47333	453.69000
30.49004	488.41000
30.50675	484.00000
30.52346	441.00000
30.54017	470.89000
30.55688	457.96000
30.57359	457.96000
30.59031	420.25000
30.60702	420.25000
30.62373	449.44000
30.64044	441.00000
30.65715	420.25000
30.67386	428.49000
30.69057	457.96000
30.70728	479.61000
30.72400	432.64000
30.74071	466.56000
30.75742	453.69000
30.77413	488.41000
30.79084	466.56000
30.80755	497.29000
30.82426	484.00000
30.84097	506.25000
30.85769	470.89000
30.87440	416.16000
30.89111	404.01000
30.90782	457.96000
30.92453	436.81000
30.94124	404.01000
30.95795	424.36000
30.97466	420.25000
30.99138	396.01000
31.00809	408.04000
31.02480	388.09000
31.04151	388.09000
31.05822	396.01000
31.07493	400.00000
31.09164	388.09000
31.10835	361.00000
31.12507	327.61000
31.14178	345.96000
31.15849	324.00000
31.17520	384.16000
31.19191	338.56000
31.20862	353.44000
31.22533	320.41000
31.24204	313.29000
31.25876	342.25000
31.27547	364.81000
31.29218	334.89000
31.30889	357.21000
31.32560	372.49000
31.34231	349.69000
31.35902	361.00000
31.37573	368.64000
31.39245	345.96000
31.40916	388.09000
31.42587	380.25000
31.44258	372.49000
31.45929	376.36000
31.47600	380.25000
31.49271	368.64000
31.50942	388.09000
31.52614	396.01000
31.54285	372.49000
31.55956	376.36000
31.57627	368.64000
31.59298	388.09000
31.60969	364.81000
31.62640	342.25000
31.64312	364.81000
31.65983	309.76000
31.67654	320.41000
31.69325	316.84000
31.70996	349.69000
31.72667	388.09000
31.74338	349.69000
31.76009	342.25000
31.77681	353.44000
31.79352	342.25000
31.81023	338.56000
31.82694	331.24000
31.84365	327.61000
31.86036	345.96000
31.87707	364.81000
31.89378	349.69000
31.91050	372.49000
31.92721	324.00000
31.94392	327.61000
31.96063	353.44000
31.97734	368.64000
31.99405	368.64000
32.01076	361.00000
32.02747	357.21000
32.04419	380.25000
32.06090	364.81000
32.07761	368.64000
32.09432	380.25000
32.11103	388.09000
32.12774	368.64000
32.14445	364.81000
32.16116	353.44000
32.17788	353.44000
32.19459	368.64000
32.21130	345.96000
32.22801	384.16000
32.24472	408.04000
32.26143	338.56000
32.27814	361.00000
32.29485	364.81000
32.31157	372.49000
32.32828	408.04000
32.34499	357.21000
32.36170	404.01000
32.37841	368.64000
32.39512	462.25000
32.41183	462.25000
32.42854	432.64000
32.44526	445.21000
32.46197	466.56000
32.47868	449.44000
32.49539	466.56000
32.51210	524.41000
32.52881	506.25000
32.54552	515.29000
32.56223	533.61000
32.57895	533.61000
32.59566	590.49000
32.61237	576.00000
32.62908	576.00000
32.64579	576.00000
32.66250	610.09000
32.67921	595.36000
32.69592	630.01000
32.71264	645.16000
32.72935	630.01000
32.74606	600.25000
32.76277	585.64000
32.77948	635.04000
32.79619	595.36000
32.81290	645.16000
32.82962	590.49000
32.84633	620.01000
32.86304	547.56000
32.87975	519.84000
32.89646	492.84000
32.91317	497.29000
32.92988	441.00000
32.94659	470.89000
32.96331	424.36000
32.98002	396.01000
32.99673	436.81000
33.01344	416.16000
33.03015	388.09000
33.04686	416.16000
33.06357	376.36000
33.08028	380.25000
33.09700	428.49000
33.11371	404.01000
33.13042	432.64000
33.14713	432.64000
33.16384	428.49000
33.18055	445.21000
33.19726	462.25000
33.21397	475.24000
33.23069	479.61000
33.24740	524.41000
33.26411	510.76000
33.28082	506.25000
33.29753	533.61000
33.31424	510.76000
33.33095	484.00000
33.34766	519.84000
33.36438	492.84000
33.38109	515.29000
33.39780	571.21000
33.41451	484.00000
33.43122	470.89000
33.44793	524.41000
33.46464	484.00000
33.48135	484.00000
33.49807	449.44000
33.51478	457.96000
33.53149	453.69000
33.54820	396.01000
33.56491	380.25000
33.58162	384.16000
33.59833	353.44000
33.61504	342.25000
33.63176	331.24000
33.64847	342.25000
33.66518	342.25000
33.68189	324.00000
33.69860	338.56000
33.71531	338.56000
33.73202	292.41000
33.74873	309.76000
33.76545	302.76000
33.78216	342.25000
33.79887	338.56000
33.81558	349.69000
33.83229	364.81000
33.84900	338.56000
33.86571	338.56000
33.88243	353.44000
33.89914	338.56000
33.91585	342.25000
33.93256	345.96000
33.94927	361.00000
33.96598	345.96000
33.98269	338.56000
33.99940	334.89000
34.01612	302.76000
34.03283	368.64000
34.04954	320.41000
34.06625	327.61000
34.08296	334.89000
34.09967	338.56000
34.11638	309.76000
34.13309	342.25000
34.14981	324.00000
34.16652	349.69000
34.18323	316.84000
34.19994	372.49000
34.21665	396.01000
34.23336	376.36000
34.25007	412.09000
34.26678	412.09000
34.28350	420.25000
34.30021	428.49000
34.31692	457.96000
34.33363	428.49000
34.35034	453.69000
34.36705	475.24000
34.38376	475.24000
34.40047	368.64000
34.41719	470.89000
34.43390	449.44000
34.45061	400.00000
34.46732	436.81000
34.48403	449.44000
34.50074	400.00000
34.51745	412.09000
34.53416	361.00000
34.55088	392.04000
34.56759	436.81000
34.58430	441.00000
34.60101	376.36000
34.61772	441.00000
34.63443	457.96000
34.65114	400.00000
34.66785	445.21000
34.68457	424.36000
34.70128	436.81000
34.71799	428.49000
34.73470	462.25000
34.75141	436.81000
34.76812	492.84000
34.78483	466.56000
34.80154	445.21000
34.81826	470.89000
34.83497	457.96000
34.85168	501.76000
34.86839	462.25000
34.88510	492.84000
34.90181	466.56000
34.91852	515.29000
34.93524	501.76000
34.95195	501.76000
34.96866	470.89000
34.98537	449.44000
35.00208	457.96000
35.01879	519.84000
35.03550	510.76000
35.05221	457.96000
35.06893	470.89000
35.08564	428.49000
35.10235	445.21000
35.11906	368.64000
35.13577	376.36000
35.15248	372.49000
35.16919	372.49000
35.18590	361.00000
35.20262	361.00000
35.21933	334.89000
35.23604	364.81000
35.25275	353.44000
35.26946	364.81000
35.28617	331.24000
35.30288	327.61000
35.31959	357.21000
35.33631	357.21000
35.35302	416.16000
35.36973	357.21000
35.38644	388.09000
35.40315	388.09000
35.41986	392.04000
35.43657	384.16000
35.45328	384.16000
35.47000	376.36000
35.48671	368.64000
35.50342	368.64000
35.52013	404.01000
35.53684	380.25000
35.55355	400.00000
35.57026	372.49000
35.58697	357.21000
35.60369	388.09000
35.62040	380.25000
35.63711	388.09000
35.65382	408.04000
35.67053	400.00000
35.68724	424.36000
35.70395	424.36000
35.72066	420.25000
35.73738	424.36000
35.75409	412.09000
35.77080	424.36000
35.78751	462.25000
35.80422	408.04000
35.82093	420.25000
35.83764	449.44000
35.85435	416.16000
35.87107	441.00000
35.88778	396.01000
35.90449	368.64000
35.92120	380.25000
35.93791	384.16000
35.95462	396.01000
35.97133	364.81000
35.98804	345.96000
36.00476	313.29000
36.02147	338.56000
36.03818	361.00000
36.05489	331.24000
36.07160	331.24000
36.08831	316.84000
36.10502	331.24000
36.12174	292.41000
36.13845	349.69000
36.15516	320.41000
36.17187	372.49000
36.18858	324.00000
36.20529	331.24000
36.22200	349.69000
36.23871	345.96000
36.25543	396.01000
36.27214	424.36000
36.28885	388.09000
36.30556	449.44000
36.32227	436.81000
36.33898	436.81000
36.35569	462.25000
36.37240	432.64000
36.38912	457.96000
36.40583	392.04000
36.42254	424.36000
36.43925	412.09000
36.45596	404.01000
36.47267	349.69000
36.48938	380.25000
36.50609	372.49000
36.52281	388.09000
36.53952	342.25000
36.55623	396.01000
36.57294	364.81000
36.58965	338.56000
36.60636	331.24000
36.62307	353.44000
36.63978	342.25000
36.65650	388.09000
36.67321	396.01000
36.68992	361.00000
36.70663	392.04000
36.72334	368.64000
36.74005	428.49000
36.75676	412.09000
36.77347	424.36000
36.79019	436.81000
36.80690	420.25000
36.82361	384.16000
36.84032	396.01000
36.85703	400.00000
36.87374	372.49000
36.89045	376.36000
36.90716	372.49000
36.92388	368.64000
36.94059	364.81000
36.95730	372.49000
36.97401	342.25000
36.99072	364.81000
37.00743	376.36000
37.02414	338.56000
37.04085	372.49000
37.05757	342.25000
37.07428	380.25000
37.09099	388.09000
37.10770	353.44000
37.12441	412.09000
37.14112	368.64000
37.15783	424.36000
37.17455	432.64000
37.19126	449.44000
37.20797	441.00000
37.22468	445.21000
37.24139	449.44000
37.25810	441.00000
37.27481	445.21000
37.29152	475.24000
37.30824	453.69000
37.32495	445.21000
37.34166	445.21000
37.35837	484.00000
37.37508	404.01000
37.39179	392.04000
37.40850	449.44000
37.42521	420.25000
37.44193	376.36000
37.45864	368.64000
37.47535	368.64000
37.49206	368.64000
37.50877	361.00000
37.52548	331.24000
37.54219	334.89000
37.55890	327.61000
37.57562	331.24000
37.59233	338.56000
37.60904	316.84000
37.62575	292.41000
37.64246	309.76000
37.65917	331.24000
37.67588	275.56000
37.69259	320.41000
37.70931	302.76000
37.72602	338.56000
37.74273	316.84000
37.75944	327.61000
37.77615	338.56000
37.79286	331.24000
37.80957	353.44000
37.82628	345.96000
37.84300	331.24000
37.85971	345.96000
37.87642	380.25000
37.89313	313.29000
37.90984	368.64000
37.92655	364.81000
37.94326	345.96000
37.95997	364.81000
37.97669	357.21000
37.99340	345.96000
38.01011	353.44000
38.02682	327.61000
38.04353	342.25000
38.06024	327.61000
38.07695	361.00000
38.09366	342.25000
38.11038	334.89000
38.12709	380.25000
38.14380	353.44000
38.16051	404.01000
38.17722	384.16000
38.19393	372.49000
38.21064	392.04000
38.22736	349.69000
38.24407	396.01000
38.26078	408.04000
38.27749	432.64000
38.29420	388.09000
38.31091	432.64000
38.32762	412.09000
38.34433	400.00000
38.36105	408.04000
38.37776	388.09000
38.39447	392.04000
38.41118	380.25000
38.42789	420.25000
38.44460	392.04000
38.46131	396.01000
38.47802	376.36000
38.49474	380.25000
38.51145	420.25000
38.52816	368.64000
38.54487	364.81000
38.56158	372.49000
38.57829	368.64000
38.59500	380.25000
38.61171	376.36000
38.62843	357.21000
38.64514	338.56000
38.66185	368.64000
38.67856	392.04000
38.69527	364.81000
38.71198	361.00000
38.72869	372.49000
38.74540	349.69000
38.76212	320.41000
38.77883	324.00000
38.79554	327.61000
38.81225	309.76000
38.82896	349.69000
38.84567	302.76000
38.86238	320.41000
38.87909	331.24000
38.89581	331.24000
38.91252	353.44000
38.92923	324.00000
38.94594	334.89000
38.96265	331.24000
38.97936	313.29000
38.99607	316.84000
39.01278	306.25000
39.02950	292.41000
39.04621	306.25000
39.06292	275.56000
39.07963	313.29000
39.09634	331.24000
39.11305	292.41000
39.12976	295.84000
39.14647	320.41000
39.16319	316.84000
39.17990	331.24000
39.19661	316.84000
39.21332	338.56000
39.23003	316.84000
39.24674	309.76000
39.26345	324.00000
39.28016	299.29000
39.29688	353.44000
39.31359	327.61000
39.33030	357.21000
39.34701	327.61000
39.36372	357.21000
39.38043	392.04000
39.39714	408.04000
39.41386	412.09000
39.43057	380.25000
39.44728	338.56000
39.46399	349.69000
39.48070	380.25000
39.49741	400.00000
39.51412	420.25000
39.53083	384.16000
39.54755	376.36000
39.56426	372.49000
39.58097	404.01000
39.59768	353.44000
39.61439	353.44000
39.63110	412.09000
39.64781	349.69000
39.66452	392.04000
39.68124	424.36000
39.69795	376.36000
39.71466	392.04000
39.73137	400.00000
39.74808	432.64000
39.76479	400.00000
39.78150	449.44000
39.79821	457.96000
39.81493	466.56000
39.83164	449.44000
39.84835	428.49000
39.86506	428.49000
39.88177	457.96000
39.89848	462.25000
39.91519	479.61000
39.93190	445.21000
39.94862	457.96000
39.96533	453.69000
39.98204	380.25000
39.99875	400.00000
40.01546	404.01000
40.03217	416.16000
40.04888	404.01000
40.06559	364.81000
40.08231	380.25000
40.09902	372.49000
40.11573	388.09000
40.13244	345.96000
40.14915	353.44000
40.16586	327.61000
40.18257	342.25000
40.19928	306.25000
40.21600	299.29000
40.23271	306.25000
40.24942	320.41000
40.26613	324.00000
40.28284	282.24000
40.29955	268.96000
40.31626	282.24000
40.33297	299.29000
40.34969	275.56000
40.36640	252.81000
40.38311	278.89000
40.39982	295.84000
40.41653	331.24000
40.43324	295.84000
40.44995	327.61000
40.46667	306.25000
40.48338	309.76000
40.50009	306.25000
40.51680	306.25000
40.53351	295.84000
40.55022	353.44000
40.56693	364.81000
40.58364	338.56000
40.60036	380.25000
40.61707	388.09000
40.63378	396.01000
40.65049	424.36000
40.66720	416.16000
40.68391	372.49000
40.70062	424.36000
40.71733	357.21000
40.73405	364.81000
40.75076	353.44000
40.76747	345.96000
40.78418	327.61000
40.80089	331.24000
40.81760	349.69000
40.83431	334.89000
40.85102	313.29000
40.86774	320.41000
40.88445	309.76000
40.90116	331.24000
40.91787	268.96000
40.93458	338.56000
40.95129	361.00000
40.96800	299.29000
40.98471	268.96000
41.00143	320.41000
41.01814	316.84000
41.03485	324.00000
41.05156	338.56000
41.06827	331.24000
41.08498	313.29000
41.10169	299.29000
41.11840	302.76000
41.13512	331.24000
41.15183	334.89000
41.16854	327.61000
41.18525	309.76000
41.20196	313.29000
41.21867	327.61000
41.23538	324.00000
41.25209	302.76000
41.26881	349.69000
41.28552	306.25000
41.30223	357.21000
41.31894	334.89000
41.33565	342.25000
41.35236	331.24000
41.36907	331.24000
41.38578	331.24000
41.40250	368.64000
41.41921	357.21000
41.43592	384.16000
41.45263	376.36000
41.46934	357.21000
41.48605	372.49000
41.50276	357.21000
41.51947	400.00000
41.53619	396.01000
41.55290	364.81000
41.56961	324.00000
41.58632	324.00000
41.60303	316.84000
41.61974	342.25000
41.63645	327.61000
41.65317	331.24000
41.66988	320.41000
41.68659	302.76000
41.70330	302.76000
41.72001	282.24000
41.73672	309.76000
41.75343	316.84000
41.77014	265.69000
41.78686	285.61000
41.80357	316.84000
41.82028	302.76000
41.83699	292.41000
41.85370	299.29000
41.87041	292.41000
41.88712	316.84000
41.90383	327.61000
41.92055	334.89000
41.93726	320.41000
41.95397	299.29000
41.97068	306.25000
41.98739	316.84000
42.00410	338.56000
42.02081	285.61000
42.03752	331.24000
42.05424	376.36000
42.07095	338.56000
42.08766	334.89000
42.10437	361.00000
42.12108	338.56000
42.13779	327.61000
42.15450	364.81000
42.17121	372.49000
42.18793	396.01000
42.20464	368.64000
42.22135	372.49000
42.23806	408.04000
42.25477	353.44000
42.27148	327.61000
42.28819	372.49000
42.30490	376.36000
42.32162	388.09000
42.33833	357.21000
42.35504	357.21000
42.37175	388.09000
42.38846	408.04000
42.40517	428.49000
42.42188	436.81000
42.43859	404.01000
42.45531	428.49000
42.47202	445.21000
42.48873	420.25000
42.50544	416.16000
42.52215	384.16000
42.53886	392.04000
42.55557	380.25000
42.57228	361.00000
42.58900	388.09000
42.60571	342.25000
42.62242	324.00000
42.63913	364.81000
42.65584	357.21000
42.67255	327.61000
42.68926	334.89000
42.70598	302.76000
42.72269	342.25000
42.73940	338.56000
42.75611	353.44000
42.77282	320.41000
42.78953	320.41000
42.80624	353.44000
42.82295	357.21000
42.83967	342.25000
42.85638	353.44000
42.87309	364.81000
42.88980	313.29000
42.90651	349.69000
42.92322	349.69000
42.93993	342.25000
42.95664	353.44000
42.97336	353.44000
42.99007	353.44000
43.00678	368.64000
43.02349	302.76000
43.04020	380.25000
43.05691	309.76000
43.07362	324.00000
43.09033	327.61000
43.10705	338.56000
43.12376	357.21000
43.14047	353.44000
43.15718	320.41000
43.17389	342.25000
43.19060	353.44000
43.20731	313.29000
43.22402	338.56000
43.24074	313.29000
43.25745	334.89000
43.27416	364.81000
43.29087	361.00000
43.30758	380.25000
43.32429	331.24000
43.34100	320.41000
43.35771	342.25000
43.37443	338.56000
43.39114	342.25000
43.40785	299.29000
43.42456	320.41000
43.44127	327.61000
43.45798	338.56000
43.47469	357.21000
43.49140	334.89000
43.50812	345.96000
43.52483	331.24000
43.54154	327.61000
43.55825	327.61000
43.57496	361.00000
43.59167	327.61000
43.60838	324.00000
43.62509	345.96000
43.64181	331.24000
43.65852	361.00000
43.67523	353.44000
43.69194	353.44000
43.70865	376.36000
43.72536	396.01000
43.74207	372.49000
43.75879	384.16000
43.77550	432.64000
43.79221	376.36000
43.80892	376.36000
43.82563	376.36000
43.84234	364.81000
43.85905	376.36000
43.87576	376.36000
43.89248	384.16000
43.90919	368.64000
43.92590	364.81000
43.94261	357.21000
43.95932	384.16000
43.97603	388.09000
43.99274	316.84000
44.00945	353.44000
44.02617	380.25000
44.04288	345.96000
44.05959	361.00000
44.07630	368.64000
44.09301	368.64000
44.10972	327.61000
44.12643	331.24000
44.14314	338.56000
44.15986	353.44000
44.17657	327.61000
44.19328	331.24000
44.20999	327.61000
44.22670	342.25000
44.24341	334.89000
44.26012	353.44000
44.27683	331.24000
44.29355	309.76000
44.31026	299.29000
44.32697	327.61000
44.34368	320.41000
44.36039	320.41000
44.37710	331.24000
44.39381	353.44000
44.41052	364.81000
44.42724	327.61000
44.44395	392.04000
44.46066	380.25000
44.47737	364.81000
44.49408	342.25000
44.51079	364.81000
44.52750	364.81000
44.54421	376.36000
44.56093	342.25000
44.57764	388.09000
44.59435	349.69000
44.61106	353.44000
44.62777	342.25000
44.64448	338.56000
44.66119	320.41000
44.67790	342.25000
44.69462	338.56000
44.71133	306.25000
44.72804	327.61000
44.74475	349.69000
44.76146	361.00000
44.77817	353.44000
44.79488	345.96000
44.81159	353.44000
44.82831	309.76000
44.84502	316.84000
44.86173	313.29000
44.87844	331.24000
44.89515	331.24000
44.91186	320.41000
44.92857	324.00000
44.94529	299.29000
44.96200	272.25000
44.97871	331.24000
44.99542	295.84000
45.01213	331.24000
45.02884	327.61000
45.04555	309.76000
45.06226	292.41000
45.07898	327.61000
45.09569	327.61000
45.11240	309.76000
45.12911	313.29000
45.14582	324.00000
45.16253	306.25000
45.17924	331.24000
45.19595	327.61000
45.21267	345.96000
45.22938	334.89000
45.24609	338.56000
45.26280	306.25000
45.27951	313.29000
45.29622	338.56000
45.31293	309.76000
45.32964	306.25000
45.34636	292.41000
45.36307	295.84000
45.37978	306.25000
45.39649	282.24000
45.41320	309.76000
45.42991	320.41000
45.44662	313.29000
45.46333	292.41000
45.48005	272.25000
45.49676	272.25000
45.51347	259.21000
45.53018	249.64000
45.54689	240.25000
45.56360	299.29000
45.58031	292.41000
45.59702	272.25000
45.61374	272.25000
45.63045	262.44000
45.64716	309.76000
45.66387	249.64000
45.68058	306.25000
45.69729	285.61000
45.71400	309.76000
45.73071	275.56000
45.74743	306.25000
45.76414	268.96000
45.78085	285.61000
45.79756	292.41000
45.81427	292.41000
45.83098	302.76000
45.84769	292.41000
45.86440	327.61000
45.88112	316.84000
45.89783	353.44000
45.91454	334.89000
45.93125	316.84000
45.94796	327.61000
45.96467	353.44000
45.98138	295.84000
45.99810	334.89000
46.01481	292.41000
46.03152	295.84000
46.04823	278.89000
46.06494	309.76000
46.08165	299.29000
46.09836	316.84000
46.11507	316.84000
46.13179	278.89000
46.14850	302.76000
46.16521	353.44000
46.18192	342.25000
46.19863	331.24000
46.21534	349.69000
46.23205	327.61000
46.24876	327.61000
46.26548	327.61000
46.28219	327.61000
46.29890	349.69000
46.31561	299.29000
46.33232	361.00000
46.34903	342.25000
46.36574	338.56000
46.38245	320.41000
46.39917	309.76000
46.41588	309.76000
46.43259	295.84000
46.44930	327.61000
46.46601	327.61000
46.48272	320.41000
46.49943	306.25000
46.51614	353.44000
46.53286	334.89000
46.54957	268.96000
46.56628	331.24000
46.58299	320.41000
46.59970	338.56000
46.61641	345.96000
46.63312	331.24000
46.64983	349.69000
46.66655	368.64000
46.68326	331.24000
46.69997	361.00000
46.71668	345.96000
46.73339	353.44000
46.75010	338.56000
46.76681	331.24000
46.78352	364.81000
46.80024	313.29000
46.81695	342.25000
46.83366	349.69000
46.85037	334.89000
46.86708	376.36000
46.88379	342.25000
46.90050	353.44000
46.91721	331.24000
46.93393	338.56000
46.95064	380.25000
46.96735	368.64000
46.98406	342.25000
47.00077	342.25000
47.01748	327.61000
47.03419	313.29000
47.05091	345.96000
47.06762	334.89000
47.08433	338.56000
47.10104	327.61000
47.11775	331.24000
47.13446	342.25000
47.15117	316.84000
47.16788	342.25000
47.18460	309.76000
47.20131	313.29000
47.21802	327.61000
47.23473	306.25000
47.25144	306.25000
47.26815	334.89000
47.28486	342.25000
47.30157	309.76000
47.31829	334.89000
47.33500	338.56000
47.35171	331.24000
47.36842	320.41000
47.38513	345.96000
47.40184	309.76000
47.41855	342.25000
47.43526	292.41000
47.45198	292.41000
47.46869	306.25000
47.48540	285.61000
47.50211	306.25000
47.51882	338.56000
47.53553	309.76000
47.55224	313.29000
47.56895	299.29000
47.58567	292.41000
47.60238	289.00000
47.61909	282.24000
47.63580	302.76000
47.65251	285.61000
47.66922	275.56000
47.68593	275.56000
47.70264	237.16000
47.71936	265.69000
47.73607	292.41000
47.75278	259.21000
47.76949	262.44000
47.78620	299.29000
47.80291	265.69000
47.81962	275.56000
47.83633	246.49000
47.85305	275.56000
47.86976	249.64000
47.88647	259.21000
47.90318	259.21000
47.91989	282.24000
47.93660	262.44000
47.95331	256.00000
47.97002	252.81000
47.98674	259.21000
48.00345	275.56000
48.02016	278.89000
48.03687	292.41000
48.05358	256.00000
48.07029	278.89000
48.08700	285.61000
48.10371	285.61000
48.12043	306.25000
48.13714	299.29000
48.15385	256.00000
48.17056	243.36000
48.18727	262.44000
48.20398	268.96000
48.22069	299.29000
48.23741	306.25000
48.25412	275.56000
48.27083	282.24000
48.28754	313.29000
48.30425	272.25000
48.32096	320.41000
48.33767	285.61000
48.35438	292.41000
48.37110	302.76000
48.38781	262.44000
48.40452	292.41000
48.42123	289.00000
48.43794	299.29000
48.45465	327.61000
48.47136	316.84000
48.48807	295.84000
48.50479	302.76000
48.52150	262.44000
48.53821	285.61000
48.55492	306.25000
48.57163	295.84000
48.58834	299.29000
48.60505	316.84000
48.62176	285.61000
48.63848	295.84000
48.65519	285.61000
48.67190	285.61000
48.68861	292.41000
48.70532	278.89000
48.72203	259.21000
48.73874	289.00000
48.75545	275.56000
48.77217	252.81000
48.78888	252.81000
48.80559	275.56000
48.82230	292.41000
48.83901	292.41000
48.85572	309.76000
48.87243	256.00000
48.88914	292.41000
48.90586	275.56000
48.92257	289.00000
48.93928	316.84000
48.95599	292.41000
48.97270	275.56000
48.98941	289.00000
49.00612	299.29000
49.02283	268.96000
49.03955	320.41000
49.05626	285.61000
49.07297	299.29000
49.08968	327.61000
49.10639	292.41000
49.12310	353.44000
49.13981	285.61000
49.15652	327.61000
49.17324	345.96000
49.18995	327.61000
49.20666	306.25000
49.22337	331.24000
49.24008	327.61000
49.25679	272.25000
49.27350	320.41000
49.29022	292.41000
49.30693	338.56000
49.32364	324.00000
49.34035	295.84000
49.35706	324.00000
49.37377	327.61000
49.39048	299.29000
49.40719	302.76000
49.42391	306.25000
49.44062	320.41000
49.45733	331.24000
49.47404	342.25000
49.49075	306.25000
49.50746	320.41000
49.52417	327.61000
49.54088	316.84000
49.55760	306.25000
49.57431	331.24000
49.59102	353.44000
49.60773	320.41000
49.62444	327.61000
49.64115	342.25000
49.65786	345.96000
49.67457	345.96000
49.69129	285.61000
49.70800	320.41000
49.72471	299.29000
49.74142	316.84000
49.75813	282.24000
49.77484	313.29000
49.79155	282.24000
49.80826	302.76000
49.82498	295.84000
49.84169	268.96000
49.85840	262.44000
49.87511	246.49000
49.89182	282.24000
49.90853	246.49000
49.92524	285.61000
49.94195	285.61000
49.95867	268.96000
49.97538	278.89000
49.99209	268.96000
