14.91800	2682.00000
14.93500	2713.00000
14.95200	2640.00000
14.96900	2658.00000
14.98600	2644.00000
15.00300	2577.00000
15.02000	2634.00000
15.03700	2746.00000
15.05400	2695.00000
15.07100	2615.00000
15.08800	2759.00000
15.10500	2768.00000
15.12200	2725.00000
15.13900	2720.00000
15.15600	2697.00000
15.17300	2683.00000
15.19000	2614.00000
15.20700	2642.00000
15.22400	2637.00000
15.24100	2772.00000
15.25800	2659.00000
15.27500	2610.00000
15.29200	2692.00000
15.30900	2654.00000
15.32600	2656.00000
15.34300	2702.00000
15.36000	2647.00000
15.37700	2646.00000
15.39400	2613.00000
15.41100	2719.00000
15.42800	2645.00000
15.44500	2670.00000
15.46200	2743.00000
15.47900	2686.00000
15.49600	2644.00000
15.51300	2706.00000
15.53000	2735.00000
15.54700	2744.00000
15.56400	2720.00000
15.58100	2609.00000
15.59800	2536.00000
15.61500	2655.00000
15.63200	2804.00000
15.64900	2620.00000
15.66600	2768.00000
15.68300	2704.00000
15.70000	2591.00000
15.71700	2704.00000
15.73400	2679.00000
15.75100	2768.00000
15.76800	2697.00000
15.78500	2750.00000
15.80200	2808.00000
15.81900	2746.00000
15.83600	2723.00000
15.85300	2657.00000
15.87000	2654.00000
15.88700	2697.00000
15.90400	2752.00000
15.92100	2648.00000
15.93800	2642.00000
15.95500	2686.00000
15.97200	2745.00000
15.98900	2755.00000
16.00600	2720.00000
16.02300	2653.00000
16.04000	2684.00000
16.05700	2679.00000
16.07400	2703.00000
16.09100	2879.00000
16.10800	2810.00000
16.12500	2716.00000
16.14200	2724.00000
16.15900	2785.00000
16.17600	2723.00000
16.19300	2693.00000
16.21000	2671.00000
16.22700	2724.00000
16.24400	2746.00000
16.26100	2774.00000
16.27800	2779.00000
16.29500	2754.00000
16.31200	2711.00000
16.32900	2735.00000
16.34600	2619.00000
16.36300	2671.00000
16.38000	2704.00000
16.39700	2734.00000
16.41400	2752.00000
16.43100	2772.00000
16.44800	2796.00000
16.46500	2760.00000
16.48200	2730.00000
16.49900	2731.00000
16.51600	2654.00000
16.53300	2671.00000
16.55000	2815.00000
16.56700	2874.00000
16.58400	2906.00000
16.60100	2895.00000
16.61800	2793.00000
16.63500	2826.00000
16.65200	2712.00000
16.66900	2817.00000
16.68600	2860.00000
16.70300	2782.00000
16.72000	2797.00000
16.73700	2829.00000
16.75400	2878.00000
16.77100	2939.00000
16.78800	2815.00000
16.80500	2836.00000
16.82200	2802.00000
16.83900	2843.00000
16.85600	2868.00000
16.87300	2665.00000
16.89000	2714.00000
16.90700	2785.00000
16.92400	2818.00000
16.94100	2851.00000
16.95800	2840.00000
16.97500	2873.00000
16.99200	2800.00000
17.00900	2727.00000
17.02600	2801.00000
17.04300	2795.00000
17.06000	2812.00000
17.07700	2798.00000
17.09400	2907.00000
17.11100	2880.00000
17.12800	2756.00000
17.14500	2784.00000
17.16200	2819.00000
17.17900	2803.00000
17.19600	2893.00000
17.21300	2830.00000
17.23000	2893.00000
17.24700	2876.00000
17.26400	2733.00000
17.28100	2848.00000
17.29800	2820.00000
17.31500	2822.00000
17.33200	2786.00000
17.34900	2794.00000
17.36600	2781.00000
17.38300	2749.00000
17.40000	2723.00000
17.41700	2810.00000
17.43400	2858.00000
17.45100	2865.00000
17.46800	2840.00000
17.48500	2883.00000
17.50200	2838.00000
17.51900	2796.00000
17.53600	3014.00000
17.55300	2789.00000
17.57000	2824.00000
17.58700	2887.00000
17.60400	2881.00000
17.62100	2865.00000
17.63800	2849.00000
17.65500	2945.00000
17.67200	2902.00000
17.68900	2966.00000
17.70600	2905.00000
17.72300	2842.00000
17.74000	2861.00000
17.75700	2943.00000
17.77400	2976.00000
17.79100	2921.00000
17.80800	2860.00000
17.82500	2840.00000
17.84200	2797.00000
17.85900	2810.00000
17.87600	2770.00000
17.89300	2848.00000
17.91000	2853.00000
17.92700	2939.00000
17.94400	2966.00000
17.96100	2939.00000
17.97800	2936.00000
17.99500	2879.00000
18.01200	2971.00000
18.02900	3061.00000
18.04600	3014.00000
18.06300	2996.00000
18.08000	2954.00000
18.09700	2949.00000
18.11400	3037.00000
18.13100	3032.00000
18.14800	3049.00000
18.16500	3109.00000
18.18200	2969.00000
18.19900	3037.00000
18.21600	3089.00000
18.23300	3035.00000
18.25000	2918.00000
18.26700	2958.00000
18.28400	2956.00000
18.30100	2943.00000
18.31800	2964.00000
18.33500	2983.00000
18.35200	2874.00000
18.36900	2895.00000
18.38600	2864.00000
18.40300	3010.00000
18.42000	2851.00000
18.43700	2883.00000
18.45400	2994.00000
18.47100	2931.00000
18.48800	2966.00000
18.50500	2916.00000
18.52200	2994.00000
18.53900	2982.00000
18.55600	3029.00000
18.57300	3061.00000
18.59000	2929.00000
18.60700	3046.00000
18.62400	2927.00000
18.64100	2994.00000
18.65800	2979.00000
18.67500	3018.00000
18.69200	2983.00000
18.70900	2919.00000
18.72600	3066.00000
18.74300	3035.00000
18.76000	2855.00000
18.77700	3047.00000
18.79400	2978.00000
18.81100	3002.00000
18.82800	3025.00000
18.84500	2914.00000
18.86200	2936.00000
18.87900	2973.00000
18.89600	3057.00000
18.91300	2954.00000
18.93000	2926.00000
18.94700	2952.00000
18.96400	2947.00000
18.98100	2979.00000
18.99800	2936.00000
19.01500	2975.00000
19.03200	3039.00000
19.04900	3008.00000
19.06600	3051.00000
19.08300	3083.00000
19.10000	3126.00000
19.11700	3121.00000
19.13400	3056.00000
19.15100	3003.00000
19.16800	3029.00000
19.18500	3149.00000
19.20200	3000.00000
19.21900	3000.00000
19.23600	2993.00000
19.25300	2983.00000
19.27000	3146.00000
19.28700	3123.00000
19.30400	3067.00000
19.32100	3019.00000
19.33800	3006.00000
19.35500	3028.00000
19.37200	3086.00000
19.38900	3070.00000
19.40600	2964.00000
19.42300	2987.00000
19.44000	3032.00000
19.45700	3053.00000
19.47400	3077.00000
19.49100	2994.00000
19.50800	3022.00000
19.52500	3053.00000
19.54200	3012.00000
19.55900	3105.00000
19.57600	3000.00000
19.59300	3073.00000
19.61000	3018.00000
19.62700	3099.00000
19.64400	2968.00000
19.66100	3095.00000
19.67800	2930.00000
19.69500	2997.00000
19.71200	3027.00000
19.72900	3078.00000
19.74600	3076.00000
19.76300	3063.00000
19.78000	2998.00000
19.79700	3106.00000
19.81400	3100.00000
19.83100	2955.00000
19.84800	2984.00000
19.86500	2957.00000
19.88200	3065.00000
19.89900	3099.00000
19.91600	3127.00000
19.93300	3057.00000
19.95000	3115.00000
19.96700	3032.00000
19.98400	2914.00000
20.00100	2964.00000
20.01800	3007.00000
20.03500	3049.00000
20.05200	3131.00000
20.06900	2978.00000
20.08600	3015.00000
20.10300	3013.00000
20.12000	3048.00000
20.13700	3147.00000
20.15400	3061.00000
20.17100	3076.00000
20.18800	3050.00000
20.20500	3033.00000
20.22200	3101.00000
20.23900	3003.00000
20.25600	3008.00000
20.27300	3094.00000
20.29000	3045.00000
20.30700	3036.00000
20.32400	3100.00000
20.34100	2966.00000
20.35800	3022.00000
20.37500	3037.00000
20.39200	3126.00000
20.40900	3043.00000
20.42600	3066.00000
20.44300	3084.00000
20.46000	3111.00000
20.47700	3038.00000
20.49400	3119.00000
20.51100	3109.00000
20.52800	3033.00000
20.54500	3111.00000
20.56200	3146.00000
20.57900	3058.00000
20.59600	3105.00000
20.61300	3061.00000
20.63000	3140.00000
20.64700	3035.00000
20.66400	3070.00000
20.68100	3150.00000
20.69800	3153.00000
20.71500	3055.00000
20.73200	3027.00000
20.74900	2981.00000
20.76600	3032.00000
20.78300	3108.00000
20.80000	3158.00000
20.81700	3111.00000
20.83400	3215.00000
20.85100	3142.00000
20.86800	3163.00000
20.88500	3154.00000
20.90200	3016.00000
20.91900	2948.00000
20.93600	3027.00000
20.95300	3059.00000
20.97000	3110.00000
20.98700	3107.00000
21.00400	3054.00000
21.02100	2977.00000
21.03800	3075.00000
21.05500	3075.00000
21.07200	3086.00000
21.08900	3106.00000
21.10600	3061.00000
21.12300	3179.00000
21.14000	3135.00000
21.15700	3060.00000
21.17400	3117.00000
21.19100	3042.00000
21.20800	3115.00000
21.22500	3096.00000
21.24200	3078.00000
21.25900	3184.00000
21.27600	3159.00000
21.29300	3180.00000
21.31000	3174.00000
21.32700	3178.00000
21.34400	3190.00000
21.36100	3129.00000
21.37800	3245.00000
21.39500	3202.00000
21.41200	3149.00000
21.42900	3314.00000
21.44600	3276.00000
21.46300	3141.00000
21.48000	3177.00000
21.49700	3149.00000
21.51400	3350.00000
21.53100	3295.00000
21.54800	3257.00000
21.56500	3187.00000
21.58200	3256.00000
21.59900	3249.00000
21.61600	3103.00000
21.63300	3242.00000
21.65000	3193.00000
21.66700	3214.00000
21.68400	3179.00000
21.70100	3239.00000
21.71800	3202.00000
21.73500	3208.00000
21.75200	3235.00000
21.76900	3296.00000
21.78600	3322.00000
21.80300	3198.00000
21.82000	3233.00000
21.83700	3286.00000
21.85400	3270.00000
21.87100	3246.00000
21.88800	3267.00000
21.90500	3335.00000
21.92200	3221.00000
21.93900	3289.00000
21.95600	3350.00000
21.97300	3321.00000
21.99000	3305.00000
22.00700	3217.00000
22.02400	3212.00000
22.04100	3266.00000
22.05800	3319.00000
22.07500	3307.00000
22.09200	3333.00000
22.10900	3212.00000
22.12600	3216.00000
22.14300	3273.00000
22.16000	3204.00000
22.17700	3268.00000
22.19400	3220.00000
22.21100	3261.00000
22.22800	3292.00000
22.24500	3303.00000
22.26200	3184.00000
22.27900	3234.00000
22.29600	3266.00000
22.31300	3340.00000
22.33000	3277.00000
22.34700	3364.00000
22.36400	3322.00000
22.38100	3124.00000
22.39800	3366.00000
22.41500	3308.00000
22.43200	3377.00000
22.44900	3268.00000
22.46600	3382.00000
22.48300	3309.00000
22.50000	3366.00000
22.51700	3301.00000
22.53400	3452.00000
22.55100	3400.00000
22.56800	3274.00000
22.58500	3269.00000
22.60200	3366.00000
22.61900	3354.00000
22.63600	3344.00000
22.65300	3293.00000
22.67000	3370.00000
22.68700	3342.00000
22.70400	3414.00000
22.72100	3393.00000
22.73800	3328.00000
22.75500	3317.00000
22.77200	3414.00000
22.78900	3368.00000
22.80600	3405.00000
22.82300	3399.00000
22.84000	3325.00000
22.85700	3307.00000
22.87400	3380.00000
22.89100	3400.00000
22.90800	3306.00000
22.92500	3271.00000
22.94200	3304.00000
22.95900	3230.00000
22.97600	3330.00000
22.99300	3396.00000
23.01000	3323.00000
23.02700	3240.00000
23.04400	3255.00000
23.06100	3331.00000
23.07800	3312.00000
23.09500	3291.00000
23.11200	3350.00000
23.12900	3290.00000
23.14600	3374.00000
23.16300	3315.00000
23.18000	3354.00000
23.19700	3282.00000
23.21400	3266.00000
23.23100	3269.00000
23.24800	3155.00000
23.26500	3303.00000
23.28200	3351.00000
23.29900	3210.00000
23.31600	3430.00000
23.33300	3471.00000
23.35000	3406.00000
23.36700	3294.00000
23.38400	3407.00000
23.40100	3329.00000
23.41800	3448.00000
23.43500	3357.00000
23.45200	3349.00000
23.46900	3343.00000
23.48600	3359.00000
23.50300	3336.00000
23.52000	3312.00000
23.53700	3325.00000
23.55400	3444.00000
23.57100	3435.00000
23.58800	3489.00000
23.60500	3448.00000
23.62200	3475.00000
23.63900	3472.00000
23.65600	3510.00000
23.67300	3499.00000
23.69000	3541.00000
23.70700	3540.00000
23.72400	3535.00000
23.74100	3614.00000
23.75800	3562.00000
23.77500	3412.00000
23.79200	3339.00000
23.80900	3399.00000
23.82600	3427.00000
23.84300	3446.00000
23.86000	3474.00000
23.87700	3407.00000
23.89400	3422.00000
23.91100	3448.00000
23.92800	3454.00000
23.94500	3413.00000
23.96200	3454.00000
23.97900	3508.00000
23.99600	3536.00000
24.01300	3563.00000
24.03000	3566.00000
24.04700	3425.00000
24.06400	3394.00000
24.08100	3508.00000
24.09800	3455.00000
24.11500	3588.00000
24.13200	3506.00000
24.14900	3400.00000
24.16600	3510.00000
24.18300	3465.00000
24.20000	3451.00000
24.21700	3576.00000
24.23400	3511.00000
24.25100	3499.00000
24.26800	3491.00000
24.28500	3477.00000
24.30200	3558.00000
24.31900	3400.00000
24.33600	3443.00000
24.35300	3565.00000
24.37000	3538.00000
24.38700	3606.00000
24.40400	3542.00000
24.42100	3441.00000
24.43800	3405.00000
24.45500	3412.00000
24.47200	3451.00000
24.48900	3452.00000
24.50600	3517.00000
24.52300	3519.00000
24.54000	3615.00000
24.55700	3636.00000
24.57400	3526.00000
24.59100	3496.00000
24.60800	3430.00000
24.62500	3545.00000
24.64200	3616.00000
24.65900	3517.00000
24.67600	3440.00000
24.69300	3507.00000
24.71000	3584.00000
24.72700	3451.00000
24.74400	3546.00000
24.76100	3512.00000
24.77800	3485.00000
24.79500	3584.00000
24.81200	3499.00000
24.82900	3461.00000
24.84600	3485.00000
24.86300	3542.00000
24.88000	3471.00000
24.89700	3515.00000
24.91400	3464.00000
24.93100	3481.00000
24.94800	3511.00000
24.96500	3460.00000
24.98200	3638.00000
24.99900	3547.00000
25.01600	3565.00000
25.03300	3625.00000
25.05000	3601.00000
25.06700	3669.00000
25.08400	3623.00000
25.10100	3583.00000
25.11800	3548.00000
25.13500	3667.00000
25.15200	3615.00000
25.16900	3684.00000
25.18600	3579.00000
25.20300	3575.00000
25.22000	3534.00000
25.23700	3629.00000
25.25400	3647.00000
25.27100	3558.00000
25.28800	3671.00000
25.30500	3605.00000
25.32200	3561.00000
25.33900	3598.00000
25.35600	3725.00000
25.37300	3673.00000
25.39000	3676.00000
25.40700	3700.00000
25.42400	3750.00000
25.44100	3764.00000
25.45800	3586.00000
25.47500	3697.00000
25.49200	3796.00000
25.50900	3894.00000
25.52600	4044.00000
25.54300	3940.00000
25.56000	3997.00000
25.57700	4039.00000
25.59400	4086.00000
25.61100	4140.00000
25.62800	4143.00000
25.64500	4143.00000
25.66200	4147.00000
25.67900	4117.00000
25.69600	4169.00000
25.71300	4101.00000
25.73000	4384.00000
25.74700	4446.00000
25.76400	4379.00000
25.78100	4531.00000
25.79800	4515.00000
25.81500	4648.00000
25.83200	4595.00000
25.84900	4817.00000
25.86600	5026.00000
25.88300	5222.00000
25.90000	5426.00000
25.91700	5784.00000
25.93400	6094.00000
25.95100	6389.00000
25.96800	7016.00000
25.98500	7841.00000
26.00200	8841.00000
26.01900	10234.00000
26.03600	12701.00000
26.05300	15617.00000
26.07000	19811.00000
26.08700	24908.00000
26.10400	29893.00000
26.12100	35688.00000
26.13800	42062.00000
26.15500	47865.00000
26.17200	53497.00000
26.18900	57130.00000
26.20600	57495.00000
26.22300	53358.00000
26.24000	47338.00000
26.25700	40378.00000
26.27400	32744.00000
26.29100	25545.00000
26.30800	19669.00000
26.32500	15312.00000
26.34200	12005.00000
26.35900	10007.00000
26.37600	8637.00000
26.39300	7802.00000
26.41000	7010.00000
26.42700	6441.00000
26.44400	6077.00000
26.46100	5722.00000
26.47800	5424.00000
26.49500	5098.00000
26.51200	5005.00000
26.52900	4831.00000
26.54600	4791.00000
26.56300	4710.00000
26.58000	4523.00000
26.59700	4309.00000
26.61400	4356.00000
26.63100	4258.00000
26.64800	4137.00000
26.66500	4106.00000
26.68200	4034.00000
26.69900	4157.00000
26.71600	4129.00000
26.73300	3949.00000
26.75000	3950.00000
26.76700	3950.00000
26.78400	3961.00000
26.80100	3945.00000
26.81800	3902.00000
26.83500	3826.00000
26.85200	3817.00000
26.86900	3842.00000
26.88600	3845.00000
26.90300	3909.00000
26.92000	3826.00000
26.93700	3855.00000
26.95400	3857.00000
26.97100	3785.00000
26.98800	3788.00000
27.00500	3804.00000
27.02200	3791.00000
27.03900	3741.00000
27.05600	3716.00000
27.07300	3747.00000
27.09000	3754.00000
27.10700	3757.00000
27.12400	3818.00000
27.14100	3723.00000
27.15800	3755.00000
27.17500	3633.00000
27.19200	3696.00000
27.20900	3729.00000
27.22600	3712.00000
27.24300	3557.00000
27.26000	3663.00000
27.27700	3625.00000
27.29400	3685.00000
27.31100	3610.00000
27.32800	3643.00000
27.34500	3657.00000
27.36200	3604.00000
27.37900	3589.00000
27.39600	3594.00000
27.41300	3657.00000
27.43000	3618.00000
27.44700	3567.00000
27.46400	3550.00000
27.48100	3695.00000
27.49800	3678.00000
27.51500	3524.00000
27.53200	3496.00000
27.54900	3611.00000
27.56600	3438.00000
27.58300	3608.00000
27.60000	3679.00000
27.61700	3491.00000
27.63400	3628.00000
27.65100	3656.00000
27.66800	3605.00000
27.68500	3546.00000
27.70200	3638.00000
27.71900	3510.00000
27.73600	3600.00000
27.75300	3693.00000
27.77000	3644.00000
27.78700	3517.00000
27.80400	3530.00000
27.82100	3580.00000
27.83800	3554.00000
27.85500	3498.00000
27.87200	3529.00000
27.88900	3577.00000
27.90600	3499.00000
27.92300	3485.00000
27.94000	3589.00000
27.95700	3550.00000
27.97400	3547.00000
27.99100	3541.00000
28.00800	3465.00000
28.02500	3464.00000
28.04200	3459.00000
28.05900	3467.00000
28.07600	3556.00000
28.09300	3402.00000
28.11000	3434.00000
28.12700	3442.00000
28.14400	3481.00000
28.16100	3460.00000
28.17800	3350.00000
28.19500	3430.00000
28.21200	3561.00000
28.22900	3495.00000
28.24600	3450.00000
28.26300	3462.00000
28.28000	3376.00000
28.29700	3406.00000
28.31400	3440.00000
28.33100	3416.00000
28.34800	3562.00000
28.36500	3532.00000
28.38200	3243.00000
28.39900	3392.00000
28.41600	3517.00000
28.43300	3588.00000
28.45000	3462.00000
28.46700	3439.00000
28.48400	3433.00000
28.50100	3421.00000
28.51800	3469.00000
28.53500	3428.00000
28.55200	3433.00000
28.56900	3413.00000
28.58600	3467.00000
28.60300	3376.00000
28.62000	3383.00000
28.63700	3532.00000
28.65400	3573.00000
28.67100	3557.00000
28.68800	3495.00000
28.70500	3495.00000
28.72200	3539.00000
28.73900	3610.00000
28.75600	3571.00000
28.77300	3528.00000
28.79000	3504.00000
28.80700	3613.00000
28.82400	3604.00000
28.84100	3527.00000
28.85800	3581.00000
28.87500	3526.00000
28.89200	3526.00000
28.90900	3491.00000
28.92600	3439.00000
28.94300	3384.00000
28.96000	3450.00000
28.97700	3532.00000
28.99400	3550.00000
29.01100	3556.00000
29.02800	3390.00000
29.04500	3364.00000
29.06200	3401.00000
29.07900	3439.00000
29.09600	3412.00000
29.11300	3541.00000
29.13000	3417.00000
29.14700	3382.00000
29.16400	3428.00000
29.18100	3426.00000
29.19800	3381.00000
29.21500	3450.00000
29.23200	3480.00000
29.24900	3557.00000
29.26600	3471.00000
29.28300	3478.00000
29.30000	3411.00000
29.31700	3414.00000
29.33400	3327.00000
29.35100	3379.00000
29.36800	3371.00000
29.38500	3291.00000
29.40200	3492.00000
29.41900	3402.00000
29.43600	3476.00000
29.45300	3480.00000
29.47000	3457.00000
29.48700	3464.00000
29.50400	3352.00000
29.52100	3426.00000
29.53800	3393.00000
29.55500	3413.00000
29.57200	3359.00000
29.58900	3498.00000
29.60600	3503.00000
29.62300	3479.00000
29.64000	3413.00000
29.65700	3381.00000
29.67400	3354.00000
29.69100	3353.00000
29.70800	3416.00000
29.72500	3376.00000
29.74200	3447.00000
29.75900	3465.00000
29.77600	3323.00000
29.79300	3429.00000
29.81000	3422.00000
29.82700	3398.00000
29.84400	3459.00000
29.86100	3380.00000
29.87800	3433.00000
29.89500	3490.00000
29.91200	3479.00000
29.92900	3496.00000
29.94600	3450.00000
29.96300	3389.00000
29.98000	3523.00000
29.99700	3565.00000
30.01400	3461.00000
30.03100	3450.00000
30.04800	3476.00000
30.06500	3447.00000
30.08200	3416.00000
30.09900	3343.00000
30.11600	3410.00000
30.13300	3483.00000
30.15000	3436.00000
30.16700	3493.00000
30.18400	3511.00000
30.20100	3414.00000
30.21800	3482.00000
30.23500	3472.00000
30.25200	3404.00000
30.26900	3433.00000
30.28600	3474.00000
30.30300	3412.00000
30.32000	3412.00000
30.33700	3473.00000
30.35400	3499.00000
30.37100	3454.00000
30.38800	3531.00000
30.40500	3449.00000
30.42200	3401.00000
30.43900	3434.00000
30.45600	3362.00000
30.47300	3421.00000
30.49000	3324.00000
30.50700	3362.00000
30.52400	3457.00000
30.54100	3427.00000
30.55800	3537.00000
30.57500	3456.00000
30.59200	3440.00000
30.60900	3460.00000
30.62600	3441.00000
30.64300	3390.00000
30.66000	3480.00000
30.67700	3407.00000
30.69400	3334.00000
30.71100	3413.00000
30.72800	3295.00000
30.74500	3295.00000
30.76200	3477.00000
30.77900	3469.00000
30.79600	3461.00000
30.81300	3440.00000
30.83000	3525.00000
30.84700	3381.00000
30.86400	3443.00000
30.88100	3517.00000
30.89800	3333.00000
30.91500	3397.00000
30.93200	3442.00000
30.94900	3439.00000
30.96600	3439.00000
30.98300	3417.00000
31.00000	3508.00000
31.01700	3496.00000
31.03400	3441.00000
31.05100	3369.00000
31.06800	3411.00000
31.08500	3444.00000
31.10200	3482.00000
31.11900	3440.00000
31.13600	3345.00000
31.15300	3577.00000
31.17000	3508.00000
31.18700	3356.00000
31.20400	3515.00000
31.22100	3434.00000
31.23800	3372.00000
31.25500	3427.00000
31.27200	3430.00000
31.28900	3295.00000
31.30600	3318.00000
31.32300	3318.00000
31.34000	3252.00000
31.35700	3466.00000
31.37400	3445.00000
31.39100	3359.00000
31.40800	3422.00000
31.42500	3394.00000
31.44200	3366.00000
31.45900	3496.00000
31.47600	3385.00000
31.49300	3424.00000
31.51000	3435.00000
31.52700	3438.00000
31.54400	3315.00000
31.56100	3495.00000
31.57800	3473.00000
31.59500	3371.00000
31.61200	3441.00000
31.62900	3388.00000
31.64600	3292.00000
31.66300	3443.00000
31.68000	3364.00000
31.69700	3443.00000
31.71400	3405.00000
31.73100	3360.00000
31.74800	3409.00000
31.76500	3401.00000
31.78200	3381.00000
31.79900	3444.00000
31.81600	3450.00000
31.83300	3408.00000
31.85000	3344.00000
31.86700	3322.00000
31.88400	3314.00000
31.90100	3359.00000
31.91800	3441.00000
31.93500	3381.00000
31.95200	3417.00000
31.96900	3387.00000
31.98600	3351.00000
32.00300	3383.00000
32.02000	3339.00000
32.03700	3425.00000
32.05400	3426.00000
32.07100	3280.00000
32.08800	3284.00000
32.10500	3341.00000
32.12200	3484.00000
32.13900	3319.00000
32.15600	3320.00000
32.17300	3292.00000
32.19000	3374.00000
32.20700	3348.00000
32.22400	3330.00000
32.24100	3382.00000
32.25800	3313.00000
32.27500	3417.00000
32.29200	3410.00000
32.30900	3313.00000
32.32600	3473.00000
32.34300	3372.00000
32.36000	3419.00000
32.37700	3446.00000
32.39400	3333.00000
32.41100	3331.00000
32.42800	3336.00000
32.44500	3410.00000
32.46200	3491.00000
32.47900	3400.00000
32.49600	3385.00000
32.51300	3351.00000
32.53000	3301.00000
32.54700	3319.00000
32.56400	3338.00000
32.58100	3254.00000
32.59800	3346.00000
32.61500	3296.00000
32.63200	3397.00000
32.64900	3322.00000
32.66600	3327.00000
32.68300	3364.00000
32.70000	3427.00000
32.71700	3381.00000
32.73400	3345.00000
32.75100	3365.00000
32.76800	3373.00000
32.78500	3364.00000
32.80200	3337.00000
32.81900	3408.00000
32.83600	3429.00000
32.85300	3427.00000
32.87000	3406.00000
32.88700	3393.00000
32.90400	3446.00000
32.92100	3483.00000
32.93800	3396.00000
32.95500	3424.00000
32.97200	3375.00000
32.98900	3409.00000
33.00600	3322.00000
33.02300	3353.00000
33.04000	3491.00000
33.05700	3486.00000
33.07400	3418.00000
33.09100	3539.00000
33.10800	3464.00000
33.12500	3331.00000
33.14200	3435.00000
33.15900	3457.00000
33.17600	3292.00000
33.19300	3440.00000
33.21000	3413.00000
33.22700	3377.00000
33.24400	3478.00000
33.26100	3308.00000
33.27800	3339.00000
33.29500	3289.00000
33.31200	3309.00000
33.32900	3403.00000
33.34600	3448.00000
33.36300	3375.00000
33.38000	3327.00000
33.39700	3358.00000
33.41400	3419.00000
33.43100	3424.00000
33.44800	3396.00000
33.46500	3332.00000
33.48200	3379.00000
33.49900	3336.00000
33.51600	3429.00000
33.53300	3325.00000
33.55000	3407.00000
33.56700	3274.00000
33.58400	3345.00000
33.60100	3338.00000
33.61800	3507.00000
33.63500	3485.00000
33.65200	3381.00000
33.66900	3443.00000
33.68600	3368.00000
33.70300	3348.00000
33.72000	3395.00000
33.73700	3479.00000
33.75400	3427.00000
33.77100	3459.00000
33.78800	3568.00000
33.80500	3449.00000
33.82200	3394.00000
33.83900	3446.00000
33.85600	3528.00000
33.87300	3482.00000
33.89000	3495.00000
33.90700	3528.00000
33.92400	3447.00000
33.94100	3350.00000
33.95800	3430.00000
33.97500	3481.00000
33.99200	3314.00000
34.00900	3368.00000
34.02600	3306.00000
34.04300	3405.00000
34.06000	3357.00000
34.07700	3434.00000
34.09400	3374.00000
34.11100	3300.00000
34.12800	3323.00000
34.14500	3277.00000
34.16200	3410.00000
34.17900	3386.00000
34.19600	3330.00000
34.21300	3398.00000
34.23000	3510.00000
34.24700	3521.00000
34.26400	3417.00000
34.28100	3342.00000
34.29800	3403.00000
34.31500	3473.00000
34.33200	3458.00000
34.34900	3415.00000
34.36600	3347.00000
34.38300	3344.00000
34.40000	3378.00000
34.41700	3347.00000
34.43400	3348.00000
34.45100	3285.00000
34.46800	3396.00000
34.48500	3301.00000
34.50200	3361.00000
34.51900	3352.00000
34.53600	3414.00000
34.55300	3262.00000
34.57000	3259.00000
34.58700	3321.00000
34.60400	3273.00000
34.62100	3341.00000
34.63800	3310.00000
34.65500	3446.00000
34.67200	3428.00000
34.68900	3330.00000
34.70600	3334.00000
34.72300	3353.00000
34.74000	3320.00000
34.75700	3404.00000
34.77400	3368.00000
34.79100	3362.00000
34.80800	3320.00000
34.82500	3351.00000
34.84200	3492.00000
34.85900	3373.00000
34.87600	3363.00000
34.89300	3521.00000
34.91000	3453.00000
34.92700	3335.00000
34.94400	3381.00000
34.96100	3433.00000
34.97800	3380.00000
34.99500	3425.00000
35.01200	3374.00000
35.02900	3483.00000
35.04600	3469.00000
35.06300	3437.00000
35.08000	3454.00000
35.09700	3448.00000
35.11400	3472.00000
35.13100	3323.00000
35.14800	3370.00000
35.16500	3382.00000
35.18200	3376.00000
35.19900	3332.00000
35.21600	3467.00000
35.23300	3535.00000
35.25000	3481.00000
35.26700	3440.00000
35.28400	3406.00000
35.30100	3314.00000
35.31800	3426.00000
35.33500	3367.00000
35.35200	3330.00000
35.36900	3366.00000
35.38600	3343.00000
35.40300	3426.00000
35.42000	3423.00000
35.43700	3313.00000
35.45400	3401.00000
35.47100	3382.00000
35.48800	3383.00000
35.50500	3352.00000
35.52200	3362.00000
35.53900	3356.00000
35.55600	3445.00000
35.57300	3371.00000
35.59000	3328.00000
35.60700	3423.00000
35.62400	3402.00000
35.64100	3425.00000
35.65800	3438.00000
35.67500	3380.00000
35.69200	3352.00000
35.70900	3380.00000
35.72600	3427.00000
35.74300	3410.00000
35.76000	3397.00000
35.77700	3436.00000
35.79400	3431.00000
35.81100	3456.00000
35.82800	3434.00000
35.84500	3395.00000
35.86200	3442.00000
35.87900	3441.00000
35.89600	3483.00000
35.91300	3341.00000
35.93000	3384.00000
35.94700	3438.00000
35.96400	3488.00000
35.98100	3443.00000
35.99800	3332.00000
36.01500	3611.00000
36.03200	3429.00000
36.04900	3371.00000
36.06600	3424.00000
36.08300	3415.00000
36.10000	3416.00000
36.11700	3443.00000
36.13400	3523.00000
36.15100	3375.00000
36.16800	3389.00000
36.18500	3466.00000
36.20200	3434.00000
36.21900	3565.00000
36.23600	3508.00000
36.25300	3504.00000
36.27000	3503.00000
36.28700	3433.00000
36.30400	3596.00000
36.32100	3459.00000
36.33800	3516.00000
36.35500	3442.00000
36.37200	3627.00000
36.38900	3493.00000
36.40600	3594.00000
36.42300	3653.00000
36.44000	3425.00000
36.45700	3633.00000
36.47400	3660.00000
36.49100	3609.00000
36.50800	3793.00000
36.52500	3719.00000
36.54200	3631.00000
36.55900	3703.00000
36.57600	3693.00000
36.59300	3721.00000
36.61000	3829.00000
36.62700	3800.00000
36.64400	3843.00000
36.66100	3874.00000
36.67800	3827.00000
36.69500	3873.00000
36.71200	3959.00000
36.72900	3852.00000
36.74600	3721.00000
36.76300	3824.00000
36.78000	3879.00000
36.79700	3911.00000
36.81400	3956.00000
36.83100	3985.00000
36.84800	3898.00000
36.86500	3966.00000
36.88200	4002.00000
36.89900	4063.00000
36.91600	4177.00000
36.93300	4170.00000
36.95000	4225.00000
36.96700	4335.00000
36.98400	4313.00000
37.00100	4391.00000
37.01800	4420.00000
37.03500	4784.00000
37.05200	4914.00000
37.06900	5168.00000
37.08600	5215.00000
37.10300	5489.00000
37.12000	5731.00000
37.13700	5936.00000
37.15400	6580.00000
37.17100	7053.00000
37.18800	7960.00000
37.20500	8714.00000
37.22200	9569.00000
37.23900	11205.00000
37.25600	13640.00000
37.27300	17152.00000
37.29000	21536.00000
37.30700	27577.00000
37.32400	34181.00000
37.34100	41760.00000
37.35800	49070.00000
37.37500	56219.00000
37.39200	59196.00000
37.40900	58390.00000
37.42600	54678.00000
37.44300	49838.00000
37.46000	44771.00000
37.47700	40177.00000
37.49400	34094.00000
37.51100	28301.00000
37.52800	22620.00000
37.54500	18160.00000
37.56200	14914.00000
37.57900	12113.00000
37.59600	10297.00000
37.61300	8984.00000
37.63000	7993.00000
37.64700	7225.00000
37.66400	6618.00000
37.68100	6172.00000
37.69800	5816.00000
37.71500	5558.00000
37.73200	5286.00000
37.74900	5054.00000
37.76600	4816.00000
37.78300	4776.00000
37.80000	4698.00000
37.81700	4614.00000
37.83400	4429.00000
37.85100	4438.00000
37.86800	4393.00000
37.88500	4263.00000
37.90200	4200.00000
37.91900	4111.00000
37.93600	4153.00000
37.95300	4109.00000
37.97000	4041.00000
37.98700	4014.00000
38.00400	3939.00000
38.02100	3898.00000
38.03800	3930.00000
38.05500	3885.00000
38.07200	3943.00000
38.08900	3871.00000
38.10600	3921.00000
38.12300	3820.00000
38.14000	3792.00000
38.15700	3798.00000
38.17400	3828.00000
38.19100	3851.00000
38.20800	3824.00000
38.22500	3762.00000
38.24200	3771.00000
38.25900	3719.00000
38.27600	3597.00000
38.29300	3557.00000
38.31000	3767.00000
38.32700	3688.00000
38.34400	3763.00000
38.36100	3783.00000
38.37800	3699.00000
38.39500	3735.00000
38.41200	3758.00000
38.42900	3773.00000
38.44600	3618.00000
38.46300	3605.00000
38.48000	3728.00000
38.49700	3644.00000
38.51400	3624.00000
38.53100	3568.00000
38.54800	3713.00000
38.56500	3739.00000
38.58200	3725.00000
38.59900	3557.00000
38.61600	3560.00000
38.63300	3549.00000
38.65000	3626.00000
38.66700	3581.00000
38.68400	3558.00000
38.70100	3600.00000
38.71800	3622.00000
38.73500	3579.00000
38.75200	3597.00000
38.76900	3514.00000
38.78600	3443.00000
38.80300	3514.00000
38.82000	3551.00000
38.83700	3508.00000
38.85400	3474.00000
38.87100	3526.00000
38.88800	3512.00000
38.90500	3430.00000
38.92200	3485.00000
38.93900	3514.00000
38.95600	3554.00000
38.97300	3506.00000
38.99000	3379.00000
39.00700	3492.00000
39.02400	3469.00000
39.04100	3446.00000
39.05800	3427.00000
39.07500	3538.00000
39.09200	3560.00000
39.10900	3478.00000
39.12600	3461.00000
39.14300	3551.00000
39.16000	3499.00000
39.17700	3402.00000
39.19400	3516.00000
39.21100	3523.00000
39.22800	3518.00000
39.24500	3423.00000
39.26200	3546.00000
39.27900	3450.00000
39.29600	3391.00000
39.31300	3420.00000
39.33000	3490.00000
39.34700	3456.00000
39.36400	3448.00000
39.38100	3383.00000
39.39800	3370.00000
39.41500	3366.00000
39.43200	3412.00000
39.44900	3388.00000
39.46600	3419.00000
39.48300	3542.00000
39.50000	3414.00000
39.51700	3412.00000
39.53400	3474.00000
39.55100	3465.00000
39.56800	3493.00000
39.58500	3535.00000
39.60200	3516.00000
39.61900	3422.00000
39.63600	3435.00000
39.65300	3435.00000
39.67000	3385.00000
39.68700	3428.00000
39.70400	3416.00000
39.72100	3504.00000
39.73800	3380.00000
39.75500	3365.00000
39.77200	3467.00000
39.78900	3369.00000
39.80600	3406.00000
39.82300	3433.00000
39.84000	3440.00000
39.85700	3454.00000
39.87400	3571.00000
39.89100	3619.00000
39.90800	3492.00000
39.92500	3471.00000
39.94200	3398.00000
39.95900	3487.00000
39.97600	3488.00000
39.99300	3509.00000
40.01000	3497.00000
40.02700	3400.00000
40.04400	3490.00000
40.06100	3390.00000
40.07800	3580.00000
40.09500	3450.00000
40.11200	3487.00000
40.12900	3431.00000
40.14600	3389.00000
40.16300	3453.00000
40.18000	3449.00000
40.19700	3337.00000
40.21400	3468.00000
40.23100	3400.00000
40.24800	3321.00000
40.26500	3500.00000
40.28200	3539.00000
40.29900	3374.00000
40.31600	3341.00000
40.33300	3401.00000
40.35000	3519.00000
40.36700	3469.00000
40.38400	3430.00000
40.40100	3424.00000
40.41800	3566.00000
40.43500	3509.00000
40.45200	3323.00000
40.46900	3344.00000
40.48600	3391.00000
40.50300	3435.00000
40.52000	3378.00000
40.53700	3473.00000
40.55400	3516.00000
40.57100	3495.00000
40.58800	3494.00000
40.60500	3412.00000
40.62200	3268.00000
40.63900	3339.00000
40.65600	3455.00000
40.67300	3557.00000
40.69000	3473.00000
40.70700	3518.00000
40.72400	3518.00000
40.74100	3369.00000
40.75800	3391.00000
40.77500	3432.00000
40.79200	3366.00000
40.80900	3413.00000
40.82600	3490.00000
40.84300	3388.00000
40.86000	3387.00000
40.87700	3337.00000
40.89400	3523.00000
40.91100	3560.00000
40.92800	3477.00000
40.94500	3385.00000
40.96200	3381.00000
40.97900	3402.00000
40.99600	3366.00000
41.01300	3410.00000
41.03000	3336.00000
41.04700	3335.00000
41.06400	3372.00000
41.08100	3385.00000
41.09800	3394.00000
41.11500	3386.00000
41.13200	3396.00000
41.14900	3452.00000
41.16600	3409.00000
41.18300	3516.00000
41.20000	3466.00000
41.21700	3532.00000
41.23400	3480.00000
41.25100	3412.00000
41.26800	3386.00000
41.28500	3484.00000
41.30200	3440.00000
41.31900	3308.00000
41.33600	3380.00000
41.35300	3395.00000
41.37000	3361.00000
41.38700	3309.00000
41.40400	3369.00000
41.42100	3385.00000
41.43800	3347.00000
41.45500	3258.00000
41.47200	3320.00000
41.48900	3367.00000
41.50600	3320.00000
41.52300	3366.00000
41.54000	3373.00000
41.55700	3352.00000
41.57400	3296.00000
41.59100	3274.00000
41.60800	3338.00000
41.62500	3386.00000
41.64200	3360.00000
41.65900	3350.00000
41.67600	3316.00000
41.69300	3392.00000
41.71000	3379.00000
41.72700	3401.00000
41.74400	3355.00000
41.76100	3357.00000
41.77800	3419.00000
41.79500	3335.00000
41.81200	3298.00000
41.82900	3423.00000
41.84600	3455.00000
41.86300	3453.00000
41.88000	3435.00000
41.89700	3435.00000
41.91400	3391.00000
41.93100	3338.00000
41.94800	3355.00000
41.96500	3462.00000
41.98200	3423.00000
41.99900	3414.00000
42.01600	3321.00000
42.03300	3449.00000
42.05000	3462.00000
42.06700	3423.00000
42.08400	3321.00000
42.10100	3469.00000
42.11800	3340.00000
42.13500	3551.00000
42.15200	3479.00000
42.16900	3443.00000
42.18600	3444.00000
42.20300	3393.00000
42.22000	3249.00000
42.23700	3239.00000
42.25400	3330.00000
42.27100	3343.00000
42.28800	3352.00000
42.30500	3382.00000
42.32200	3401.00000
42.33900	3353.00000
42.35600	3364.00000
42.37300	3396.00000
42.39000	3393.00000
42.40700	3369.00000
42.42400	3446.00000
42.44100	3486.00000
42.45800	3390.00000
42.47500	3404.00000
42.49200	3374.00000
42.50900	3438.00000
42.52600	3466.00000
42.54300	3358.00000
42.56000	3409.00000
42.57700	3352.00000
42.59400	3300.00000
42.61100	3359.00000
42.62800	3426.00000
42.64500	3416.00000
42.66200	3415.00000
42.67900	3423.00000
42.69600	3398.00000
42.71300	3398.00000
42.73000	3423.00000
42.74700	3381.00000
42.76400	3369.00000
42.78100	3435.00000
42.79800	3414.00000
42.81500	3423.00000
42.83200	3410.00000
42.84900	3430.00000
42.86600	3430.00000
42.88300	3328.00000
42.90000	3332.00000
42.91700	3374.00000
42.93400	3460.00000
42.95100	3347.00000
42.96800	3272.00000
42.98500	3298.00000
43.00200	3329.00000
43.01900	3358.00000
43.03600	3471.00000
43.05300	3448.00000
43.07000	3478.00000
43.08700	3354.00000
43.10400	3343.00000
43.12100	3273.00000
43.13800	3361.00000
43.15500	3279.00000
43.17200	3294.00000
43.18900	3351.00000
43.20600	3379.00000
43.22300	3272.00000
43.24000	3235.00000
43.25700	3370.00000
43.27400	3361.00000
43.29100	3301.00000
43.30800	3361.00000
43.32500	3315.00000
43.34200	3280.00000
43.35900	3297.00000
43.37600	3260.00000
43.39300	3393.00000
43.41000	3311.00000
43.42700	3404.00000
43.44400	3372.00000
43.46100	3272.00000
43.47800	3279.00000
43.49500	3259.00000
43.51200	3387.00000
43.52900	3395.00000
43.54600	3262.00000
43.56300	3256.00000
43.58000	3288.00000
43.59700	3347.00000
43.61400	3434.00000
43.63100	3403.00000
43.64800	3351.00000
43.66500	3327.00000
43.68200	3356.00000
43.69900	3294.00000
43.71600	3263.00000
43.73300	3299.00000
43.75000	3339.00000
43.76700	3349.00000
43.78400	3369.00000
43.80100	3291.00000
43.81800	3272.00000
43.83500	3278.00000
43.85200	3251.00000
43.86900	3364.00000
43.88600	3262.00000
43.90300	3379.00000
43.92000	3390.00000
43.93700	3503.00000
43.95400	3277.00000
43.97100	3289.00000
43.98800	3399.00000
44.00500	3399.00000
44.02200	3447.00000
44.03900	3359.00000
44.05600	3444.00000
44.07300	3372.00000
44.09000	3296.00000
44.10700	3475.00000
44.12400	3489.00000
44.14100	3355.00000
44.15800	3343.00000
44.17500	3426.00000
44.19200	3412.00000
44.20900	3496.00000
44.22600	3501.00000
44.24300	3381.00000
44.26000	3559.00000
44.27700	3408.00000
44.29400	3429.00000
44.31100	3450.00000
44.32800	3335.00000
44.34500	3412.00000
44.36200	3556.00000
44.37900	3394.00000
44.39600	3434.00000
44.41300	3300.00000
44.43000	3312.00000
44.44700	3444.00000
44.46400	3389.00000
44.48100	3284.00000
44.49800	3214.00000
44.51500	3270.00000
44.53200	3265.00000
44.54900	3319.00000
44.56600	3443.00000
44.58300	3427.00000
44.60000	3422.00000
44.61700	3307.00000
44.63400	3325.00000
44.65100	3357.00000
44.66800	3333.00000
44.68500	3352.00000
44.70200	3389.00000
44.71900	3407.00000
44.73600	3259.00000
44.75300	3207.00000
44.77000	3320.00000
44.78700	3302.00000
44.80400	3420.00000
44.82100	3288.00000
44.83800	3220.00000
44.85500	3251.00000
44.87200	3317.00000
44.88900	3360.00000
44.90600	3269.00000
44.92300	3287.00000
44.94000	3384.00000
44.95700	3382.00000
44.97400	3364.00000
44.99100	3395.00000
45.00800	3348.00000
45.02500	3334.00000
45.04200	3210.00000
45.05900	3344.00000
45.07600	3343.00000
45.09300	3358.00000
45.11000	3384.00000
45.12700	3295.00000
45.14400	3380.00000
45.16100	3312.00000
45.17800	3310.00000
45.19500	3307.00000
45.21200	3313.00000
45.22900	3260.00000
45.24600	3246.00000
45.26300	3418.00000
45.28000	3390.00000
45.29700	3238.00000
45.31400	3265.00000
45.33100	3188.00000
45.34800	3270.00000
45.36500	3230.00000
45.38200	3322.00000
45.39900	3403.00000
45.41600	3441.00000
45.43300	3412.00000
45.45000	3422.00000
45.46700	3330.00000
45.48400	3206.00000
45.50100	3388.00000
45.51800	3415.00000
45.53500	3363.00000
45.55200	3351.00000
45.56900	3374.00000
45.58600	3313.00000
45.60300	3282.00000
45.62000	3321.00000
45.63700	3345.00000
45.65400	3348.00000
45.67100	3456.00000
45.68800	3373.00000
45.70500	3383.00000
45.72200	3441.00000
45.73900	3491.00000
45.75600	3487.00000
45.77300	3464.00000
45.79000	3362.00000
45.80700	3291.00000
45.82400	3281.00000
45.84100	3336.00000
45.85800	3403.00000
45.87500	3444.00000
45.89200	3268.00000
45.90900	3270.00000
45.92600	3380.00000
45.94300	3253.00000
45.96000	3401.00000
45.97700	3318.00000
45.99400	3366.00000
46.01100	3414.00000
46.02800	3478.00000
46.04500	3489.00000
46.06200	3463.00000
46.07900	3534.00000
46.09600	3579.00000
46.11300	3651.00000
46.13000	3637.00000
46.14700	3901.00000
46.16400	3961.00000
46.18100	4217.00000
46.19800	4182.00000
46.21500	4491.00000
46.23200	4464.00000
46.24900	4508.00000
46.26600	4505.00000
46.28300	4466.00000
46.30000	4337.00000
46.31700	4325.00000
46.33400	4135.00000
46.35100	3964.00000
46.36800	4091.00000
46.38500	3943.00000
46.40200	3701.00000
46.41900	3621.00000
46.43600	3593.00000
46.45300	3550.00000
46.47000	3472.00000
46.48700	3464.00000
46.50400	3493.00000
46.52100	3486.00000
46.53800	3492.00000
46.55500	3349.00000
46.57200	3361.00000
46.58900	3334.00000
46.60600	3284.00000
46.62300	3357.00000
46.64000	3327.00000
46.65700	3351.00000
46.67400	3386.00000
46.69100	3373.00000
46.70800	3264.00000
46.72500	3284.00000
46.74200	3295.00000
46.75900	3399.00000
46.77600	3378.00000
46.79300	3380.00000
46.81000	3353.00000
46.82700	3275.00000
46.84400	3327.00000
46.86100	3302.00000
46.87800	3308.00000
46.89500	3228.00000
46.91200	3298.00000
46.92900	3338.00000
46.94600	3378.00000
46.96300	3244.00000
46.98000	3291.00000
46.99700	3405.00000
47.01400	3340.00000
47.03100	3333.00000
47.04800	3377.00000
47.06500	3243.00000
47.08200	3332.00000
47.09900	3359.00000
47.11600	3384.00000
47.13300	3349.00000
47.15000	3322.00000
47.16700	3277.00000
47.18400	3242.00000
47.20100	3390.00000
47.21800	3307.00000
47.23500	3273.00000
47.25200	3351.00000
47.26900	3324.00000
47.28600	3374.00000
47.30300	3365.00000
47.32000	3388.00000
47.33700	3321.00000
47.35400	3242.00000
47.37100	3256.00000
47.38800	3303.00000
47.40500	3287.00000
47.42200	3319.00000
47.43900	3264.00000
47.45600	3271.00000
47.47300	3284.00000
47.49000	3301.00000
47.50700	3320.00000
47.52400	3368.00000
47.54100	3443.00000
47.55800	3407.00000
47.57500	3339.00000
47.59200	3337.00000
47.60900	3360.00000
47.62600	3375.00000
47.64300	3341.00000
47.66000	3297.00000
47.67700	3215.00000
47.69400	3335.00000
47.71100	3340.00000
47.72800	3282.00000
47.74500	3217.00000
47.76200	3285.00000
47.77900	3321.00000
47.79600	3290.00000
47.81300	3293.00000
47.83000	3390.00000
47.84700	3255.00000
47.86400	3249.00000
47.88100	3285.00000
47.89800	3264.00000
47.91500	3183.00000
47.93200	3195.00000
47.94900	3291.00000
47.96600	3375.00000
47.98300	3243.00000
48.00000	3318.00000
48.01700	3348.00000
48.03400	3285.00000
48.05100	3249.00000
48.06800	3129.00000
48.08500	3350.00000
48.10200	3396.00000
48.11900	3391.00000
48.13600	3320.00000
48.15300	3361.00000
48.17000	3323.00000
48.18700	3350.00000
48.20400	3234.00000
48.22100	3268.00000
48.23800	3327.00000
48.25500	3203.00000
48.27200	3380.00000
48.28900	3313.00000
48.30600	3343.00000
48.32300	3358.00000
48.34000	3288.00000
48.35700	3268.00000
48.37400	3367.00000
48.39100	3293.00000
48.40800	3304.00000
48.42500	3484.00000
48.44200	3405.00000
48.45900	3318.00000
48.47600	3305.00000
48.49300	3415.00000
48.51000	3319.00000
48.52700	3299.00000
48.54400	3371.00000
48.56100	3367.00000
48.57800	3385.00000
48.59500	3319.00000
48.61200	3307.00000
48.62900	3218.00000
48.64600	3303.00000
48.66300	3329.00000
48.68000	3258.00000
48.69700	3315.00000
48.71400	3349.00000
48.73100	3361.00000
48.74800	3393.00000
48.76500	3353.00000
48.78200	3306.00000
48.79900	3405.00000
48.81600	3345.00000
48.83300	3240.00000
48.85000	3250.00000
48.86700	3247.00000
48.88400	3335.00000
48.90100	3318.00000
48.91800	3191.00000
48.93500	3215.00000
48.95200	3395.00000
48.96900	3320.00000
48.98600	3265.00000
49.00300	3269.00000
49.02000	3408.00000
49.03700	3454.00000
49.05400	3295.00000
49.07100	3260.00000
49.08800	3180.00000
49.10500	3268.00000
49.12200	3248.00000
49.13900	3325.00000
49.15600	3358.00000
49.17300	3346.00000
49.19000	3363.00000
49.20700	3331.00000
49.22400	3281.00000
49.24100	3326.00000
49.25800	3247.00000
49.27500	3236.00000
49.29200	3302.00000
49.30900	3288.00000
49.32600	3236.00000
49.34300	3236.00000
49.36000	3322.00000
49.37700	3256.00000
49.39400	3275.00000
49.41100	3345.00000
49.42800	3295.00000
49.44500	3276.00000
49.46200	3323.00000
49.47900	3271.00000
49.49600	3274.00000
49.51300	3328.00000
49.53000	3242.00000
49.54700	3241.00000
49.56400	3273.00000
49.58100	3238.00000
49.59800	3245.00000
49.61500	3331.00000
49.63200	3361.00000
49.64900	3322.00000
49.66600	3437.00000
49.68300	3286.00000
49.70000	3224.00000
49.71700	3347.00000
49.73400	3372.00000
49.75100	3199.00000
49.76800	3185.00000
49.78500	3289.00000
49.80200	3355.00000
49.81900	3209.00000
49.83600	3194.00000
49.85300	3340.00000
49.87000	3309.00000
49.88700	3236.00000
49.90400	3311.00000
49.92100	3295.00000
49.93800	3265.00000
49.95500	3255.00000
49.97200	3254.00000
49.98900	3259.00000
50.00600	3157.00000
50.02300	3231.00000
50.04000	3323.00000
50.05700	3260.00000
50.07400	3247.00000
50.09100	3302.00000
50.10800	3247.00000
50.12500	3308.00000
50.14200	3265.00000
50.15900	3232.00000
50.17600	3345.00000
50.19300	3402.00000
50.21000	3329.00000
50.22700	3258.00000
50.24400	3289.00000
50.26100	3295.00000
50.27800	3236.00000
50.29500	3320.00000
50.31200	3296.00000
50.32900	3376.00000
50.34600	3365.00000
50.36300	3288.00000
50.38000	3339.00000
50.39700	3246.00000
50.41400	3146.00000
50.43100	3284.00000
50.44800	3373.00000
50.46500	3302.00000
50.48200	3294.00000
50.49900	3332.00000
50.51600	3356.00000
50.53300	3361.00000
50.55000	3279.00000
50.56700	3271.00000
50.58400	3282.00000
50.60100	3285.00000
50.61800	3347.00000
50.63500	3330.00000
50.65200	3305.00000
50.66900	3268.00000
50.68600	3298.00000
50.70300	3244.00000
50.72000	3264.00000
50.73700	3208.00000
50.75400	3292.00000
50.77100	3294.00000
50.78800	3247.00000
50.80500	3418.00000
50.82200	3335.00000
50.83900	3269.00000
50.85600	3352.00000
50.87300	3265.00000
50.89000	3297.00000
50.90700	3244.00000
50.92400	3264.00000
50.94100	3207.00000
50.95800	3292.00000
50.97500	3206.00000
50.99200	3302.00000
51.00900	3285.00000
51.02600	3336.00000
51.04300	3409.00000
51.06000	3240.00000
51.07700	3263.00000
51.09400	3320.00000
51.11100	3296.00000
51.12800	3290.00000
51.14500	3380.00000
51.16200	3369.00000
51.17900	3268.00000
51.19600	3282.00000
51.21300	3272.00000
51.23000	3312.00000
51.24700	3231.00000
51.26400	3351.00000
51.28100	3248.00000
51.29800	3136.00000
51.31500	3259.00000
51.33200	3304.00000
51.34900	3388.00000
51.36600	3430.00000
51.38300	3434.00000
51.40000	3475.00000
51.41700	3321.00000
51.43400	3424.00000
51.45100	3403.00000
51.46800	3336.00000
51.48500	3327.00000
51.50200	3272.00000
51.51900	3390.00000
51.53600	3393.00000
51.55300	3299.00000
51.57000	3345.00000
51.58700	3390.00000
51.60400	3369.00000
51.62100	3287.00000
51.63800	3278.00000
51.65500	3298.00000
51.67200	3425.00000
51.68900	3341.00000
51.70600	3376.00000
51.72300	3283.00000
51.74000	3299.00000
51.75700	3330.00000
51.77400	3329.00000
51.79100	3294.00000
51.80800	3314.00000
51.82500	3320.00000
51.84200	3253.00000
51.85900	3424.00000
51.87600	3470.00000
51.89300	3457.00000
51.91000	3327.00000
51.92700	3358.00000
51.94400	3365.00000
51.96100	3296.00000
51.97800	3367.00000
51.99500	3407.00000
52.01200	3311.00000
52.02900	3411.00000
52.04600	3229.00000
52.06300	3323.00000
52.08000	3231.00000
52.09700	3277.00000
52.11400	3303.00000
52.13100	3245.00000
52.14800	3331.00000
52.16500	3342.00000
52.18200	3311.00000
52.19900	3390.00000
52.21600	3281.00000
52.23300	3261.00000
52.25000	3332.00000
52.26700	3434.00000
52.28400	3291.00000
52.30100	3292.00000
52.31800	3238.00000
52.33500	3225.00000
52.35200	3320.00000
52.36900	3265.00000
52.38600	3384.00000
52.40300	3434.00000
52.42000	3312.00000
52.43700	3232.00000
52.45400	3363.00000
52.47100	3381.00000
52.48800	3315.00000
52.50500	3346.00000
52.52200	3320.00000
52.53900	3371.00000
52.55600	3360.00000
52.57300	3349.00000
52.59000	3304.00000
52.60700	3366.00000
52.62400	3405.00000
52.64100	3359.00000
52.65800	3339.00000
52.67500	3300.00000
52.69200	3371.00000
52.70900	3435.00000
52.72600	3400.00000
52.74300	3367.00000
52.76000	3387.00000
52.77700	3453.00000
52.79400	3411.00000
52.81100	3429.00000
52.82800	3398.00000
52.84500	3347.00000
52.86200	3474.00000
52.87900	3345.00000
52.89600	3437.00000
52.91300	3505.00000
52.93000	3376.00000
52.94700	3326.00000
52.96400	3372.00000
52.98100	3423.00000
52.99800	3381.00000
53.01500	3392.00000
53.03200	3491.00000
53.04900	3443.00000
53.06600	3387.00000
53.08300	3403.00000
53.10000	3483.00000
53.11700	3489.00000
53.13400	3462.00000
53.15100	3498.00000
53.16800	3497.00000
53.18500	3455.00000
53.20200	3486.00000
53.21900	3487.00000
53.23600	3406.00000
53.25300	3592.00000
53.27000	3505.00000
53.28700	3463.00000
53.30400	3533.00000
53.32100	3567.00000
53.33800	3556.00000
53.35500	3500.00000
53.37200	3607.00000
53.38900	3628.00000
53.40600	3628.00000
53.42300	3681.00000
53.44000	3611.00000
53.45700	3729.00000
53.47400	3753.00000
53.49100	3795.00000
53.50800	3770.00000
53.52500	3784.00000
53.54200	3904.00000
53.55900	3950.00000
53.57600	4066.00000
53.59300	4139.00000
53.61000	4243.00000
53.62700	4337.00000
53.64400	4440.00000
53.66100	4642.00000
53.67800	4836.00000
53.69500	4961.00000
53.71200	5063.00000
53.72900	5317.00000
53.74600	5746.00000
53.76300	6154.00000
53.78000	6827.00000
53.79700	7703.00000
53.81400	8921.00000
53.83100	10378.00000
53.84800	12660.00000
53.86500	15030.00000
53.88200	17622.00000
53.89900	19907.00000
53.91600	21569.00000
53.93300	21857.00000
53.95000	21308.00000
53.96700	20040.00000
53.98400	18795.00000
54.00100	17971.00000
54.01800	17234.00000
54.03500	16847.00000
54.05200	15820.00000
54.06900	14397.00000
54.08600	13126.00000
54.10300	11522.00000
54.12000	9889.00000
54.13700	8663.00000
54.15400	7766.00000
54.17100	6875.00000
54.18800	6248.00000
54.20500	5854.00000
54.22200	5485.00000
54.23900	5185.00000
54.25600	5069.00000
54.27300	4668.00000
54.29000	4561.00000
54.30700	4465.00000
54.32400	4334.00000
54.34100	4189.00000
54.35800	4090.00000
54.37500	4052.00000
54.39200	3917.00000
54.40900	3902.00000
54.42600	3780.00000
54.44300	3819.00000
54.46000	3841.00000
54.47700	3841.00000
54.49400	3838.00000
54.51100	3816.00000
54.52800	3821.00000
54.54500	3762.00000
54.56200	3693.00000
54.57900	3642.00000
54.59600	3607.00000
54.61300	3594.00000
54.63000	3634.00000
54.64700	3678.00000
54.66400	3659.00000
54.68100	3667.00000
54.69800	3613.00000
54.71500	3629.00000
54.73200	3710.00000
54.74900	3552.00000
54.76600	3435.00000
54.78300	3571.00000
54.80000	3489.00000
54.81700	3411.00000
54.83400	3565.00000
54.85100	3465.00000
54.86800	3414.00000
54.88500	3444.00000
54.90200	3442.00000
54.91900	3429.00000
54.93600	3369.00000
54.95300	3498.00000
54.97000	3509.00000
54.98700	3369.00000
55.00400	3502.00000
55.02100	3496.00000
55.03800	3521.00000
55.05500	3303.00000
55.07200	3269.00000
55.08900	3469.00000
55.10600	3428.00000
55.12300	3433.00000
55.14000	3493.00000
55.15700	3503.00000
55.17400	3440.00000
55.19100	3381.00000
55.20800	3418.00000
55.22500	3395.00000
55.24200	3320.00000
55.25900	3387.00000
55.27600	3512.00000
55.29300	3468.00000
55.31000	3429.00000
55.32700	3374.00000
55.34400	3389.00000
55.36100	3447.00000
55.37800	3388.00000
55.39500	3411.00000
55.41200	3423.00000
55.42900	3383.00000
55.44600	3352.00000
55.46300	3347.00000
55.48000	3326.00000
55.49700	3402.00000
55.51400	3418.00000
55.53100	3408.00000
55.54800	3386.00000
55.56500	3337.00000
55.58200	3359.00000
55.59900	3364.00000
55.61600	3433.00000
55.63300	3439.00000
55.65000	3451.00000
55.66700	3349.00000
55.68400	3403.00000
55.70100	3412.00000
55.71800	3395.00000
55.73500	3388.00000
55.75200	3359.00000
55.76900	3363.00000
55.78600	3353.00000
55.80300	3498.00000
55.82000	3370.00000
55.83700	3370.00000
55.85400	3348.00000
55.87100	3337.00000
55.88800	3389.00000
55.90500	3415.00000
55.92200	3462.00000
55.93900	3542.00000
55.95600	3529.00000
55.97300	3459.00000
55.99000	3469.00000
56.00700	3364.00000
56.02400	3430.00000
56.04100	3523.00000
56.05800	3401.00000
56.07500	3380.00000
56.09200	3379.00000
56.10900	3466.00000
56.12600	3366.00000
56.14300	3410.00000
56.16000	3416.00000
56.17700	3383.00000
56.19400	3402.00000
56.21100	3490.00000
56.22800	3251.00000
56.24500	3315.00000
56.26200	3347.00000
56.27900	3343.00000
56.29600	3263.00000
56.31300	3274.00000
56.33000	3347.00000
56.34700	3324.00000
56.36400	3388.00000
56.38100	3372.00000
56.39800	3294.00000
56.41500	3284.00000
56.43200	3314.00000
56.44900	3412.00000
56.46600	3416.00000
56.48300	3221.00000
56.50000	3303.00000
56.51700	3359.00000
56.53400	3240.00000
56.55100	3244.00000
56.56800	3298.00000
56.58500	3408.00000
56.60200	3311.00000
56.61900	3387.00000
56.63600	3427.00000
56.65300	3315.00000
56.67000	3293.00000
56.68700	3352.00000
56.70400	3318.00000
56.72100	3280.00000
56.73800	3344.00000
56.75500	3286.00000
56.77200	3291.00000
56.78900	3234.00000
56.80600	3150.00000
56.82300	3303.00000
56.84000	3197.00000
56.85700	3248.00000
56.87400	3347.00000
56.89100	3279.00000
56.90800	3298.00000
56.92500	3325.00000
56.94200	3304.00000
56.95900	3291.00000
56.97600	3320.00000
56.99300	3279.00000
57.01000	3273.00000
57.02700	3207.00000
57.04400	3293.00000
57.06100	3282.00000
57.07800	3192.00000
57.09500	3276.00000
57.11200	3283.00000
57.12900	3300.00000
57.14600	3225.00000
57.16300	3248.00000
57.18000	3250.00000
57.19700	3290.00000
57.21400	3285.00000
57.23100	3218.00000
57.24800	3207.00000
57.26500	3117.00000
57.28200	3164.00000
57.29900	3290.00000
57.31600	3193.00000
57.33300	3267.00000
57.35000	3386.00000
57.36700	3310.00000
57.38400	3328.00000
57.40100	3327.00000
57.41800	3262.00000
57.43500	3321.00000
57.45200	3262.00000
57.46900	3213.00000
57.48600	3255.00000
57.50300	3333.00000
57.52000	3286.00000
57.53700	3176.00000
57.55400	3233.00000
57.57100	3264.00000
57.58800	3288.00000
57.60500	3270.00000
57.62200	3264.00000
57.63900	3277.00000
57.65600	3261.00000
57.67300	3176.00000
57.69000	3188.00000
57.70700	3270.00000
57.72400	3281.00000
57.74100	3295.00000
57.75800	3328.00000
57.77500	3395.00000
57.79200	3235.00000
57.80900	3340.00000
57.82600	3391.00000
57.84300	3273.00000
57.86000	3264.00000
57.87700	3346.00000
57.89400	3197.00000
57.91100	3287.00000
57.92800	3223.00000
57.94500	3312.00000
57.96200	3305.00000
57.97900	3363.00000
57.99600	3330.00000
58.01300	3339.00000
58.03000	3199.00000
58.04700	3133.00000
58.06400	3303.00000
58.08100	3337.00000
58.09800	3341.00000
58.11500	3298.00000
58.13200	3369.00000
58.14900	3352.00000
58.16600	3406.00000
58.18300	3226.00000
58.20000	3269.00000
58.21700	3370.00000
58.23400	3312.00000
58.25100	3285.00000
58.26800	3231.00000
58.28500	3325.00000
58.30200	3352.00000
58.31900	3247.00000
58.33600	3245.00000
58.35300	3304.00000
58.37000	3296.00000
58.38700	3371.00000
58.40400	3279.00000
58.42100	3161.00000
58.43800	3280.00000
58.45500	3294.00000
58.47200	3270.00000
58.48900	3269.00000
58.50600	3296.00000
58.52300	3269.00000
58.54000	3391.00000
58.55700	3492.00000
58.57400	3343.00000
58.59100	3266.00000
58.60800	3371.00000
58.62500	3314.00000
58.64200	3322.00000
58.65900	3284.00000
58.67600	3388.00000
58.69300	3303.00000
58.71000	3315.00000
58.72700	3352.00000
58.74400	3314.00000
58.76100	3286.00000
58.77800	3397.00000
58.79500	3456.00000
58.81200	3280.00000
58.82900	3165.00000
58.84600	3328.00000
58.86300	3359.00000
58.88000	3375.00000
58.89700	3293.00000
58.91400	3362.00000
58.93100	3365.00000
58.94800	3252.00000
58.96500	3422.00000
58.98200	3332.00000
58.99900	3334.00000
59.01600	3252.00000
59.03300	3163.00000
59.05000	3266.00000
59.06700	3408.00000
59.08400	3374.00000
59.10100	3357.00000
59.11800	3369.00000
59.13500	3400.00000
59.15200	3483.00000
59.16900	3320.00000
59.18600	3230.00000
59.20300	3315.00000
59.22000	3295.00000
59.23700	3312.00000
59.25400	3348.00000
59.27100	3320.00000
59.28800	3323.00000
59.30500	3302.00000
59.32200	3298.00000
59.33900	3288.00000
59.35600	3325.00000
59.37300	3268.00000
59.39000	3250.00000
59.40700	3275.00000
59.42400	3248.00000
59.44100	3381.00000
59.45800	3403.00000
59.47500	3332.00000
59.49200	3232.00000
59.50900	3196.00000
59.52600	3303.00000
59.54300	3250.00000
59.56000	3278.00000
59.57700	3300.00000
59.59400	3255.00000
59.61100	3269.00000
59.62800	3178.00000
59.64500	3344.00000
59.66200	3424.00000
59.67900	3383.00000
59.69600	3415.00000
59.71300	3179.00000
59.73000	3324.00000
59.74700	3398.00000
59.76400	3364.00000
59.78100	3352.00000
59.79800	3366.00000
59.81500	3257.00000
59.83200	3412.00000
59.84900	3474.00000
59.86600	3390.00000
59.88300	3409.00000
59.90000	3405.00000
59.91700	3361.00000
59.93400	3275.00000
59.95100	3309.00000
59.96800	3327.00000
59.98500	3340.00000
60.00200	3379.00000
60.01900	3343.00000
60.03600	3362.00000
60.05300	3454.00000
60.07000	3432.00000
60.08700	3424.00000
60.10400	3395.00000
60.12100	3394.00000
60.13800	3459.00000
60.15500	3436.00000
60.17200	3349.00000
60.18900	3349.00000
60.20600	3380.00000
60.22300	3459.00000
60.24000	3441.00000
60.25700	3461.00000
60.27400	3458.00000
60.29100	3581.00000
60.30800	3447.00000
60.32500	3518.00000
60.34200	3604.00000
60.35900	3592.00000
60.37600	3556.00000
60.39300	3570.00000
60.41000	3648.00000
60.42700	3675.00000
60.44400	3650.00000
60.46100	3636.00000
60.47800	3639.00000
60.49500	3753.00000
60.51200	3850.00000
60.52900	3861.00000
60.54600	3934.00000
60.56300	3951.00000
60.58000	3988.00000
60.59700	4074.00000
60.61400	4192.00000
60.63100	4358.00000
60.64800	4488.00000
60.66500	4637.00000
60.68200	4458.00000
60.69900	4690.00000
60.71600	4889.00000
60.73300	5220.00000
60.75000	5507.00000
60.76700	5946.00000
60.78400	6545.00000
60.80100	7412.00000
60.81800	8430.00000
60.83500	9675.00000
60.85200	11361.00000
60.86900	13453.00000
60.88600	15326.00000
60.90300	16884.00000
60.92000	17415.00000
60.93700	17273.00000
60.95400	16493.00000
60.97100	15617.00000
60.98800	14649.00000
61.00500	13964.00000
61.02200	13603.00000
61.03900	13331.00000
61.05600	12930.00000
61.07300	12202.00000
61.09000	11342.00000
61.10700	10572.00000
61.12400	9653.00000
61.14100	8330.00000
61.15800	7543.00000
61.17500	6738.00000
61.19200	6220.00000
61.20900	5767.00000
61.22600	5355.00000
61.24300	5088.00000
61.26000	4802.00000
61.27700	4493.00000
61.29400	4410.00000
61.31100	4358.00000
61.32800	4181.00000
61.34500	4044.00000
61.36200	3878.00000
61.37900	3891.00000
61.39600	3867.00000
61.41300	3752.00000
61.43000	3784.00000
61.44700	3784.00000
61.46400	3752.00000
61.48100	3768.00000
61.49800	3731.00000
61.51500	3662.00000
61.53200	3609.00000
61.54900	3511.00000
61.56600	3557.00000
61.58300	3590.00000
61.60000	3513.00000
61.61700	3499.00000
61.63400	3575.00000
61.65100	3546.00000
61.66800	3402.00000
61.68500	3425.00000
61.70200	3431.00000
61.71900	3404.00000
61.73600	3548.00000
61.75300	3501.00000
61.77000	3449.00000
61.78700	3423.00000
61.80400	3354.00000
61.82100	3518.00000
61.83800	3413.00000
61.85500	3490.00000
61.87200	3344.00000
61.88900	3452.00000
61.90600	3538.00000
61.92300	3468.00000
61.94000	3296.00000
61.95700	3290.00000
61.97400	3417.00000
61.99100	3407.00000
62.00800	3547.00000
62.02500	3475.00000
62.04200	3372.00000
62.05900	3294.00000
62.07600	3440.00000
62.09300	3437.00000
62.11000	3532.00000
62.12700	3266.00000
62.14400	3346.00000
62.16100	3373.00000
62.17800	3458.00000
62.19500	3389.00000
62.21200	3373.00000
62.22900	3373.00000
62.24600	3377.00000
62.26300	3324.00000
62.28000	3249.00000
62.29700	3208.00000
62.31400	3293.00000
62.33100	3218.00000
62.34800	3209.00000
62.36500	3340.00000
62.38200	3332.00000
62.39900	3333.00000
62.41600	3265.00000
62.43300	3284.00000
62.45000	3370.00000
62.46700	3315.00000
62.48400	3327.00000
62.50100	3308.00000
62.51800	3360.00000
62.53500	3301.00000
62.55200	3320.00000
62.56900	3428.00000
62.58600	3421.00000
62.60300	3329.00000
62.62000	3257.00000
62.63700	3253.00000
62.65400	3311.00000
62.67100	3252.00000
62.68800	3274.00000
62.70500	3210.00000
62.72200	3258.00000
62.73900	3280.00000
62.75600	3244.00000
62.77300	3255.00000
62.79000	3216.00000
62.80700	3242.00000
62.82400	3348.00000
62.84100	3285.00000
62.85800	3299.00000
62.87500	3343.00000
62.89200	3322.00000
62.90900	3330.00000
62.92600	3358.00000
62.94300	3187.00000
62.96000	3297.00000
62.97700	3346.00000
62.99400	3280.00000
63.01100	3430.00000
63.02800	3439.00000
63.04500	3319.00000
63.06200	3247.00000
63.07900	3246.00000
63.09600	3311.00000
63.11300	3215.00000
63.13000	3260.00000
63.14700	3295.00000
63.16400	3250.00000
63.18100	3226.00000
63.19800	3299.00000
63.21500	3329.00000
63.23200	3308.00000
63.24900	3224.00000
63.26600	3273.00000
63.28300	3233.00000
63.30000	3230.00000
63.31700	3229.00000
63.33400	3283.00000
63.35100	3337.00000
63.36800	3304.00000
63.38500	3272.00000
63.40200	3202.00000
63.41900	3185.00000
63.43600	3230.00000
63.45300	3287.00000
63.47000	3237.00000
63.48700	3285.00000
63.50400	3333.00000
63.52100	3311.00000
63.53800	3261.00000
63.55500	3295.00000
63.57200	3281.00000
63.58900	3235.00000
63.60600	3306.00000
63.62300	3344.00000
63.64000	3270.00000
63.65700	3358.00000
63.67400	3365.00000
63.69100	3418.00000
63.70800	3388.00000
63.72500	3318.00000
63.74200	3275.00000
63.75900	3303.00000
63.77600	3322.00000
63.79300	3326.00000
63.81000	3248.00000
63.82700	3277.00000
63.84400	3307.00000
63.86100	3249.00000
63.87800	3258.00000
63.89500	3263.00000
63.91200	3330.00000
63.92900	3371.00000
63.94600	3317.00000
63.96300	3216.00000
63.98000	3258.00000
63.99700	3304.00000
64.01400	3237.00000
64.03100	3329.00000
64.04800	3364.00000
64.06500	3332.00000
64.08200	3390.00000
64.09900	3398.00000
64.11600	3354.00000
64.13300	3303.00000
64.15000	3226.00000
64.16700	3298.00000
64.18400	3335.00000
64.20100	3355.00000
64.21800	3273.00000
64.23500	3154.00000
64.25200	3226.00000
64.26900	3214.00000
64.28600	3165.00000
64.30300	3272.00000
64.32000	3320.00000
64.33700	3323.00000
64.35400	3296.00000
64.37100	3248.00000
64.38800	3329.00000
64.40500	3391.00000
64.42200	3263.00000
64.43900	3260.00000
64.45600	3413.00000
64.47300	3375.00000
64.49000	3271.00000
64.50700	3267.00000
64.52400	3279.00000
64.54100	3247.00000
64.55800	3375.00000
64.57500	3358.00000
64.59200	3183.00000
64.60900	3302.00000
64.62600	3373.00000
64.64300	3387.00000
64.66000	3304.00000
64.67700	3275.00000
64.69400	3360.00000
64.71100	3407.00000
64.72800	3312.00000
64.74500	3370.00000
64.76200	3276.00000
64.77900	3279.00000
64.79600	3400.00000
64.81300	3296.00000
64.83000	3366.00000
64.84700	3312.00000
64.86400	3280.00000
64.88100	3278.00000
64.89800	3340.00000
64.91500	3289.00000
64.93200	3279.00000
64.94900	3249.00000
64.96600	3317.00000
64.98300	3176.00000
65.00000	3189.00000
65.01700	3169.00000
65.03400	3185.00000
65.05100	3264.00000
65.06800	3268.00000
65.08500	3243.00000
65.10200	3242.00000
65.11900	3223.00000
65.13600	3215.00000
65.15300	3326.00000
65.17000	3291.00000
65.18700	3259.00000
65.20400	3223.00000
65.22100	3266.00000
65.23800	3294.00000
65.25500	3322.00000
65.27200	3295.00000
65.28900	3329.00000
65.30600	3347.00000
65.32300	3320.00000
65.34000	3286.00000
65.35700	3273.00000
65.37400	3278.00000
65.39100	3228.00000
65.40800	3272.00000
65.42500	3311.00000
65.44200	3249.00000
65.45900	3344.00000
65.47600	3376.00000
65.49300	3421.00000
65.51000	3363.00000
65.52700	3221.00000
65.54400	3389.00000
65.56100	3314.00000
65.57800	3380.00000
65.59500	3435.00000
65.61200	3317.00000
65.62900	3305.00000
65.64600	3382.00000
65.66300	3437.00000
65.68000	3437.00000
65.69700	3291.00000
65.71400	3369.00000
65.73100	3286.00000
65.74800	3199.00000
65.76500	3299.00000
65.78200	3204.00000
65.79900	3362.00000
65.81600	3382.00000
65.83300	3326.00000
65.85000	3367.00000
65.86700	3461.00000
65.88400	3296.00000
65.90100	3396.00000
65.91800	3373.00000
65.93500	3309.00000
65.95200	3322.00000
65.96900	3290.00000
65.98600	3314.00000
66.00300	3236.00000
66.02000	3289.00000
66.03700	3397.00000
66.05400	3406.00000
66.07100	3275.00000
66.08800	3204.00000
66.10500	3393.00000
66.12200	3513.00000
66.13900	3341.00000
66.15600	3277.00000
66.17300	3249.00000
66.19000	3303.00000
66.20700	3337.00000
66.22400	3315.00000
66.24100	3183.00000
66.25800	3286.00000
66.27500	3409.00000
66.29200	3373.00000
66.30900	3385.00000
66.32600	3310.00000
66.34300	3248.00000
66.36000	3265.00000
66.37700	3216.00000
66.39400	3324.00000
66.41100	3485.00000
66.42800	3235.00000
66.44500	3177.00000
66.46200	3339.00000
66.47900	3408.00000
66.49600	3506.00000
66.51300	3437.00000
66.53000	3478.00000
66.54700	3385.00000
66.56400	3386.00000
66.58100	3435.00000
66.59800	3423.00000
66.61500	3482.00000
66.63200	3399.00000
66.64900	3360.00000
66.66600	3410.00000
66.68300	3365.00000
66.70000	3258.00000
66.71700	3297.00000
66.73400	3336.00000
66.75100	3276.00000
66.76800	3482.00000
66.78500	3380.00000
66.80200	3416.00000
66.81900	3478.00000
66.83600	3509.00000
66.85300	3556.00000
66.87000	3515.00000
66.88700	3517.00000
66.90400	3484.00000
66.92100	3455.00000
66.93800	3522.00000
66.95500	3665.00000
66.97200	3642.00000
66.98900	3624.00000
67.00600	3675.00000
67.02300	3674.00000
67.04000	3635.00000
67.05700	3663.00000
67.07400	3820.00000
67.09100	3922.00000
67.10800	4005.00000
67.12500	4055.00000
67.14200	4021.00000
67.15900	4204.00000
67.17600	4336.00000
67.19300	4284.00000
67.21000	4459.00000
67.22700	4444.00000
67.24400	4606.00000
67.26100	4891.00000
67.27800	5147.00000
67.29500	5425.00000
67.31200	5852.00000
67.32900	6366.00000
67.34600	6946.00000
67.36300	7877.00000
67.38000	9184.00000
67.39700	10706.00000
67.41400	12188.00000
67.43100	13774.00000
67.44800	15209.00000
67.46500	16233.00000
67.48200	16226.00000
67.49900	15900.00000
67.51600	15209.00000
67.53300	14229.00000
67.55000	13653.00000
67.56700	12999.00000
67.58400	12675.00000
67.60100	12646.00000
67.61800	12612.00000
67.63500	12313.00000
67.65200	11532.00000
67.66900	10790.00000
67.68600	9794.00000
67.70300	8895.00000
67.72000	8198.00000
67.73700	7268.00000
67.75400	6550.00000
67.77100	6078.00000
67.78800	5673.00000
67.80500	5396.00000
67.82200	5206.00000
67.83900	4925.00000
67.85600	4785.00000
67.87300	4550.00000
67.89000	4296.00000
67.90700	4288.00000
67.92400	4239.00000
67.94100	4007.00000
67.95800	3884.00000
67.97500	3833.00000
67.99200	3783.00000
68.00900	3693.00000
68.02600	3740.00000
68.04300	3605.00000
68.06000	3633.00000
68.07700	3615.00000
68.09400	3551.00000
68.11100	3489.00000
68.12800	3529.00000
68.14500	3578.00000
68.16200	3570.00000
68.17900	3517.00000
68.19600	3484.00000
68.21300	3552.00000
68.23000	3484.00000
68.24700	3414.00000
68.26400	3383.00000
68.28100	3487.00000
68.29800	3548.00000
68.31500	3427.00000
68.33200	3476.00000
68.34900	3547.00000
68.36600	3441.00000
68.38300	3517.00000
68.40000	3489.00000
68.41700	3490.00000
68.43400	3456.00000
68.45100	3365.00000
68.46800	3405.00000
68.48500	3527.00000
68.50200	3377.00000
68.51900	3361.00000
68.53600	3432.00000
68.55300	3312.00000
68.57000	3340.00000
68.58700	3452.00000
68.60400	3359.00000
68.62100	3284.00000
68.63800	3477.00000
68.65500	3366.00000
68.67200	3304.00000
68.68900	3412.00000
68.70600	3388.00000
68.72300	3285.00000
68.74000	3309.00000
68.75700	3280.00000
68.77400	3191.00000
68.79100	3312.00000
68.80800	3207.00000
68.82500	3298.00000
68.84200	3478.00000
68.85900	3288.00000
68.87600	3272.00000
68.89300	3399.00000
68.91000	3353.00000
68.92700	3344.00000
68.94400	3345.00000
68.96100	3376.00000
68.97800	3429.00000
68.99500	3461.00000
69.01200	3309.00000
69.02900	3353.00000
69.04600	3362.00000
69.06300	3326.00000
69.08000	3289.00000
69.09700	3336.00000
69.11400	3282.00000
69.13100	3309.00000
69.14800	3306.00000
69.16500	3261.00000
69.18200	3350.00000
69.19900	3377.00000
69.21600	3363.00000
69.23300	3318.00000
69.25000	3358.00000
69.26700	3390.00000
69.28400	3453.00000
69.30100	3334.00000
69.31800	3285.00000
69.33500	3281.00000
69.35200	3243.00000
69.36900	3334.00000
69.38600	3341.00000
69.40300	3315.00000
69.42000	3170.00000
69.43700	3326.00000
69.45400	3285.00000
69.47100	3267.00000
69.48800	3278.00000
69.50500	3410.00000
69.52200	3215.00000
69.53900	3221.00000
69.55600	3392.00000
69.57300	3225.00000
69.59000	3416.00000
69.60700	3388.00000
69.62400	3211.00000
69.64100	3396.00000
69.65800	3385.00000
69.67500	3263.00000
69.69200	3364.00000
69.70900	3292.00000
69.72600	3426.00000
69.74300	3301.00000
69.76000	3389.00000
69.77700	3284.00000
69.79400	3351.00000
69.81100	3297.00000
69.82800	3335.00000
69.84500	3396.00000
69.86200	3323.00000
69.87900	3369.00000
69.89600	3244.00000
69.91300	3370.00000
69.93000	3368.00000
69.94700	3281.00000
69.96400	3321.00000
69.98100	3334.00000
69.99800	3232.00000
70.01500	3199.00000
70.03200	3206.00000
70.04900	3306.00000
70.06600	3234.00000
70.08300	3242.00000
70.10000	3243.00000
70.11700	3282.00000
70.13400	3247.00000
70.15100	3284.00000
70.16800	3343.00000
70.18500	3245.00000
70.20200	3284.00000
70.21900	3267.00000
70.23600	3191.00000
70.25300	3248.00000
70.27000	3277.00000
70.28700	3293.00000
70.30400	3272.00000
70.32100	3251.00000
70.33800	3399.00000
70.35500	3251.00000
70.37200	3323.00000
70.38900	3310.00000
70.40600	3212.00000
70.42300	3280.00000
70.44000	3345.00000
70.45700	3288.00000
70.47400	3175.00000
70.49100	3238.00000
70.50800	3271.00000
70.52500	3183.00000
70.54200	3224.00000
70.55900	3192.00000
70.57600	3257.00000
70.59300	3372.00000
70.61000	3216.00000
70.62700	3277.00000
70.64400	3319.00000
70.66100	3202.00000
70.67800	3327.00000
70.69500	3255.00000
70.71200	3271.00000
70.72900	3235.00000
70.74600	3346.00000
70.76300	3328.00000
70.78000	3169.00000
70.79700	3259.00000
70.81400	3229.00000
70.83100	3275.00000
70.84800	3223.00000
70.86500	3264.00000
70.88200	3312.00000
70.89900	3190.00000
70.91600	3212.00000
70.93300	3324.00000
70.95000	3293.00000
70.96700	3315.00000
70.98400	3239.00000
71.00100	3288.00000
71.01800	3340.00000
71.03500	3261.00000
71.05200	3263.00000
71.06900	3258.00000
71.08600	3252.00000
71.10300	3261.00000
71.12000	3287.00000
71.13700	3285.00000
71.15400	3280.00000
71.17100	3309.00000
71.18800	3282.00000
71.20500	3278.00000
71.22200	3195.00000
71.23900	3192.00000
71.25600	3331.00000
71.27300	3319.00000
71.29000	3270.00000
71.30700	3284.00000
71.32400	3234.00000
71.34100	3312.00000
71.35800	3233.00000
71.37500	3226.00000
71.39200	3239.00000
71.40900	3219.00000
71.42600	3304.00000
71.44300	3223.00000
71.46000	3220.00000
71.47700	3263.00000
71.49400	3278.00000
71.51100	3314.00000
71.52800	3355.00000
71.54500	3236.00000
71.56200	3258.00000
71.57900	3221.00000
71.59600	3259.00000
71.61300	3205.00000
71.63000	3217.00000
71.64700	3128.00000
71.66400	3213.00000
71.68100	3186.00000
71.69800	3283.00000
71.71500	3278.00000
71.73200	3248.00000
71.74900	3290.00000
71.76600	3398.00000
71.78300	3351.00000
71.80000	3194.00000
71.81700	3239.00000
71.83400	3301.00000
71.85100	3201.00000
71.86800	3260.00000
71.88500	3154.00000
71.90200	3270.00000
71.91900	3217.00000
71.93600	3390.00000
71.95300	3243.00000
71.97000	3333.00000
71.98700	3276.00000
72.00400	3271.00000
72.02100	3235.00000
72.03800	3157.00000
72.05500	3157.00000
72.07200	3203.00000
72.08900	3264.00000
72.10600	3263.00000
72.12300	3276.00000
72.14000	3331.00000
72.15700	3183.00000
72.17400	3118.00000
72.19100	3177.00000
72.20800	3268.00000
72.22500	3346.00000
72.24200	3263.00000
72.25900	3247.00000
72.27600	3300.00000
72.29300	3238.00000
72.31000	3258.00000
72.32700	3223.00000
72.34400	3231.00000
72.36100	3204.00000
72.37800	3298.00000
72.39500	3248.00000
72.41200	3283.00000
72.42900	3235.00000
72.44600	3224.00000
72.46300	3268.00000
72.48000	3278.00000
72.49700	3335.00000
72.51400	3276.00000
72.53100	3317.00000
72.54800	3171.00000
72.56500	3367.00000
72.58200	3311.00000
72.59900	3205.00000
72.61600	3216.00000
72.63300	3161.00000
72.65000	3210.00000
72.66700	3194.00000
72.68400	3220.00000
72.70100	3142.00000
72.71800	3302.00000
72.73500	3273.00000
72.75200	3348.00000
72.76900	3384.00000
72.78600	3195.00000
72.80300	3304.00000
72.82000	3265.00000
72.83700	3242.00000
72.85400	3266.00000
72.87100	3312.00000
72.88800	3369.00000
72.90500	3299.00000
72.92200	3296.00000
72.93900	3279.00000
72.95600	3338.00000
72.97300	3284.00000
72.99000	3350.00000
73.00700	3259.00000
73.02400	3246.00000
73.04100	3309.00000
73.05800	3301.00000
73.07500	3320.00000
73.09200	3262.00000
73.10900	3205.00000
73.12600	3195.00000
73.14300	3274.00000
73.16000	3298.00000
73.17700	3266.00000
73.19400	3290.00000
73.21100	3229.00000
73.22800	3265.00000
73.24500	3248.00000
73.26200	3211.00000
73.27900	3222.00000
73.29600	3263.00000
73.31300	3220.00000
73.33000	3125.00000
73.34700	3203.00000
73.36400	3239.00000
73.38100	3186.00000
73.39800	3271.00000
73.41500	3267.00000
73.43200	3417.00000
73.44900	3249.00000
73.46600	3358.00000
73.48300	3386.00000
73.50000	3268.00000
73.51700	3193.00000
73.53400	3235.00000
73.55100	3206.00000
73.56800	3358.00000
73.58500	3297.00000
73.60200	3286.00000
73.61900	3322.00000
73.63600	3352.00000
73.65300	3363.00000
73.67000	3264.00000
73.68700	3375.00000
73.70400	3251.00000
73.72100	3229.00000
73.73800	3232.00000
73.75500	3288.00000
73.77200	3262.00000
73.78900	3320.00000
73.80600	3212.00000
73.82300	3350.00000
73.84000	3232.00000
73.85700	3315.00000
73.87400	3211.00000
73.89100	3204.00000
73.90800	3371.00000
73.92500	3239.00000
73.94200	3269.00000
73.95900	3363.00000
73.97600	3345.00000
73.99300	3415.00000
74.01000	3244.00000
74.02700	3240.00000
74.04400	3298.00000
74.06100	3219.00000
74.07800	3301.00000
74.09500	3255.00000
74.11200	3264.00000
74.12900	3269.00000
74.14600	3256.00000
74.16300	3237.00000
74.18000	3316.00000
74.19700	3239.00000
74.21400	3200.00000
74.23100	3259.00000
74.24800	3235.00000
74.26500	3215.00000
74.28200	3221.00000
74.29900	3205.00000
74.31600	3166.00000
74.33300	3158.00000
74.35000	3118.00000
74.36700	3172.00000
74.38400	3278.00000
74.40100	3262.00000
74.41800	3254.00000
74.43500	3177.00000
74.45200	3206.00000
74.46900	3312.00000
74.48600	3404.00000
74.50300	3211.00000
74.52000	3219.00000
74.53700	3233.00000
74.55400	3341.00000
74.57100	3261.00000
74.58800	3186.00000
74.60500	3298.00000
74.62200	3187.00000
74.63900	3166.00000
74.65600	3189.00000
74.67300	3211.00000
74.69000	3216.00000
74.70700	3186.00000
74.72400	3348.00000
74.74100	3159.00000
74.75800	3153.00000
74.77500	3224.00000
74.79200	3153.00000
74.80900	3211.00000
74.82600	3208.00000
74.84300	3201.00000
74.86000	3281.00000
74.87700	3209.00000
74.89400	3182.00000
