1.00840	2781.00000
1.02511	2869.00000
1.04182	2800.00000
1.05853	2944.00000
1.07524	2871.00000
1.09195	2882.00000
1.10867	3052.00000
1.12538	2997.00000
1.14209	2961.00000
1.15880	3046.00000
1.17551	2974.00000
1.19222	2953.00000
1.20893	3023.00000
1.22564	3058.00000
1.24235	3022.00000
1.25906	2984.00000
1.27578	2964.00000
1.29249	2896.00000
1.30920	2858.00000
1.32591	2849.00000
1.34262	2857.00000
1.35933	2838.00000
1.37604	2780.00000
1.39275	2802.00000
1.40946	2763.00000
1.42617	2801.00000
1.44289	2786.00000
1.45960	2777.00000
1.47631	2708.00000
1.49302	2664.00000
1.50973	2670.00000
1.52644	2712.00000
1.54315	2558.00000
1.55986	2657.00000
1.57657	2472.00000
1.59328	2538.00000
1.61000	2530.00000
1.62671	2489.00000
1.64342	2442.00000
1.66013	2555.00000
1.67684	2514.00000
1.69355	2583.00000
1.71026	2490.00000
1.72697	2403.00000
1.74368	2529.00000
1.76039	2414.00000
1.77711	2350.00000
1.79382	2310.00000
1.81053	2465.00000
1.82724	2483.00000
1.84395	2411.00000
1.86066	2315.00000
1.87737	2394.00000
1.89408	2314.00000
1.91079	2348.00000
1.92750	2322.00000
1.94422	2276.00000
1.96093	2268.00000
1.97764	2376.00000
1.99435	2245.00000
2.01106	2382.00000
2.02777	2332.00000
2.04448	2245.00000
2.06119	2334.00000
2.07790	2286.00000
2.09461	2294.00000
2.11133	2326.00000
2.12804	2237.00000
2.14475	2236.00000
2.16146	2281.00000
2.17817	2315.00000
2.19488	2282.00000
2.21159	2384.00000
2.22830	2260.00000
2.24501	2284.00000
2.26172	2238.00000
2.27844	2325.00000
2.29515	2322.00000
2.31186	2278.00000
2.32857	2202.00000
2.34528	2189.00000
2.36199	2259.00000
2.37870	2151.00000
2.39541	2223.00000
2.41212	2289.00000
2.42883	2136.00000
2.44555	2158.00000
2.46226	2149.00000
2.47897	2190.00000
2.49568	2139.00000
2.51239	2212.00000
2.52910	2199.00000
2.54581	2234.00000
2.56252	2107.00000
2.57923	2238.00000
2.59594	2227.00000
2.61266	2213.00000
2.62937	2204.00000
2.64608	2145.00000
2.66279	2154.00000
2.67950	2196.00000
2.69621	2225.00000
2.71292	2211.00000
2.72963	2209.00000
2.74634	2093.00000
2.76305	2237.00000
2.77977	2158.00000
2.79648	2160.00000
2.81319	2191.00000
2.82990	2248.00000
2.84661	2220.00000
2.86332	2180.00000
2.88003	2112.00000
2.89674	2153.00000
2.91345	2160.00000
2.93016	2248.00000
2.94688	2164.00000
2.96359	2186.00000
2.98030	2199.00000
2.99701	2182.00000
3.01372	2236.00000
3.03043	2230.00000
3.04714	2372.00000
3.06385	2242.00000
3.08056	2295.00000
3.09727	2238.00000
3.11399	2293.00000
3.13070	2274.00000
3.14741	2249.00000
3.16412	2290.00000
3.18083	2342.00000
3.19754	2395.00000
3.21425	2431.00000
3.23096	2444.00000
3.24767	2519.00000
3.26438	2523.00000
3.28110	2603.00000
3.29781	2646.00000
3.31452	2631.00000
3.33123	2671.00000
3.34794	2753.00000
3.36465	2912.00000
3.38136	2927.00000
3.39807	3113.00000
3.41478	3136.00000
3.43149	3235.00000
3.44821	3276.00000
3.46492	3713.00000
3.48163	3770.00000
3.49834	3773.00000
3.51505	4088.00000
3.53176	4318.00000
3.54847	4653.00000
3.56518	4943.00000
3.58189	5213.00000
3.59860	5624.00000
3.61532	6050.00000
3.63203	6382.00000
3.64874	7116.00000
3.66545	7898.00000
3.68216	8805.00000
3.69887	9715.00000
3.71558	10512.00000
3.73229	12124.00000
3.74900	13863.00000
3.76571	15804.00000
3.78243	18408.00000
3.79914	22192.00000
3.81585	27613.00000
3.83256	35804.00000
3.84927	39028.00000
3.86598	32214.00000
3.88269	21112.00000
3.89940	11159.00000
3.91611	5694.00000
3.93282	3936.00000
3.94954	3204.00000
3.96625	3021.00000
3.98296	2702.00000
3.99967	2586.00000
4.01638	2471.00000
4.03309	2294.00000
4.04980	2246.00000
4.06651	2206.00000
4.08322	2191.00000
4.09993	2182.00000
4.11665	2208.00000
4.13336	2121.00000
4.15007	2128.00000
4.16678	2091.00000
4.18349	2182.00000
4.20020	2122.00000
4.21691	2151.00000
4.23362	2047.00000
4.25033	2137.00000
4.26704	2086.00000
4.28376	2120.00000
4.30047	2150.00000
4.31718	2074.00000
4.33389	2036.00000
4.35060	2073.00000
4.36731	2162.00000
4.38402	2104.00000
4.40073	2061.00000
4.41744	1945.00000
4.43415	2040.00000
4.45087	2064.00000
4.46758	2020.00000
4.48429	2022.00000
4.50100	1988.00000
4.51771	2080.00000
4.53442	2092.00000
4.55113	2069.00000
4.56784	2048.00000
4.58455	2004.00000
4.60126	1991.00000
4.61798	2028.00000
4.63469	2089.00000
4.65140	2187.00000
4.66811	2077.00000
4.68482	2033.00000
4.70153	2057.00000
4.71824	2055.00000
4.73495	2018.00000
4.75166	2057.00000
4.76837	2063.00000
4.78509	1988.00000
4.80180	2015.00000
4.81851	2086.00000
4.83522	2025.00000
4.85193	2036.00000
4.86864	2068.00000
4.88535	2037.00000
4.90206	1973.00000
4.91877	2010.00000
4.93548	1988.00000
4.95220	2101.00000
4.96891	2025.00000
4.98562	2028.00000
5.00233	2085.00000
5.01904	2035.00000
5.03575	2159.00000
5.05246	2037.00000
5.06917	2008.00000
5.08588	2045.00000
5.10259	2029.00000
5.11931	2121.00000
5.13602	1982.00000
5.15273	2065.00000
5.16944	2056.00000
5.18615	2005.00000
5.20286	2050.00000
5.21957	2051.00000
5.23628	2107.00000
5.25299	2010.00000
5.26970	2050.00000
5.28642	2056.00000
5.30313	2141.00000
5.31984	2039.00000
5.33655	2108.00000
5.35326	2055.00000
5.36997	2086.00000
5.38668	2030.00000
5.40339	2051.00000
5.42010	2135.00000
5.43681	2138.00000
5.45353	2077.00000
5.47024	2084.00000
5.48695	2057.00000
5.50366	1956.00000
5.52037	2035.00000
5.53708	2073.00000
5.55379	2063.00000
5.57050	2024.00000
5.58721	2106.00000
5.60392	1985.00000
5.62064	2055.00000
5.63735	2133.00000
5.65406	2108.00000
5.67077	2121.00000
5.68748	2072.00000
5.70419	2137.00000
5.72090	2101.00000
5.73761	2131.00000
5.75432	2084.00000
5.77103	2051.00000
5.78775	2126.00000
5.80446	2151.00000
5.82117	2067.00000
5.83788	2105.00000
5.85459	2154.00000
5.87130	2012.00000
5.88801	2107.00000
5.90472	2017.00000
5.92143	2030.00000
5.93814	2100.00000
5.95486	2138.00000
5.97157	2109.00000
5.98828	2090.00000
6.00499	2095.00000
6.02170	2112.00000
6.03841	2114.00000
6.05512	2176.00000
6.07183	2170.00000
6.08854	2153.00000
6.10525	2096.00000
6.12197	2101.00000
6.13868	2021.00000
6.15539	2135.00000
6.17210	2068.00000
6.18881	2144.00000
6.20552	2221.00000
6.22223	2158.00000
6.23894	2107.00000
6.25565	2083.00000
6.27236	2118.00000
6.28908	2081.00000
6.30579	2103.00000
6.32250	2152.00000
6.33921	2183.00000
6.35592	2194.00000
6.37263	2043.00000
6.38934	2135.00000
6.40605	2091.00000
6.42276	2110.00000
6.43947	2229.00000
6.45619	2278.00000
6.47290	2306.00000
6.48961	2296.00000
6.50632	2338.00000
6.52303	2286.00000
6.53974	2321.00000
6.55645	2258.00000
6.57316	2299.00000
6.58987	2336.00000
6.60658	2340.00000
6.62330	2304.00000
6.64001	2375.00000
6.65672	2328.00000
6.67343	2455.00000
6.69014	2443.00000
6.70685	2359.00000
6.72356	2562.00000
6.74027	2621.00000
6.75698	2610.00000
6.77369	2656.00000
6.79041	2701.00000
6.80712	2750.00000
6.82383	2881.00000
6.84054	3077.00000
6.85725	3155.00000
6.87396	3351.00000
6.89067	3418.00000
6.90738	3589.00000
6.92409	3368.00000
6.94080	3248.00000
6.95752	3095.00000
6.97423	2857.00000
6.99094	2792.00000
7.00765	2649.00000
7.02436	2597.00000
7.04107	2493.00000
7.05778	2471.00000
7.07449	2497.00000
7.09120	2519.00000
7.10791	2521.00000
7.12463	2480.00000
7.14134	2564.00000
7.15805	2624.00000
7.17476	2640.00000
7.19147	2669.00000
7.20818	2865.00000
7.22489	2794.00000
7.24160	2960.00000
7.25831	3003.00000
7.27502	3084.00000
7.29174	2943.00000
7.30845	2911.00000
7.32516	2785.00000
7.34187	2754.00000
7.35858	2801.00000
7.37529	2573.00000
7.39200	2566.00000
7.40871	2590.00000
7.42542	2733.00000
7.44213	2684.00000
7.45885	2741.00000
7.47556	2831.00000
7.49227	2844.00000
7.50898	2820.00000
7.52569	2870.00000
7.54240	3059.00000
7.55911	3178.00000
7.57582	3283.00000
7.59253	3545.00000
7.60924	3824.00000
7.62596	3955.00000
7.64267	4473.00000
7.65938	5170.00000
7.67609	6139.00000
7.69280	7128.00000
7.70951	7991.00000
7.72622	7427.00000
7.74293	6375.00000
7.75964	6087.00000
7.77635	5414.00000
7.79307	4638.00000
7.80978	4157.00000
7.82649	3785.00000
7.84320	3442.00000
7.85991	3281.00000
7.87662	3131.00000
7.89333	2973.00000
7.91004	2937.00000
7.92675	2690.00000
7.94346	2714.00000
7.96018	2683.00000
7.97689	2780.00000
7.99360	2671.00000
8.01031	2792.00000
8.02702	2598.00000
8.04373	2642.00000
8.06044	2646.00000
8.07715	2640.00000
8.09386	2719.00000
8.11057	2618.00000
8.12729	2615.00000
8.14400	2629.00000
8.16071	2729.00000
8.17742	2693.00000
8.19413	2741.00000
8.21084	2829.00000
8.22755	2788.00000
8.24426	2804.00000
8.26097	2808.00000
8.27768	2913.00000
8.29440	3042.00000
8.31111	2954.00000
8.32782	3032.00000
8.34453	3117.00000
8.36124	3080.00000
8.37795	3119.00000
8.39466	3293.00000
8.41137	3434.00000
8.42808	3680.00000
8.44479	3675.00000
8.46151	3755.00000
8.47822	3622.00000
8.49493	3399.00000
8.51164	3374.00000
8.52835	3318.00000
8.54506	3194.00000
8.56177	3165.00000
8.57848	3035.00000
8.59519	2963.00000
8.61190	3059.00000
8.62862	3068.00000
8.64533	3026.00000
8.66204	2943.00000
8.67875	3012.00000
8.69546	3075.00000
8.71217	2941.00000
8.72888	3069.00000
8.74559	3059.00000
8.76230	3044.00000
8.77901	3083.00000
8.79573	3091.00000
8.81244	2977.00000
8.82915	3139.00000
8.84586	3135.00000
8.86257	3242.00000
8.87928	3309.00000
8.89599	3330.00000
8.91270	3513.00000
8.92941	3679.00000
8.94612	3857.00000
8.96284	4100.00000
8.97955	3985.00000
8.99626	3844.00000
9.01297	3770.00000
9.02968	3679.00000
9.04639	3521.00000
9.06310	3510.00000
9.07981	3268.00000
9.09652	3154.00000
9.11323	3144.00000
9.12995	3070.00000
9.14666	3130.00000
9.16337	3120.00000
9.18008	3096.00000
9.19679	3119.00000
9.21350	3161.00000
9.23021	3042.00000
9.24692	3020.00000
9.26363	3043.00000
9.28034	2996.00000
9.29706	3058.00000
9.31377	3068.00000
9.33048	3089.00000
9.34719	2978.00000
9.36390	3088.00000
9.38061	3105.00000
9.39732	3246.00000
9.41403	3098.00000
9.43074	3186.00000
9.44745	3207.00000
9.46417	3347.00000
9.48088	3205.00000
9.49759	3255.00000
9.51430	3395.00000
9.53101	3358.00000
9.54772	3468.00000
9.56443	3521.00000
9.58114	3547.00000
9.59785	3686.00000
9.61456	3861.00000
9.63128	4060.00000
9.64799	4405.00000
9.66470	4556.00000
9.68141	4721.00000
9.69812	4884.00000
9.71483	5039.00000
9.73154	5422.00000
9.74825	5831.00000
9.76496	6394.00000
9.78167	7236.00000
9.79839	8367.00000
9.81510	9680.00000
9.83181	10830.00000
9.84852	11422.00000
9.86523	11004.00000
9.88194	9638.00000
9.89865	8624.00000
9.91536	7710.00000
9.93207	6810.00000
9.94878	5653.00000
9.96550	4828.00000
9.98221	4167.00000
9.99892	3877.00000
10.01563	3847.00000
10.03234	3630.00000
10.04905	3710.00000
10.06576	3536.00000
10.08247	3608.00000
10.09918	3506.00000
10.11589	3435.00000
10.13261	3447.00000
10.14932	3474.00000
10.16603	3496.00000
10.18274	3432.00000
10.19945	3481.00000
10.21616	3401.00000
10.23287	3380.00000
10.24958	3459.00000
10.26629	3484.00000
10.28300	3440.00000
10.29972	3538.00000
10.31643	3528.00000
10.33314	3452.00000
10.34985	3498.00000
10.36656	3479.00000
10.38327	3423.00000
10.39998	3531.00000
10.41669	3577.00000
10.43340	3550.00000
10.45011	3519.00000
10.46683	3614.00000
10.48354	3567.00000
10.50025	3469.00000
10.51696	3632.00000
10.53367	3569.00000
10.55038	3576.00000
10.56709	3469.00000
10.58380	3505.00000
10.60051	3630.00000
10.61722	3611.00000
10.63394	3640.00000
10.65065	3644.00000
10.66736	3634.00000
10.68407	3678.00000
10.70078	3535.00000
10.71749	3610.00000
10.73420	3661.00000
10.75091	3666.00000
10.76762	3767.00000
10.78433	3584.00000
10.80105	3754.00000
10.81776	3706.00000
10.83447	3924.00000
10.85118	4037.00000
10.86789	4040.00000
10.88460	4077.00000
10.90131	4064.00000
10.91802	4244.00000
10.93473	4399.00000
10.95144	4506.00000
10.96816	4882.00000
10.98487	5002.00000
11.00158	5029.00000
11.01829	5465.00000
11.03500	6021.00000
11.05171	6542.00000
11.06842	7297.00000
11.08513	8370.00000
11.10184	9897.00000
11.11855	11704.00000
11.13527	14718.00000
11.15198	18274.00000
11.16869	23380.00000
11.18540	27506.00000
11.20211	29009.00000
11.21882	27995.00000
11.23553	27640.00000
11.25224	28352.00000
11.26895	29171.00000
11.28566	28526.00000
11.30238	27517.00000
11.31909	25341.00000
11.33580	22425.00000
11.35251	19029.00000
11.36922	16066.00000
11.38593	14161.00000
11.40264	12519.00000
11.41935	10264.00000
11.43606	7922.00000
11.45277	6921.00000
11.46949	6285.00000
11.48620	6236.00000
11.50291	6101.00000
11.51962	6503.00000
11.53633	6997.00000
11.55304	7955.00000
11.56975	8945.00000
11.58646	9095.00000
11.60317	8317.00000
11.61988	7269.00000
11.63660	6613.00000
11.65331	6477.00000
11.67002	6095.00000
11.68673	5394.00000
11.70344	4658.00000
11.72015	4246.00000
11.73686	3955.00000
11.75357	3859.00000
11.77028	3887.00000
11.78699	3671.00000
11.80371	3759.00000
11.82042	3761.00000
11.83713	3681.00000
11.85384	3715.00000
11.87055	3730.00000
11.88726	3710.00000
11.90397	3628.00000
11.92068	3686.00000
11.93739	3621.00000
11.95410	3631.00000
11.97082	3695.00000
11.98753	3604.00000
12.00424	3675.00000
12.02095	3696.00000
12.03766	3726.00000
12.05437	3630.00000
12.07108	3649.00000
12.08779	3782.00000
12.10450	3926.00000
12.12121	3890.00000
12.13793	3700.00000
12.15464	3758.00000
12.17135	3679.00000
12.18806	3895.00000
12.20477	3743.00000
12.22148	3697.00000
12.23819	3695.00000
12.25490	3862.00000
12.27161	3842.00000
12.28832	3841.00000
12.30504	3812.00000
12.32175	3908.00000
12.33846	3929.00000
12.35517	3805.00000
12.37188	3909.00000
12.38859	3739.00000
12.40530	3825.00000
12.42201	3654.00000
12.43872	3671.00000
12.45543	3750.00000
12.47215	3663.00000
12.48886	3531.00000
12.50557	3597.00000
12.52228	3630.00000
12.53899	3490.00000
12.55570	3548.00000
12.57241	3555.00000
12.58912	3613.00000
12.60583	3444.00000
12.62254	3446.00000
12.63926	3611.00000
12.65597	3423.00000
12.67268	3529.00000
12.68939	3488.00000
12.70610	3443.00000
12.72281	3510.00000
12.73952	3513.00000
12.75623	3480.00000
12.77294	3545.00000
12.78965	3589.00000
12.80637	3575.00000
12.82308	3594.00000
12.83979	3531.00000
12.85650	3630.00000
12.87321	3482.00000
12.88992	3543.00000
12.90663	3542.00000
12.92334	3458.00000
12.94005	3501.00000
12.95676	3638.00000
12.97348	3433.00000
12.99019	3438.00000
13.00690	3551.00000
13.02361	3536.00000
13.04032	3456.00000
13.05703	3500.00000
13.07374	3534.00000
13.09045	3579.00000
13.10716	3551.00000
13.12387	3540.00000
13.14059	3682.00000
13.15730	3562.00000
13.17401	3618.00000
13.19072	3750.00000
13.20743	3868.00000
13.22414	3859.00000
13.24085	3982.00000
13.25756	4150.00000
13.27427	4201.00000
13.29098	4329.00000
13.30770	4254.00000
13.32441	4390.00000
13.34112	4491.00000
13.35783	4542.00000
13.37454	4646.00000
13.39125	4680.00000
13.40796	4629.00000
13.42467	4522.00000
13.44138	4416.00000
13.45809	4373.00000
13.47481	4508.00000
13.49152	4306.00000
13.50823	4289.00000
13.52494	4295.00000
13.54165	4329.00000
13.55836	4354.00000
13.57507	4400.00000
13.59178	4581.00000
13.60849	4684.00000
13.62520	5138.00000
13.64192	5211.00000
13.65863	5514.00000
13.67534	5978.00000
13.69205	6337.00000
13.70876	6667.00000
13.72547	6869.00000
13.74218	7292.00000
13.75889	7925.00000
13.77560	8294.00000
13.79231	9028.00000
13.80903	9565.00000
13.82574	10216.00000
13.84245	10661.00000
13.85916	10624.00000
13.87587	10003.00000
13.89258	9431.00000
13.90929	8996.00000
13.92600	8852.00000
13.94271	8381.00000
13.95942	7847.00000
13.97614	7649.00000
13.99285	7016.00000
14.00956	6876.00000
14.02627	6940.00000
14.04298	7122.00000
14.05969	7506.00000
14.07640	7963.00000
14.09311	8628.00000
14.10982	9866.00000
14.12653	11310.00000
14.14325	12678.00000
14.15996	13924.00000
14.17667	13907.00000
14.19338	13606.00000
14.21009	12873.00000
14.22680	13421.00000
14.24351	14489.00000
14.26022	15512.00000
14.27693	15538.00000
14.29364	13798.00000
14.31036	12332.00000
14.32707	10785.00000
14.34378	10107.00000
14.36049	9710.00000
14.37720	9416.00000
14.39391	8673.00000
14.41062	7681.00000
14.42733	7043.00000
14.44404	6655.00000
14.46075	6590.00000
14.47747	6557.00000
14.49418	6706.00000
14.51089	7101.00000
14.52760	7532.00000
14.54431	8319.00000
14.56102	8791.00000
14.57773	9304.00000
14.59444	9169.00000
14.61115	9062.00000
14.62786	8923.00000
14.64458	8661.00000
14.66129	8593.00000
14.67800	8632.00000
14.69471	8394.00000
14.71142	8255.00000
14.72813	8292.00000
14.74484	7994.00000
14.76155	8374.00000
14.77826	8213.00000
14.79497	7773.00000
14.81169	7515.00000
14.82840	7087.00000
14.84511	6833.00000
14.86182	6407.00000
14.87853	6225.00000
14.89524	5861.00000
14.91195	5680.00000
14.92866	5372.00000
14.94537	5265.00000
14.96208	4937.00000
14.97880	4931.00000
14.99551	4924.00000
15.01222	4764.00000
15.02893	4872.00000
15.04564	4798.00000
15.06235	5038.00000
15.07906	5313.00000
15.09577	5629.00000
15.11248	5744.00000
15.12919	6177.00000
15.14591	6448.00000
15.16262	6878.00000
15.17933	6817.00000
15.19604	6796.00000
15.21275	7060.00000
15.22946	7041.00000
15.24617	7574.00000
15.26288	8068.00000
15.27959	8557.00000
15.29630	9132.00000
15.31302	9889.00000
15.32973	10962.00000
15.34644	11546.00000
15.36315	11792.00000
15.37986	11311.00000
15.39657	10676.00000
15.41328	10087.00000
15.42999	9848.00000
15.44670	9832.00000
15.46341	9419.00000
15.48013	9088.00000
15.49684	8701.00000
15.51355	8564.00000
15.53026	8654.00000
15.54697	9193.00000
15.56368	9770.00000
15.58039	10146.00000
15.59710	10459.00000
15.61381	10929.00000
15.63052	11462.00000
15.64724	12141.00000
15.66395	12147.00000
15.68066	11802.00000
15.69737	10587.00000
15.71408	9800.00000
15.73079	9204.00000
15.74750	8706.00000
15.76421	8335.00000
15.78092	7667.00000
15.79763	6669.00000
15.81435	5977.00000
15.83106	5510.00000
15.84777	5122.00000
15.86448	4739.00000
15.88119	4484.00000
15.89790	4145.00000
15.91461	4224.00000
15.93132	4125.00000
15.94803	3970.00000
15.96474	3799.00000
15.98146	3840.00000
15.99817	3811.00000
16.01488	3758.00000
16.03159	3711.00000
16.04830	3720.00000
16.06501	3692.00000
16.08172	3591.00000
16.09843	3631.00000
16.11514	3645.00000
16.13185	3578.00000
16.14857	3689.00000
16.16528	3701.00000
16.18199	3659.00000
16.19870	3762.00000
16.21541	3848.00000
16.23212	3927.00000
16.24883	4044.00000
16.26554	4310.00000
16.28225	4468.00000
16.29896	4586.00000
16.31568	4669.00000
16.33239	4567.00000
16.34910	4389.00000
16.36581	4303.00000
16.38252	4195.00000
16.39923	4160.00000
16.41594	4128.00000
16.43265	4080.00000
16.44936	3967.00000
16.46607	3943.00000
16.48279	3916.00000
16.49950	3926.00000
16.51621	3816.00000
16.53292	3869.00000
16.54963	4057.00000
16.56634	4035.00000
16.58305	4207.00000
16.59976	4263.00000
16.61647	4508.00000
16.63318	4635.00000
16.64990	4954.00000
16.66661	5185.00000
16.68332	5694.00000
16.70003	6254.00000
16.71674	6639.00000
16.73345	7086.00000
16.75016	7187.00000
16.76687	6601.00000
16.78358	6433.00000
16.80029	5931.00000
16.81701	5725.00000
16.83372	5820.00000
16.85043	5790.00000
16.86714	5447.00000
16.88385	4945.00000
16.90056	4757.00000
16.91727	4544.00000
16.93398	4338.00000
16.95069	4157.00000
16.96740	4018.00000
16.98412	3881.00000
17.00083	3756.00000
17.01754	3776.00000
17.03425	3645.00000
17.05096	3527.00000
17.06767	3431.00000
17.08438	3408.00000
17.10109	3320.00000
17.11780	3230.00000
17.13451	3237.00000
17.15123	3261.00000
17.16794	3215.00000
17.18465	3019.00000
17.20136	3093.00000
17.21807	3168.00000
17.23478	3016.00000
17.25149	3126.00000
17.26820	3108.00000
17.28491	3080.00000
17.30162	3167.00000
17.31834	3186.00000
17.33505	3108.00000
17.35176	3207.00000
17.36847	3259.00000
17.38518	3281.00000
17.40189	3168.00000
17.41860	3544.00000
17.43531	3876.00000
17.45202	4522.00000
17.46873	5453.00000
17.48545	6761.00000
17.50216	8201.00000
17.51887	8722.00000
17.53558	7932.00000
17.55229	6486.00000
17.56900	5312.00000
17.58571	4945.00000
17.60242	5248.00000
17.61913	5722.00000
17.63584	5802.00000
17.65256	5066.00000
17.66927	4431.00000
17.68598	3611.00000
17.70269	3215.00000
17.71940	3065.00000
17.73611	3048.00000
17.75282	2899.00000
17.76953	2864.00000
17.78624	2910.00000
17.80295	2952.00000
17.81967	2840.00000
17.83638	2880.00000
17.85309	2920.00000
17.86980	2955.00000
17.88651	2940.00000
17.90322	2972.00000
17.91993	3054.00000
17.93664	2993.00000
17.95335	3188.00000
17.97006	3295.00000
17.98678	3500.00000
18.00349	3458.00000
18.02020	3550.00000
18.03691	3709.00000
18.05362	3608.00000
18.07033	3607.00000
18.08704	3571.00000
18.10375	3766.00000
18.12046	3836.00000
18.13717	3811.00000
18.15389	3772.00000
18.17060	3546.00000
18.18731	3565.00000
18.20402	3468.00000
18.22073	3423.00000
18.23744	3598.00000
18.25415	3648.00000
18.27086	3703.00000
18.28757	3947.00000
18.30428	4298.00000
18.32100	4733.00000
18.33771	5148.00000
18.35442	5472.00000
18.37113	5581.00000
18.38784	5453.00000
18.40455	5208.00000
18.42126	4802.00000
18.43797	4443.00000
18.45468	4222.00000
18.47139	4326.00000
18.48811	4207.00000
18.50482	4080.00000
18.52153	3875.00000
18.53824	3513.00000
18.55495	3259.00000
18.57166	3051.00000
18.58837	2952.00000
18.60508	2929.00000
18.62179	2822.00000
18.63850	2946.00000
18.65522	2910.00000
18.67193	2913.00000
18.68864	2906.00000
18.70535	2963.00000
18.72206	2921.00000
18.73877	2904.00000
18.75548	2857.00000
18.77219	2894.00000
18.78890	2797.00000
18.80561	2870.00000
18.82233	2765.00000
18.83904	2935.00000
18.85575	2854.00000
18.87246	2853.00000
18.88917	2936.00000
18.90588	2870.00000
18.92259	2941.00000
18.93930	2931.00000
18.95601	2947.00000
18.97272	3108.00000
18.98944	3278.00000
19.00615	3234.00000
19.02286	3217.00000
19.03957	3172.00000
19.05628	3149.00000
19.07299	3127.00000
19.08970	3169.00000
19.10641	3144.00000
19.12312	3207.00000
19.13983	3179.00000
19.15655	3046.00000
19.17326	3034.00000
19.18997	3264.00000
19.20668	3248.00000
19.22339	3383.00000
19.24010	3534.00000
19.25681	3958.00000
19.27352	4570.00000
19.29023	5263.00000
19.30694	6287.00000
19.32366	7929.00000
19.34037	9644.00000
19.35708	11251.00000
19.37379	11742.00000
19.39050	11178.00000
19.40721	9792.00000
19.42392	8397.00000
19.44063	7849.00000
19.45734	7601.00000
19.47405	7923.00000
19.49077	8281.00000
19.50748	8046.00000
19.52419	7325.00000
19.54090	6206.00000
19.55761	5430.00000
19.57432	5126.00000
19.59103	4839.00000
19.60774	4755.00000
19.62445	4671.00000
19.64116	4518.00000
19.65788	4555.00000
19.67459	4600.00000
19.69130	4502.00000
19.70801	4526.00000
19.72472	4726.00000
19.74143	4850.00000
19.75814	5050.00000
19.77485	5094.00000
19.79156	5351.00000
19.80827	5626.00000
19.82499	5893.00000
19.84170	6397.00000
19.85841	6625.00000
19.87512	6747.00000
19.89183	7031.00000
19.90854	7132.00000
19.92525	7014.00000
19.94196	6801.00000
19.95867	6563.00000
19.97538	6435.00000
19.99210	6267.00000
20.00881	6347.00000
20.02552	5904.00000
20.04223	5462.00000
20.05894	5038.00000
20.07565	4703.00000
20.09236	4589.00000
20.10907	4097.00000
20.12578	4002.00000
20.14249	3796.00000
20.15921	3512.00000
20.17592	3468.00000
20.19263	3339.00000
20.20934	3259.00000
20.22605	3260.00000
20.24276	3395.00000
20.25947	3423.00000
20.27618	3390.00000
20.29289	3291.00000
20.30960	3353.00000
20.32632	3325.00000
20.34303	3299.00000
20.35974	3276.00000
20.37645	3282.00000
20.39316	3370.00000
20.40987	3391.00000
20.42658	3290.00000
20.44329	3299.00000
20.46000	3323.00000
20.47671	3098.00000
20.49343	3063.00000
20.51014	2993.00000
20.52685	2827.00000
20.54356	2769.00000
20.56027	2769.00000
20.57698	2753.00000
20.59369	2700.00000
20.61040	2579.00000
20.62711	2486.00000
20.64382	2592.00000
20.66054	2488.00000
20.67725	2441.00000
20.69396	2501.00000
20.71067	2488.00000
20.72738	2404.00000
20.74409	2502.00000
20.76080	2431.00000
20.77751	2526.00000
20.79422	2553.00000
20.81093	2600.00000
20.82765	2448.00000
20.84436	2570.00000
20.86107	2437.00000
20.87778	2412.00000
20.89449	2529.00000
20.91120	2485.00000
20.92791	2537.00000
20.94462	2503.00000
20.96133	2506.00000
20.97804	2337.00000
20.99476	2450.00000
21.01147	2511.00000
21.02818	2507.00000
21.04489	2560.00000
21.06160	2675.00000
21.07831	2636.00000
21.09502	2615.00000
21.11173	2417.00000
21.12844	2581.00000
21.14515	2485.00000
21.16187	2523.00000
21.17858	2469.00000
21.19529	2562.00000
21.21200	2674.00000
21.22871	2633.00000
21.24542	2690.00000
21.26213	2791.00000
21.27884	2812.00000
21.29555	2879.00000
21.31226	2946.00000
21.32898	3087.00000
21.34569	3186.00000
21.36240	3151.00000
21.37911	3158.00000
21.39582	3108.00000
21.41253	3131.00000
21.42924	3172.00000
21.44595	3132.00000
21.46266	3059.00000
21.47937	3109.00000
21.49609	3066.00000
21.51280	2970.00000
21.52951	3053.00000
21.54622	2953.00000
21.56293	2832.00000
21.57964	2848.00000
21.59635	2780.00000
21.61306	2756.00000
21.62977	2774.00000
21.64648	2635.00000
21.66320	2549.00000
21.67991	2516.00000
21.69662	2540.00000
21.71333	2469.00000
21.73004	2480.00000
21.74675	2454.00000
21.76346	2509.00000
21.78017	2576.00000
21.79688	2501.00000
21.81359	2401.00000
21.83031	2516.00000
21.84702	2490.00000
21.86373	2585.00000
21.88044	2676.00000
21.89715	2522.00000
21.91386	2730.00000
21.93057	2703.00000
21.94728	2838.00000
21.96399	2806.00000
21.98070	2707.00000
21.99742	2745.00000
22.01413	2783.00000
22.03084	2843.00000
22.04755	2839.00000
22.06426	2971.00000
22.08097	2917.00000
22.09768	2845.00000
22.11439	2830.00000
22.13110	2814.00000
22.14781	2733.00000
22.16453	2763.00000
22.18124	2697.00000
22.19795	2905.00000
22.21466	2689.00000
22.23137	2698.00000
22.24808	2765.00000
22.26479	2790.00000
22.28150	2626.00000
22.29821	2628.00000
22.31492	2786.00000
22.33164	2836.00000
22.34835	2894.00000
22.36506	3060.00000
22.38177	3144.00000
22.39848	3161.00000
22.41519	3236.00000
22.43190	3329.00000
22.44861	3311.00000
22.46532	3324.00000
22.48203	3402.00000
22.49875	3265.00000
22.51546	3224.00000
22.53217	3179.00000
22.54888	3126.00000
22.56559	3148.00000
22.58230	3128.00000
22.59901	3267.00000
22.61572	3131.00000
22.63243	3143.00000
22.64914	3246.00000
22.66586	3185.00000
22.68257	3301.00000
22.69928	3233.00000
22.71599	3344.00000
22.73270	3228.00000
22.74941	3382.00000
22.76612	3340.00000
22.78283	3317.00000
22.79954	3250.00000
22.81625	3190.00000
22.83297	3170.00000
22.84968	2887.00000
22.86639	2860.00000
22.88310	2804.00000
22.89981	2900.00000
22.91652	2755.00000
22.93323	2700.00000
22.94994	2719.00000
22.96665	2720.00000
22.98336	2737.00000
23.00008	2491.00000
23.01679	2518.00000
23.03350	2572.00000
23.05021	2581.00000
23.06692	2598.00000
23.08363	2560.00000
23.10034	2674.00000
23.11705	2696.00000
23.13376	2695.00000
23.15047	2811.00000
23.16719	2833.00000
23.18390	2967.00000
23.20061	3006.00000
23.21732	3076.00000
23.23403	3034.00000
23.25074	3269.00000
23.26745	3348.00000
23.28416	3408.00000
23.30087	3361.00000
23.31758	3346.00000
23.33430	3283.00000
23.35101	3050.00000
23.36772	3003.00000
23.38443	2903.00000
23.40114	2843.00000
23.41785	2810.00000
23.43456	2882.00000
23.45127	2747.00000
23.46798	2705.00000
23.48469	2702.00000
23.50141	2624.00000
23.51812	2519.00000
23.53483	2406.00000
23.55154	2463.00000
23.56825	2426.00000
23.58496	2492.00000
23.60167	2518.00000
23.61838	2588.00000
23.63509	2557.00000
23.65180	2596.00000
23.66852	2505.00000
23.68523	2412.00000
23.70194	2634.00000
23.71865	2582.00000
23.73536	2641.00000
23.75207	2577.00000
23.76878	2660.00000
23.78549	2600.00000
23.80220	2589.00000
23.81891	2507.00000
23.83563	2480.00000
23.85234	2504.00000
23.86905	2625.00000
23.88576	2515.00000
23.90247	2460.00000
23.91918	2384.00000
23.93589	2486.00000
23.95260	2476.00000
23.96931	2372.00000
23.98602	2517.00000
24.00274	2433.00000
24.01945	2368.00000
24.03616	2367.00000
24.05287	2305.00000
24.06958	2386.00000
24.08629	2304.00000
24.10300	2249.00000
24.11971	2338.00000
24.13642	2323.00000
24.15313	2381.00000
24.16985	2404.00000
24.18656	2337.00000
24.20327	2388.00000
24.21998	2483.00000
24.23669	2368.00000
24.25340	2320.00000
24.27011	2317.00000
24.28682	2262.00000
24.30353	2305.00000
24.32024	2336.00000
24.33696	2180.00000
24.35367	2342.00000
24.37038	2236.00000
24.38709	2206.00000
24.40380	2365.00000
24.42051	2157.00000
24.43722	2305.00000
24.45393	2312.00000
24.47064	2348.00000
24.48735	2350.00000
24.50407	2382.00000
24.52078	2418.00000
24.53749	2442.00000
24.55420	2415.00000
24.57091	2467.00000
24.58762	2367.00000
24.60433	2476.00000
24.62104	2486.00000
24.63775	2444.00000
24.65446	2558.00000
24.67118	2618.00000
24.68789	2639.00000
24.70460	2704.00000
24.72131	2711.00000
24.73802	2615.00000
24.75473	2658.00000
24.77144	2640.00000
24.78815	2631.00000
24.80486	2571.00000
24.82157	2618.00000
24.83829	2579.00000
24.85500	2605.00000
24.87171	2525.00000
24.88842	2481.00000
24.90513	2451.00000
24.92184	2337.00000
24.93855	2357.00000
24.95526	2420.00000
24.97197	2362.00000
24.98868	2402.00000
25.00540	2443.00000
25.02211	2530.00000
25.03882	2331.00000
25.05553	2278.00000
25.07224	2349.00000
25.08895	2272.00000
25.10566	2320.00000
25.12237	2388.00000
25.13908	2216.00000
25.15579	2274.00000
25.17251	2304.00000
25.18922	2299.00000
25.20593	2274.00000
25.22264	2337.00000
25.23935	2343.00000
25.25606	2373.00000
25.27277	2407.00000
25.28948	2409.00000
25.30619	2448.00000
25.32290	2487.00000
25.33962	2469.00000
25.35633	2505.00000
25.37304	2544.00000
25.38975	2563.00000
25.40646	2560.00000
25.42317	2536.00000
25.43988	2641.00000
25.45659	2615.00000
25.47330	2501.00000
25.49001	2415.00000
25.50673	2440.00000
25.52344	2565.00000
25.54015	2542.00000
25.55686	2549.00000
25.57357	2573.00000
25.59028	2571.00000
25.60699	2571.00000
25.62370	2571.00000
25.64041	2576.00000
25.65712	2509.00000
25.67384	2494.00000
25.69055	2543.00000
25.70726	2395.00000
25.72397	2319.00000
25.74068	2522.00000
25.75739	2362.00000
25.77410	2384.00000
25.79081	2494.00000
25.80752	2370.00000
25.82423	2496.00000
25.84095	2474.00000
25.85766	2477.00000
25.87437	2524.00000
25.89108	2584.00000
25.90779	2667.00000
25.92450	2804.00000
25.94121	2901.00000
25.95792	2877.00000
25.97463	2851.00000
25.99134	3007.00000
26.00806	2936.00000
26.02477	2992.00000
26.04148	2919.00000
26.05819	2796.00000
26.07490	2935.00000
26.09161	2994.00000
26.10832	3051.00000
26.12503	3126.00000
26.14174	3075.00000
26.15845	3178.00000
26.17517	3219.00000
26.19188	3318.00000
26.20859	3365.00000
26.22530	3308.00000
26.24201	3352.00000
26.25872	3569.00000
26.27543	3525.00000
26.29214	3492.00000
26.30885	3384.00000
26.32556	3320.00000
26.34228	3287.00000
26.35899	3393.00000
26.37570	3440.00000
26.39241	3558.00000
26.40912	3862.00000
26.42583	3978.00000
26.44254	3939.00000
26.45925	3866.00000
26.47596	3682.00000
26.49267	3431.00000
26.50939	3223.00000
26.52610	3134.00000
26.54281	3126.00000
26.55952	3147.00000
26.57623	3184.00000
26.59294	3307.00000
26.60965	3118.00000
26.62636	3118.00000
26.64307	3067.00000
26.65978	2902.00000
26.67650	2881.00000
26.69321	2780.00000
26.70992	2854.00000
26.72663	2810.00000
26.74334	2713.00000
26.76005	2724.00000
26.77676	2861.00000
26.79347	2742.00000
26.81018	2825.00000
26.82689	2866.00000
26.84361	2831.00000
26.86032	2746.00000
26.87703	2745.00000
26.89374	2777.00000
26.91045	2771.00000
26.92716	2739.00000
26.94387	2774.00000
26.96058	2752.00000
26.97729	2764.00000
26.99400	2879.00000
27.01072	2759.00000
27.02743	2788.00000
27.04414	2716.00000
27.06085	2730.00000
27.07756	2797.00000
27.09427	2693.00000
27.11098	2770.00000
27.12769	2652.00000
27.14440	2658.00000
27.16111	2668.00000
27.17783	2632.00000
27.19454	2782.00000
27.21125	2646.00000
27.22796	2664.00000
27.24467	2704.00000
27.26138	2751.00000
27.27809	2731.00000
27.29480	2668.00000
27.31151	2700.00000
27.32822	2650.00000
27.34494	2721.00000
27.36165	2652.00000
27.37836	2603.00000
27.39507	2735.00000
27.41178	2587.00000
27.42849	2511.00000
27.44520	2621.00000
27.46191	2638.00000
27.47862	2580.00000
27.49533	2651.00000
27.51205	2581.00000
27.52876	2571.00000
27.54547	2547.00000
27.56218	2519.00000
27.57889	2560.00000
27.59560	2555.00000
27.61231	2585.00000
27.62902	2682.00000
27.64573	2680.00000
27.66244	2707.00000
27.67916	2750.00000
27.69587	2829.00000
27.71258	2900.00000
27.72929	2882.00000
27.74600	2812.00000
27.76271	2957.00000
27.77942	3030.00000
27.79613	3088.00000
27.81284	3136.00000
27.82955	3314.00000
27.84627	3396.00000
27.86298	3321.00000
27.87969	3465.00000
27.89640	3333.00000
27.91311	3265.00000
27.92982	3202.00000
27.94653	3254.00000
27.96324	3181.00000
27.97995	3186.00000
27.99666	3021.00000
28.01338	3091.00000
28.03009	3082.00000
28.04680	3097.00000
28.06351	2943.00000
28.08022	2904.00000
28.09693	2961.00000
28.11364	2898.00000
28.13035	2843.00000
28.14706	2805.00000
28.16377	2805.00000
28.18049	2700.00000
28.19720	2668.00000
28.21391	2674.00000
28.23062	2778.00000
28.24733	2595.00000
28.26404	2544.00000
28.28075	2660.00000
28.29746	2531.00000
28.31417	2542.00000
28.33088	2584.00000
28.34760	2511.00000
28.36431	2635.00000
28.38102	2574.00000
28.39773	2541.00000
28.41444	2509.00000
28.43115	2638.00000
28.44786	2634.00000
28.46457	2500.00000
28.48128	2548.00000
28.49799	2664.00000
28.51471	2637.00000
28.53142	2671.00000
28.54813	2798.00000
28.56484	2688.00000
28.58155	2652.00000
28.59826	2664.00000
28.61497	2714.00000
28.63168	2619.00000
28.64839	2582.00000
28.66510	2496.00000
28.68182	2530.00000
28.69853	2585.00000
28.71524	2546.00000
28.73195	2465.00000
28.74866	2409.00000
28.76537	2556.00000
28.78208	2562.00000
28.79879	2378.00000
28.81550	2395.00000
28.83221	2368.00000
28.84893	2367.00000
28.86564	2265.00000
28.88235	2335.00000
28.89906	2307.00000
28.91577	2369.00000
28.93248	2376.00000
28.94919	2208.00000
28.96590	2344.00000
28.98261	2266.00000
28.99932	2348.00000
29.01604	2242.00000
29.03275	2303.00000
29.04946	2216.00000
29.06617	2237.00000
29.08288	2102.00000
29.09959	2251.00000
29.11630	2209.00000
29.13301	2169.00000
29.14972	2177.00000
29.16643	2218.00000
29.18315	2224.00000
29.19986	2209.00000
29.21657	2130.00000
29.23328	2203.00000
29.24999	2150.00000
29.26670	2168.00000
29.28341	2193.00000
29.30012	2202.00000
29.31683	2146.00000
29.33354	2265.00000
29.35026	2244.00000
29.36697	2227.00000
29.38368	2195.00000
29.40039	2265.00000
29.41710	2298.00000
29.43381	2182.00000
29.45052	2230.00000
29.46723	2296.00000
29.48394	2328.00000
29.50065	2251.00000
29.51737	2258.00000
29.53408	2353.00000
29.55079	2343.00000
29.56750	2384.00000
29.58421	2329.00000
29.60092	2277.00000
29.61763	2482.00000
29.63434	2573.00000
29.65105	2494.00000
29.66776	2485.00000
29.68448	2468.00000
29.70119	2618.00000
29.71790	2564.00000
29.73461	2533.00000
29.75132	2651.00000
29.76803	2659.00000
29.78474	2737.00000
29.80145	2586.00000
29.81816	2582.00000
29.83487	2540.00000
29.85159	2488.00000
29.86830	2684.00000
29.88501	2689.00000
29.90172	2619.00000
29.91843	2658.00000
29.93514	2648.00000
29.95185	2596.00000
29.96856	2645.00000
29.98527	2550.00000
30.00198	2482.00000
30.01870	2517.00000
30.03541	2452.00000
30.05212	2436.00000
30.06883	2510.00000
30.08554	2487.00000
30.10225	2375.00000
30.11896	2449.00000
30.13567	2411.00000
30.15238	2352.00000
30.16909	2325.00000
30.18581	2244.00000
30.20252	2209.00000
30.21923	2291.00000
30.23594	2326.00000
30.25265	2292.00000
30.26936	2417.00000
30.28607	2405.00000
30.30278	2401.00000
30.31949	2397.00000
30.33620	2290.00000
30.35292	2263.00000
30.36963	2219.00000
30.38634	2302.00000
30.40305	2220.00000
30.41976	2225.00000
30.43647	2285.00000
30.45318	2186.00000
30.46989	2275.00000
30.48660	2288.00000
30.50331	2183.00000
30.52003	2254.00000
30.53674	2189.00000
30.55345	2242.00000
30.57016	2190.00000
30.58687	2129.00000
30.60358	2190.00000
30.62029	2293.00000
30.63700	2171.00000
30.65371	2232.00000
30.67042	2258.00000
30.68714	2392.00000
30.70385	2317.00000
30.72056	2285.00000
30.73727	2362.00000
30.75398	2411.00000
30.77069	2511.00000
30.78740	2601.00000
30.80411	2465.00000
30.82082	2636.00000
30.83753	2543.00000
30.85425	2556.00000
30.87096	2620.00000
30.88767	2660.00000
30.90438	2597.00000
30.92109	2557.00000
30.93780	2628.00000
30.95451	2648.00000
30.97122	2600.00000
30.98793	2664.00000
31.00464	2642.00000
31.02136	2720.00000
31.03807	2628.00000
31.05478	2634.00000
31.07149	2580.00000
31.08820	2526.00000
31.10491	2711.00000
31.12162	2678.00000
31.13833	2546.00000
31.15504	2688.00000
31.17175	2649.00000
31.18847	2554.00000
31.20518	2552.00000
31.22189	2574.00000
31.23860	2486.00000
31.25531	2408.00000
31.27202	2386.00000
31.28873	2475.00000
31.30544	2423.00000
31.32215	2340.00000
31.33886	2338.00000
31.35558	2386.00000
31.37229	2391.00000
31.38900	2422.00000
31.40571	2448.00000
31.42242	2500.00000
31.43913	2569.00000
31.45584	2523.00000
31.47255	2739.00000
31.48926	2686.00000
31.50597	2834.00000
31.52269	2746.00000
31.53940	2742.00000
31.55611	2616.00000
31.57282	2583.00000
31.58953	2478.00000
31.60624	2468.00000
31.62295	2422.00000
31.63966	2251.00000
31.65637	2387.00000
31.67308	2459.00000
31.68980	2524.00000
31.70651	2506.00000
31.72322	2589.00000
31.73993	2481.00000
31.75664	2457.00000
31.77335	2457.00000
31.79006	2342.00000
31.80677	2327.00000
31.82348	2296.00000
31.84019	2241.00000
31.85691	2178.00000
31.87362	2288.00000
31.89033	2065.00000
31.90704	2150.00000
31.92375	2167.00000
31.94046	2217.00000
31.95717	2067.00000
31.97388	2145.00000
31.99059	2039.00000
32.00730	2097.00000
32.02402	2003.00000
32.04073	2089.00000
32.05744	2103.00000
32.07415	2116.00000
32.09086	2038.00000
32.10757	2176.00000
32.12428	2076.00000
32.14099	2126.00000
32.15770	2085.00000
32.17441	2050.00000
32.19113	2154.00000
32.20784	2114.00000
32.22455	2135.00000
32.24126	2134.00000
32.25797	2155.00000
32.27468	2189.00000
32.29139	2229.00000
32.30810	2107.00000
32.32481	2286.00000
32.34152	2206.00000
32.35824	2155.00000
32.37495	2288.00000
32.39166	2107.00000
32.40837	2202.00000
32.42508	2188.00000
32.44179	2168.00000
32.45850	2129.00000
32.47521	2190.00000
32.49192	2110.00000
32.50863	2184.00000
32.52535	2171.00000
32.54206	2152.00000
32.55877	2182.00000
32.57548	1996.00000
32.59219	2124.00000
32.60890	2081.00000
32.62561	2028.00000
32.64232	2195.00000
32.65903	2102.00000
32.67574	2128.00000
32.69246	2093.00000
32.70917	2076.00000
32.72588	2162.00000
32.74259	2027.00000
32.75930	2193.00000
32.77601	2203.00000
32.79272	2157.00000
32.80943	2163.00000
32.82614	2153.00000
32.84285	2138.00000
32.85957	2160.00000
32.87628	2142.00000
32.89299	2153.00000
32.90970	2054.00000
32.92641	2211.00000
32.94312	2138.00000
32.95983	2166.00000
32.97654	2270.00000
32.99325	2257.00000
33.00996	2310.00000
33.02668	2250.00000
33.04339	2324.00000
33.06010	2295.00000
33.07681	2367.00000
33.09352	2238.00000
33.11023	2329.00000
33.12694	2301.00000
33.14365	2348.00000
33.16036	2309.00000
33.17707	2278.00000
33.19379	2338.00000
33.21050	2211.00000
33.22721	2238.00000
33.24392	2259.00000
33.26063	2258.00000
33.27734	2193.00000
33.29405	2199.00000
33.31076	2222.00000
33.32747	2193.00000
33.34418	2162.00000
33.36090	2217.00000
33.37761	2190.00000
33.39432	2185.00000
33.41103	2078.00000
33.42774	2057.00000
33.44445	2150.00000
33.46116	2060.00000
33.47787	2107.00000
33.49458	2071.00000
33.51129	2062.00000
33.52801	2063.00000
33.54472	2138.00000
33.56143	2028.00000
33.57814	1989.00000
33.59485	2036.00000
33.61156	2054.00000
33.62827	2037.00000
33.64498	2011.00000
33.66169	2053.00000
33.67840	1991.00000
33.69512	1977.00000
33.71183	2034.00000
33.72854	2054.00000
33.74525	1992.00000
33.76196	2037.00000
33.77867	2087.00000
33.79538	2183.00000
33.81209	2096.00000
33.82880	2153.00000
33.84551	2058.00000
33.86223	2088.00000
33.87894	2233.00000
33.89565	2174.00000
33.91236	2221.00000
33.92907	2204.00000
33.94578	2262.00000
33.96249	2195.00000
33.97920	2262.00000
33.99591	2260.00000
34.01262	2269.00000
34.02934	2222.00000
34.04605	2358.00000
34.06276	2368.00000
34.07947	2361.00000
34.09618	2293.00000
34.11289	2344.00000
34.12960	2257.00000
34.14631	2343.00000
34.16302	2390.00000
34.17973	2269.00000
34.19645	2210.00000
34.21316	2225.00000
34.22987	2288.00000
34.24658	2316.00000
34.26329	2282.00000
34.28000	2283.00000
34.29671	2354.00000
34.31342	2325.00000
34.33013	2329.00000
34.34684	2284.00000
34.36356	2268.00000
34.38027	2274.00000
34.39698	2185.00000
34.41369	2267.00000
34.43040	2224.00000
34.44711	2133.00000
34.46382	2177.00000
34.48053	2125.00000
34.49724	2096.00000
34.51395	2045.00000
34.53067	2232.00000
34.54738	2137.00000
34.56409	2183.00000
34.58080	2150.00000
34.59751	2190.00000
34.61422	2116.00000
34.63093	2145.00000
34.64764	2143.00000
34.66435	2189.00000
34.68106	2055.00000
34.69778	2152.00000
34.71449	1992.00000
34.73120	2053.00000
34.74791	2110.00000
34.76462	1980.00000
34.78133	2046.00000
34.79804	2048.00000
34.81475	2057.00000
34.83146	2003.00000
34.84817	2036.00000
34.86489	2121.00000
34.88160	2061.00000
34.89831	2029.00000
34.91502	2072.00000
34.93173	2010.00000
34.94844	2034.00000
34.96515	2101.00000
34.98186	2074.00000
34.99857	2105.00000
35.01528	2095.00000
35.03200	2092.00000
35.04871	2003.00000
35.06542	2039.00000
35.08213	2089.00000
35.09884	2021.00000
35.11555	2087.00000
35.13226	2085.00000
35.14897	1998.00000
35.16568	2046.00000
35.18239	2088.00000
35.19911	2003.00000
35.21582	2103.00000
35.23253	2026.00000
35.24924	2046.00000
35.26595	2125.00000
35.28266	2048.00000
35.29937	2096.00000
35.31608	2058.00000
35.33279	2057.00000
35.34950	2072.00000
35.36622	2191.00000
35.38293	2012.00000
35.39964	2104.00000
35.41635	2040.00000
35.43306	2059.00000
35.44977	2123.00000
35.46648	2183.00000
35.48319	2026.00000
35.49990	2097.00000
35.51661	2089.00000
35.53333	2076.00000
35.55004	2009.00000
35.56675	1986.00000
35.58346	1982.00000
35.60017	2047.00000
35.61688	1961.00000
35.63359	1958.00000
35.65030	2020.00000
35.66701	2038.00000
35.68372	1939.00000
35.70044	2010.00000
35.71715	1996.00000
35.73386	1987.00000
35.75057	2025.00000
35.76728	1930.00000
35.78399	1954.00000
35.80070	2000.00000
35.81741	2026.00000
35.83412	1853.00000
35.85083	1845.00000
35.86755	1976.00000
35.88426	1954.00000
35.90097	1902.00000
35.91768	1908.00000
35.93439	1880.00000
35.95110	1992.00000
35.96781	1955.00000
35.98452	1934.00000
36.00123	1976.00000
36.01794	1812.00000
36.03466	1866.00000
36.05137	1895.00000
36.06808	1872.00000
36.08479	1969.00000
36.10150	1924.00000
36.11821	1892.00000
36.13492	1952.00000
36.15163	1901.00000
36.16834	1978.00000
36.18505	1955.00000
36.20177	1952.00000
36.21848	1962.00000
36.23519	1949.00000
36.25190	1972.00000
36.26861	1934.00000
36.28532	1890.00000
36.30203	1908.00000
36.31874	1957.00000
36.33545	1913.00000
36.35216	1789.00000
36.36888	1912.00000
36.38559	1889.00000
36.40230	1863.00000
36.41901	1916.00000
36.43572	1926.00000
36.45243	1904.00000
36.46914	1928.00000
36.48585	1831.00000
36.50256	1907.00000
36.51927	1839.00000
36.53599	1944.00000
36.55270	1978.00000
36.56941	1875.00000
36.58612	1976.00000
36.60283	1856.00000
36.61954	2038.00000
36.63625	1958.00000
36.65296	1940.00000
36.66967	1995.00000
36.68638	1970.00000
36.70310	2059.00000
36.71981	2035.00000
36.73652	1969.00000
36.75323	2059.00000
36.76994	2064.00000
36.78665	2009.00000
36.80336	2078.00000
36.82007	2046.00000
36.83678	2010.00000
36.85349	2010.00000
36.87021	1986.00000
36.88692	1994.00000
36.90363	2017.00000
36.92034	1993.00000
36.93705	1957.00000
36.95376	1979.00000
36.97047	2024.00000
36.98718	2000.00000
37.00389	1911.00000
37.02060	1987.00000
37.03732	1978.00000
37.05403	1916.00000
37.07074	1987.00000
37.08745	1882.00000
37.10416	1918.00000
37.12087	1932.00000
37.13758	1806.00000
37.15429	1858.00000
37.17100	1856.00000
37.18771	1891.00000
37.20443	1782.00000
37.22114	1773.00000
37.23785	1913.00000
37.25456	1746.00000
37.27127	1847.00000
37.28798	1839.00000
37.30469	1873.00000
37.32140	1853.00000
37.33811	1863.00000
37.35482	1906.00000
37.37154	1876.00000
37.38825	1894.00000
37.40496	1881.00000
37.42167	1807.00000
37.43838	1796.00000
37.45509	1796.00000
37.47180	1827.00000
37.48851	1726.00000
37.50522	1762.00000
37.52193	1864.00000
37.53865	1836.00000
37.55536	1789.00000
37.57207	1820.00000
37.58878	1824.00000
37.60549	1797.00000
37.62220	1719.00000
37.63891	1779.00000
37.65562	1750.00000
37.67233	1729.00000
37.68904	1728.00000
37.70576	1696.00000
37.72247	1788.00000
37.73918	1898.00000
37.75589	1850.00000
37.77260	1780.00000
37.78931	1804.00000
37.80602	1837.00000
37.82273	1927.00000
37.83944	1943.00000
37.85615	1987.00000
37.87287	1914.00000
37.88958	1923.00000
37.90629	1948.00000
37.92300	2009.00000
37.93971	1918.00000
37.95642	1987.00000
37.97313	1872.00000
37.98984	1989.00000
38.00655	1951.00000
38.02326	1957.00000
38.03998	1855.00000
38.05669	1792.00000
38.07340	1955.00000
38.09011	1922.00000
38.10682	1948.00000
38.12353	1826.00000
38.14024	1962.00000
38.15695	1800.00000
38.17366	1901.00000
38.19037	1879.00000
38.20709	1929.00000
38.22380	1827.00000
38.24051	1861.00000
38.25722	1819.00000
38.27393	1722.00000
38.29064	1754.00000
38.30735	1784.00000
38.32406	1728.00000
38.34077	1856.00000
38.35748	1869.00000
38.37420	1715.00000
38.39091	1707.00000
38.40762	1725.00000
38.42433	1800.00000
38.44104	1700.00000
38.45775	1684.00000
38.47446	1728.00000
38.49117	1690.00000
38.50788	1764.00000
38.52459	1787.00000
38.54131	1690.00000
38.55802	1723.00000
38.57473	1771.00000
38.59144	1616.00000
38.60815	1713.00000
38.62486	1815.00000
38.64157	1695.00000
38.65828	1765.00000
38.67499	1714.00000
38.69170	1787.00000
38.70842	1703.00000
38.72513	1775.00000
38.74184	1813.00000
38.75855	1758.00000
38.77526	1747.00000
38.79197	1745.00000
38.80868	1723.00000
38.82539	1815.00000
38.84210	1732.00000
38.85881	1740.00000
38.87553	1601.00000
38.89224	1726.00000
38.90895	1736.00000
38.92566	1642.00000
38.94237	1699.00000
38.95908	1585.00000
38.97579	1595.00000
38.99250	1641.00000
39.00921	1694.00000
39.02592	1717.00000
39.04264	1665.00000
39.05935	1703.00000
39.07606	1638.00000
39.09277	1682.00000
39.10948	1664.00000
39.12619	1660.00000
39.14290	1607.00000
39.15961	1700.00000
39.17632	1747.00000
39.19303	1747.00000
39.20975	1663.00000
39.22646	1694.00000
39.24317	1617.00000
39.25988	1720.00000
39.27659	1655.00000
39.29330	1704.00000
39.31001	1691.00000
39.32672	1689.00000
39.34343	1737.00000
39.36014	1673.00000
39.37686	1611.00000
39.39357	1782.00000
39.41028	1711.00000
39.42699	1681.00000
39.44370	1708.00000
39.46041	1670.00000
39.47712	1691.00000
39.49383	1632.00000
39.51054	1728.00000
39.52725	1664.00000
39.54397	1697.00000
39.56068	1671.00000
39.57739	1713.00000
39.59410	1643.00000
39.61081	1722.00000
39.62752	1672.00000
39.64423	1644.00000
39.66094	1700.00000
39.67765	1659.00000
39.69436	1635.00000
39.71108	1648.00000
39.72779	1663.00000
39.74450	1705.00000
39.76121	1697.00000
39.77792	1687.00000
39.79463	1595.00000
39.81134	1643.00000
39.82805	1644.00000
39.84476	1631.00000
39.86147	1626.00000
39.87819	1705.00000
39.89490	1724.00000
39.91161	1585.00000
39.92832	1701.00000
39.94503	1642.00000
39.96174	1618.00000
39.97845	1696.00000
39.99516	1627.00000
40.01187	1695.00000
40.02858	1667.00000
40.04530	1706.00000
40.06201	1653.00000
40.07872	1641.00000
40.09543	1692.00000
40.11214	1498.00000
40.12885	1677.00000
40.14556	1641.00000
40.16227	1711.00000
40.17898	1606.00000
40.19569	1623.00000
40.21241	1561.00000
40.22912	1634.00000
40.24583	1627.00000
40.26254	1680.00000
40.27925	1658.00000
40.29596	1587.00000
40.31267	1682.00000
40.32938	1596.00000
40.34609	1587.00000
40.36280	1688.00000
40.37952	1740.00000
40.39623	1695.00000
40.41294	1688.00000
40.42965	1662.00000
40.44636	1674.00000
40.46307	1690.00000
40.47978	1741.00000
40.49649	1697.00000
40.51320	1662.00000
40.52991	1667.00000
40.54663	1617.00000
40.56334	1578.00000
40.58005	1666.00000
40.59676	1708.00000
40.61347	1767.00000
40.63018	1733.00000
40.64689	1701.00000
40.66360	1657.00000
40.68031	1662.00000
40.69702	1729.00000
40.71374	1644.00000
40.73045	1742.00000
40.74716	1649.00000
40.76387	1647.00000
40.78058	1529.00000
40.79729	1675.00000
40.81400	1679.00000
40.83071	1653.00000
40.84742	1662.00000
40.86413	1670.00000
40.88085	1686.00000
40.89756	1651.00000
40.91427	1704.00000
40.93098	1704.00000
40.94769	1696.00000
40.96440	1660.00000
40.98111	1686.00000
40.99782	1613.00000
41.01453	1695.00000
41.03124	1761.00000
41.04796	1628.00000
41.06467	1632.00000
41.08138	1650.00000
41.09809	1638.00000
41.11480	1637.00000
41.13151	1689.00000
41.14822	1644.00000
41.16493	1689.00000
41.18164	1646.00000
41.19835	1647.00000
41.21507	1662.00000
41.23178	1700.00000
41.24849	1617.00000
41.26520	1629.00000
41.28191	1607.00000
41.29862	1657.00000
41.31533	1629.00000
41.33204	1686.00000
41.34875	1622.00000
41.36546	1625.00000
41.38218	1617.00000
41.39889	1670.00000
41.41560	1676.00000
41.43231	1639.00000
41.44902	1710.00000
41.46573	1711.00000
41.48244	1560.00000
41.49915	1609.00000
41.51586	1627.00000
41.53257	1695.00000
41.54929	1646.00000
41.56600	1623.00000
41.58271	1623.00000
41.59942	1640.00000
41.61613	1581.00000
41.63284	1600.00000
41.64955	1552.00000
41.66626	1565.00000
41.68297	1606.00000
41.69968	1594.00000
41.71640	1567.00000
41.73311	1521.00000
41.74982	1613.00000
41.76653	1535.00000
41.78324	1555.00000
41.79995	1635.00000
41.81666	1525.00000
41.83337	1542.00000
41.85008	1552.00000
41.86679	1630.00000
41.88351	1572.00000
41.90022	1533.00000
41.91693	1465.00000
41.93364	1558.00000
41.95035	1544.00000
41.96706	1532.00000
41.98377	1540.00000
42.00048	1521.00000
42.01719	1460.00000
42.03390	1500.00000
42.05062	1601.00000
42.06733	1514.00000
42.08404	1515.00000
42.10075	1544.00000
42.11746	1518.00000
42.13417	1511.00000
42.15088	1541.00000
42.16759	1523.00000
42.18430	1546.00000
42.20101	1541.00000
42.21773	1600.00000
42.23444	1531.00000
42.25115	1546.00000
42.26786	1524.00000
42.28457	1472.00000
42.30128	1495.00000
42.31799	1503.00000
42.33470	1555.00000
42.35141	1488.00000
42.36812	1496.00000
42.38484	1535.00000
42.40155	1551.00000
42.41826	1567.00000
42.43497	1597.00000
42.45168	1547.00000
42.46839	1477.00000
42.48510	1551.00000
42.50181	1560.00000
42.51852	1536.00000
42.53523	1510.00000
42.55195	1502.00000
42.56866	1452.00000
42.58537	1523.00000
42.60208	1496.00000
42.61879	1523.00000
42.63550	1476.00000
42.65221	1515.00000
42.66892	1554.00000
42.68563	1523.00000
42.70234	1578.00000
42.71906	1532.00000
42.73577	1568.00000
42.75248	1576.00000
42.76919	1550.00000
42.78590	1551.00000
42.80261	1512.00000
42.81932	1599.00000
42.83603	1578.00000
42.85274	1542.00000
42.86945	1496.00000
42.88617	1467.00000
42.90288	1411.00000
42.91959	1497.00000
42.93630	1478.00000
42.95301	1455.00000
42.96972	1484.00000
42.98643	1427.00000
43.00314	1401.00000
43.01985	1536.00000
43.03656	1464.00000
43.05328	1440.00000
43.06999	1484.00000
43.08670	1488.00000
43.10341	1458.00000
43.12012	1451.00000
43.13683	1436.00000
43.15354	1447.00000
43.17025	1362.00000
43.18696	1493.00000
43.20367	1442.00000
43.22039	1376.00000
43.23710	1498.00000
43.25381	1494.00000
43.27052	1478.00000
43.28723	1435.00000
43.30394	1467.00000
43.32065	1362.00000
43.33736	1434.00000
43.35407	1424.00000
43.37078	1477.00000
43.38750	1484.00000
43.40421	1473.00000
43.42092	1478.00000
43.43763	1398.00000
43.45434	1447.00000
43.47105	1395.00000
43.48776	1449.00000
43.50447	1447.00000
43.52118	1416.00000
43.53789	1438.00000
43.55461	1429.00000
43.57132	1389.00000
43.58803	1390.00000
43.60474	1511.00000
43.62145	1443.00000
43.63816	1407.00000
43.65487	1412.00000
43.67158	1386.00000
43.68829	1405.00000
43.70500	1435.00000
43.72172	1499.00000
43.73843	1405.00000
43.75514	1380.00000
43.77185	1405.00000
43.78856	1411.00000
43.80527	1460.00000
43.82198	1327.00000
43.83869	1389.00000
43.85540	1386.00000
43.87211	1386.00000
43.88883	1348.00000
43.90554	1363.00000
43.92225	1401.00000
43.93896	1414.00000
43.95567	1495.00000
43.97238	1459.00000
43.98909	1406.00000
44.00580	1347.00000
44.02251	1408.00000
44.03922	1365.00000
44.05594	1348.00000
44.07265	1401.00000
44.08936	1349.00000
44.10607	1386.00000
44.12278	1405.00000
44.13949	1428.00000
44.15620	1352.00000
44.17291	1385.00000
44.18962	1342.00000
44.20633	1436.00000
44.22305	1330.00000
44.23976	1360.00000
44.25647	1366.00000
44.27318	1446.00000
44.28989	1426.00000
44.30660	1347.00000
44.32331	1447.00000
44.34002	1387.00000
44.35673	1407.00000
44.37344	1503.00000
44.39016	1446.00000
44.40687	1416.00000
44.42358	1362.00000
44.44029	1374.00000
44.45700	1551.00000
44.47371	1469.00000
44.49042	1432.00000
44.50713	1523.00000
44.52384	1488.00000
44.54055	1483.00000
44.55727	1485.00000
44.57398	1538.00000
44.59069	1506.00000
44.60740	1465.00000
44.62411	1396.00000
44.64082	1414.00000
44.65753	1392.00000
44.67424	1482.00000
44.69095	1413.00000
44.70766	1399.00000
44.72438	1452.00000
44.74109	1511.00000
44.75780	1496.00000
44.77451	1499.00000
44.79122	1441.00000
44.80793	1493.00000
44.82464	1462.00000
44.84135	1419.00000
44.85806	1472.00000
44.87477	1456.00000
44.89149	1398.00000
44.90820	1414.00000
44.92491	1455.00000
44.94162	1392.00000
44.95833	1448.00000
44.97504	1378.00000
44.99175	1363.00000
45.00846	1432.00000
45.02517	1395.00000
45.04188	1369.00000
45.05860	1343.00000
45.07531	1423.00000
45.09202	1432.00000
45.10873	1406.00000
45.12544	1359.00000
45.14215	1394.00000
45.15886	1446.00000
45.17557	1401.00000
45.19228	1400.00000
45.20899	1416.00000
45.22571	1431.00000
45.24242	1457.00000
45.25913	1343.00000
45.27584	1368.00000
45.29255	1403.00000
45.30926	1366.00000
45.32597	1369.00000
45.34268	1399.00000
45.35939	1389.00000
45.37610	1435.00000
45.39282	1402.00000
45.40953	1395.00000
45.42624	1363.00000
45.44295	1383.00000
45.45966	1438.00000
45.47637	1379.00000
45.49308	1413.00000
45.50979	1433.00000
45.52650	1389.00000
45.54321	1364.00000
45.55993	1405.00000
45.57664	1381.00000
45.59335	1360.00000
45.61006	1365.00000
45.62677	1311.00000
45.64348	1374.00000
45.66019	1395.00000
45.67690	1318.00000
45.69361	1395.00000
45.71032	1449.00000
45.72704	1316.00000
45.74375	1381.00000
45.76046	1396.00000
45.77717	1310.00000
45.79388	1286.00000
45.81059	1329.00000
45.82730	1401.00000
45.84401	1436.00000
45.86072	1411.00000
45.87743	1383.00000
45.89415	1337.00000
45.91086	1378.00000
45.92757	1283.00000
45.94428	1356.00000
45.96099	1353.00000
45.97770	1377.00000
45.99441	1346.00000
46.01112	1375.00000
46.02783	1430.00000
46.04454	1349.00000
46.06126	1341.00000
46.07797	1373.00000
46.09468	1350.00000
46.11139	1393.00000
46.12810	1356.00000
46.14481	1357.00000
46.16152	1363.00000
46.17823	1356.00000
46.19494	1386.00000
46.21165	1396.00000
46.22837	1391.00000
46.24508	1359.00000
46.26179	1359.00000
46.27850	1395.00000
46.29521	1363.00000
46.31192	1324.00000
46.32863	1370.00000
46.34534	1342.00000
46.36205	1347.00000
46.37876	1366.00000
46.39548	1413.00000
46.41219	1331.00000
46.42890	1313.00000
46.44561	1258.00000
46.46232	1331.00000
46.47903	1356.00000
46.49574	1431.00000
46.51245	1317.00000
46.52916	1429.00000
46.54587	1366.00000
46.56259	1330.00000
46.57930	1329.00000
46.59601	1406.00000
46.61272	1325.00000
46.62943	1385.00000
46.64614	1351.00000
46.66285	1381.00000
46.67956	1409.00000
46.69627	1378.00000
46.71298	1345.00000
46.72970	1330.00000
46.74641	1378.00000
46.76312	1411.00000
46.77983	1317.00000
46.79654	1390.00000
46.81325	1304.00000
46.82996	1436.00000
46.84667	1436.00000
46.86338	1375.00000
46.88009	1319.00000
46.89681	1435.00000
46.91352	1357.00000
46.93023	1354.00000
46.94694	1361.00000
46.96365	1419.00000
46.98036	1394.00000
46.99707	1361.00000
47.01378	1351.00000
47.03049	1456.00000
47.04720	1346.00000
47.06392	1381.00000
47.08063	1317.00000
47.09734	1373.00000
47.11405	1347.00000
47.13076	1375.00000
47.14747	1337.00000
47.16418	1372.00000
47.18089	1474.00000
47.19760	1328.00000
47.21431	1353.00000
47.23103	1416.00000
47.24774	1375.00000
47.26445	1364.00000
47.28116	1379.00000
47.29787	1399.00000
47.31458	1374.00000
47.33129	1377.00000
47.34800	1385.00000
47.36471	1402.00000
47.38142	1407.00000
47.39814	1368.00000
47.41485	1379.00000
47.43156	1458.00000
47.44827	1328.00000
47.46498	1422.00000
47.48169	1359.00000
47.49840	1372.00000
47.51511	1350.00000
47.53182	1438.00000
47.54853	1323.00000
47.56525	1316.00000
47.58196	1306.00000
47.59867	1402.00000
47.61538	1315.00000
47.63209	1277.00000
47.64880	1396.00000
47.66551	1326.00000
47.68222	1342.00000
47.69893	1385.00000
47.71564	1332.00000
47.73236	1347.00000
47.74907	1367.00000
47.76578	1373.00000
47.78249	1362.00000
47.79920	1369.00000
47.81591	1352.00000
47.83262	1299.00000
47.84933	1285.00000
47.86604	1304.00000
47.88275	1240.00000
47.89947	1302.00000
47.91618	1352.00000
47.93289	1296.00000
47.94960	1255.00000
47.96631	1390.00000
47.98302	1297.00000
47.99973	1330.00000
48.01644	1236.00000
48.03315	1283.00000
48.04986	1309.00000
48.06658	1343.00000
48.08329	1335.00000
48.10000	1291.00000
48.11671	1326.00000
48.13342	1331.00000
48.15013	1324.00000
48.16684	1299.00000
48.18355	1273.00000
48.20026	1331.00000
48.21697	1293.00000
48.23369	1341.00000
48.25040	1291.00000
48.26711	1260.00000
48.28382	1316.00000
48.30053	1254.00000
48.31724	1323.00000
48.33395	1327.00000
48.35066	1294.00000
48.36737	1339.00000
48.38408	1349.00000
48.40080	1321.00000
48.41751	1320.00000
48.43422	1306.00000
48.45093	1284.00000
48.46764	1321.00000
48.48435	1268.00000
48.50106	1284.00000
48.51777	1274.00000
48.53448	1318.00000
48.55119	1403.00000
48.56791	1250.00000
48.58462	1288.00000
48.60133	1278.00000
48.61804	1350.00000
48.63475	1247.00000
48.65146	1271.00000
48.66817	1328.00000
48.68488	1300.00000
48.70159	1313.00000
48.71830	1246.00000
48.73502	1324.00000
48.75173	1331.00000
48.76844	1295.00000
48.78515	1268.00000
48.80186	1321.00000
48.81857	1308.00000
48.83528	1341.00000
48.85199	1332.00000
48.86870	1283.00000
48.88541	1297.00000
48.90213	1290.00000
48.91884	1274.00000
48.93555	1268.00000
48.95226	1347.00000
48.96897	1333.00000
48.98568	1246.00000
49.00239	1346.00000
49.01910	1275.00000
49.03581	1287.00000
49.05252	1354.00000
49.06924	1342.00000
49.08595	1263.00000
49.10266	1268.00000
49.11937	1307.00000
49.13608	1255.00000
49.15279	1309.00000
49.16950	1243.00000
49.18621	1345.00000
49.20292	1293.00000
49.21963	1310.00000
49.23635	1259.00000
49.25306	1264.00000
49.26977	1236.00000
49.28648	1327.00000
49.30319	1306.00000
49.31990	1285.00000
49.33661	1288.00000
49.35332	1228.00000
49.37003	1222.00000
49.38674	1310.00000
49.40346	1234.00000
49.42017	1285.00000
49.43688	1336.00000
49.45359	1298.00000
49.47030	1328.00000
49.48701	1304.00000
49.50372	1346.00000
49.52043	1242.00000
49.53714	1307.00000
49.55385	1325.00000
49.57057	1303.00000
49.58728	1254.00000
49.60399	1276.00000
49.62070	1362.00000
49.63741	1249.00000
49.65412	1307.00000
49.67083	1252.00000
49.68754	1321.00000
49.70425	1267.00000
49.72096	1311.00000
49.73768	1315.00000
49.75439	1267.00000
49.77110	1244.00000
49.78781	1217.00000
49.80452	1238.00000
49.82123	1273.00000
49.83794	1236.00000
49.85465	1248.00000
49.87136	1204.00000
49.88807	1302.00000
49.90479	1279.00000
49.92150	1243.00000
49.93821	1243.00000
49.95492	1296.00000
49.97163	1251.00000
49.98834	1192.00000
