5.00000	2348.00000
5.01980	2299.00000
5.03959	2323.00000
5.05939	2320.00000
5.07918	2318.00000
5.09898	2307.00000
5.11878	2312.00000
5.13857	2310.00000
5.15837	2292.00000
5.17816	2301.00000
5.19796	2295.00000
5.21776	2319.00000
5.23755	2306.00000
5.25735	2328.00000
5.27714	2332.00000
5.29694	2344.00000
5.31674	2352.00000
5.33653	2348.00000
5.35633	2379.00000
5.37612	2348.00000
5.39592	2349.00000
5.41572	2341.00000
5.43551	2309.00000
5.45531	2286.00000
5.47510	2277.00000
5.49490	2270.00000
5.51470	2249.00000
5.53449	2255.00000
5.55429	2241.00000
5.57408	2229.00000
5.59388	2248.00000
5.61368	2214.00000
5.63347	2231.00000
5.65327	2229.00000
5.67306	2215.00000
5.69286	2210.00000
5.71266	2208.00000
5.73245	2215.00000
5.75225	2209.00000
5.77204	2205.00000
5.79184	2228.00000
5.81164	2214.00000
5.83143	2214.00000
5.85123	2209.00000
5.87102	2199.00000
5.89082	2199.00000
5.91062	2190.00000
5.93041	2210.00000
5.95021	2183.00000
5.97000	2206.00000
5.98980	2201.00000
6.00960	2184.00000
6.02939	2189.00000
6.04919	2177.00000
6.06898	2165.00000
6.08878	2170.00000
6.10858	2182.00000
6.12837	2182.00000
6.14817	2189.00000
6.16796	2187.00000
6.18776	2184.00000
6.20756	2166.00000
6.22735	2156.00000
6.24715	2145.00000
6.26694	2146.00000
6.28674	2134.00000
6.30654	2146.00000
6.32633	2151.00000
6.34613	2138.00000
6.36592	2164.00000
6.38572	2152.00000
6.40552	2142.00000
6.42531	2147.00000
6.44511	2137.00000
6.46490	2124.00000
6.48470	2115.00000
6.50450	2134.00000
6.52429	2114.00000
6.54409	2118.00000
6.56388	2133.00000
6.58368	2115.00000
6.60348	2129.00000
6.62327	2116.00000
6.64307	2134.00000
6.66286	2102.00000
6.68266	2120.00000
6.70246	2101.00000
6.72225	2109.00000
6.74205	2098.00000
6.76184	2104.00000
6.78164	2101.00000
6.80144	2097.00000
6.82123	2095.00000
6.84103	2071.00000
6.86082	2082.00000
6.88062	2061.00000
6.90042	2062.00000
6.92021	2066.00000
6.94001	2053.00000
6.95980	2059.00000
6.97960	2047.00000
6.99940	2044.00000
7.01919	2060.00000
7.03899	2045.00000
7.05878	2054.00000
7.07858	2042.00000
7.09838	2028.00000
7.11817	2045.00000
7.13797	2001.00000
7.15776	2027.00000
7.17756	2035.00000
7.19736	2037.00000
7.21715	2052.00000
7.23695	2054.00000
7.25674	2066.00000
7.27654	2076.00000
7.29634	2081.00000
7.31613	2114.00000
7.33593	2138.00000
7.35572	2166.00000
7.37552	2217.00000
7.39532	2274.00000
7.41511	2271.00000
7.43491	2281.00000
7.45470	2257.00000
7.47450	2212.00000
7.49430	2147.00000
7.51409	2082.00000
7.53389	2063.00000
7.55368	2021.00000
7.57348	2008.00000
7.59328	2001.00000
7.61307	1988.00000
7.63287	1973.00000
7.65266	1978.00000
7.67246	1966.00000
7.69226	1963.00000
7.71205	1970.00000
7.73185	1970.00000
7.75164	1967.00000
7.77144	1950.00000
7.79124	1949.00000
7.81103	1945.00000
7.83083	1947.00000
7.85062	1950.00000
7.87042	1974.00000
7.89022	2005.00000
7.91001	2014.00000
7.92981	2050.00000
7.94960	2078.00000
7.96940	2131.00000
7.98920	2170.00000
8.00899	2278.00000
8.02879	2383.00000
8.04858	2540.00000
8.06838	2726.00000
8.08818	2999.00000
8.10797	3310.00000
8.12777	3688.00000
8.14756	4099.00000
8.16736	4508.00000
8.18716	4756.00000
8.20695	4786.00000
8.22675	4469.00000
8.24654	4040.00000
8.26634	3435.00000
8.28614	2837.00000
8.30593	2352.00000
8.32573	2076.00000
8.34552	1938.00000
8.36532	1856.00000
8.38512	1852.00000
8.40491	1838.00000
8.42471	1825.00000
8.44450	1830.00000
8.46430	1821.00000
8.48410	1807.00000
8.50389	1798.00000
8.52369	1783.00000
8.54348	1780.00000
8.56328	1779.00000
8.58308	1763.00000
8.60287	1771.00000
8.62267	1762.00000
8.64246	1753.00000
8.66226	1744.00000
8.68206	1742.00000
8.70185	1741.00000
8.72165	1737.00000
8.74144	1717.00000
8.76124	1738.00000
8.78104	1727.00000
8.80083	1732.00000
8.82063	1725.00000
8.84042	1737.00000
8.86022	1742.00000
8.88002	1724.00000
8.89981	1715.00000
8.91961	1719.00000
8.93940	1698.00000
8.95920	1700.00000
8.97900	1703.00000
8.99879	1687.00000
9.01859	1695.00000
9.03838	1697.00000
9.05818	1686.00000
9.07798	1682.00000
9.09777	1660.00000
9.11757	1670.00000
9.13736	1664.00000
9.15716	1637.00000
9.17696	1636.00000
9.19675	1642.00000
9.21655	1634.00000
9.23634	1628.00000
9.25614	1642.00000
9.27594	1640.00000
9.29573	1632.00000
9.31553	1620.00000
9.33532	1615.00000
9.35512	1613.00000
9.37492	1582.00000
9.39471	1601.00000
9.41451	1595.00000
9.43430	1590.00000
9.45410	1577.00000
9.47390	1583.00000
9.49369	1574.00000
9.51349	1561.00000
9.53328	1575.00000
9.55308	1564.00000
9.57288	1572.00000
9.59267	1574.00000
9.61247	1578.00000
9.63226	1574.00000
9.65206	1573.00000
9.67186	1581.00000
9.69165	1590.00000
9.71145	1591.00000
9.73124	1601.00000
9.75104	1625.00000
9.77084	1627.00000
9.79063	1666.00000
9.81043	1705.00000
9.83022	1749.00000
9.85002	1848.00000
9.86982	1946.00000
9.88961	2091.00000
9.90941	2287.00000
9.92920	2527.00000
9.94900	2858.00000
9.96880	3204.00000
9.98859	3672.00000
10.00839	4222.00000
10.02818	4775.00000
10.04798	5294.00000
10.06778	5653.00000
10.08757	5705.00000
10.10737	5386.00000
10.12716	4780.00000
10.14696	4004.00000
10.16676	3181.00000
10.18655	2489.00000
10.20635	1990.00000
10.22614	1727.00000
10.24594	1573.00000
10.26574	1500.00000
10.28553	1469.00000
10.30533	1456.00000
10.32512	1441.00000
10.34492	1441.00000
10.36472	1428.00000
10.38451	1426.00000
10.40431	1426.00000
10.42410	1426.00000
10.44390	1424.00000
10.46370	1429.00000
10.48349	1413.00000
10.50329	1423.00000
10.52308	1425.00000
10.54288	1414.00000
10.56268	1413.00000
10.58247	1434.00000
10.60227	1440.00000
10.62206	1450.00000
10.64186	1458.00000
10.66166	1482.00000
10.68145	1481.00000
10.70125	1525.00000
10.72104	1531.00000
10.74084	1561.00000
10.76064	1600.00000
10.78043	1623.00000
10.80023	1647.00000
10.82002	1659.00000
10.83982	1642.00000
10.85962	1638.00000
10.87941	1625.00000
10.89921	1589.00000
10.91900	1547.00000
10.93880	1527.00000
10.95860	1489.00000
10.97839	1434.00000
10.99819	1415.00000
11.01798	1380.00000
11.03778	1363.00000
11.05758	1359.00000
11.07737	1342.00000
11.09717	1353.00000
11.11696	1327.00000
11.13676	1338.00000
11.15656	1322.00000
11.17635	1320.00000
11.19615	1305.00000
11.21594	1305.00000
11.23574	1313.00000
11.25554	1303.00000
11.27533	1292.00000
11.29513	1317.00000
11.31492	1307.00000
11.33472	1325.00000
11.35452	1343.00000
11.37431	1358.00000
11.39411	1398.00000
11.41390	1446.00000
11.43370	1493.00000
11.45350	1572.00000
11.47329	1688.00000
11.49309	1815.00000
11.51288	2029.00000
11.53268	2243.00000
11.55248	2584.00000
11.57227	2955.00000
11.59207	3441.00000
11.61186	4079.00000
11.63166	4835.00000
11.65146	5819.00000
11.67125	6977.00000
11.69105	8236.00000
11.71084	9577.00000
11.73064	10525.00000
11.75044	10905.00000
11.77023	10419.00000
11.79003	9190.00000
11.80982	7485.00000
11.82962	5571.00000
11.84942	3865.00000
11.86921	2594.00000
11.88901	1889.00000
11.90880	1532.00000
11.92860	1366.00000
11.94840	1281.00000
11.96819	1247.00000
11.98799	1237.00000
12.00778	1215.00000
12.02758	1207.00000
12.04738	1200.00000
12.06717	1197.00000
12.08697	1200.00000
12.10676	1175.00000
12.12656	1192.00000
12.14636	1180.00000
12.16615	1165.00000
12.18595	1174.00000
12.20574	1158.00000
12.22554	1167.00000
12.24534	1162.00000
12.26513	1162.00000
12.28493	1165.00000
12.30472	1154.00000
12.32452	1151.00000
12.34432	1146.00000
12.36411	1135.00000
12.38391	1140.00000
12.40370	1119.00000
12.42350	1132.00000
12.44330	1112.00000
12.46309	1116.00000
12.48289	1116.00000
12.50268	1119.00000
12.52248	1122.00000
12.54228	1121.00000
12.56207	1129.00000
12.58187	1121.00000
12.60166	1119.00000
12.62146	1120.00000
12.64126	1110.00000
12.66105	1115.00000
12.68085	1096.00000
12.70064	1093.00000
12.72044	1093.00000
12.74024	1078.00000
12.76003	1064.00000
12.77983	1065.00000
12.79962	1057.00000
12.81942	1056.00000
12.83922	1059.00000
12.85901	1039.00000
12.87881	1054.00000
12.89860	1060.00000
12.91840	1048.00000
12.93820	1049.00000
12.95799	1058.00000
12.97779	1059.00000
12.99758	1054.00000
13.01738	1061.00000
13.03718	1055.00000
13.05697	1071.00000
13.07677	1068.00000
13.09656	1089.00000
13.11636	1083.00000
13.13616	1099.00000
13.15595	1093.00000
13.17575	1071.00000
13.19554	1065.00000
13.21534	1038.00000
13.23514	1021.00000
13.25493	999.00000
13.27473	985.00000
13.29452	999.00000
13.31432	971.00000
13.33412	970.00000
13.35391	969.00000
13.37371	972.00000
13.39350	950.00000
13.41330	960.00000
13.43310	956.00000
13.45289	952.00000
13.47269	949.00000
13.49248	938.00000
13.51228	946.00000
13.53208	925.00000
13.55187	920.00000
13.57167	922.00000
13.59146	919.00000
13.61126	902.00000
13.63106	907.00000
13.65085	916.00000
13.67065	897.00000
13.69044	910.00000
13.71024	907.00000
13.73004	918.00000
13.74983	911.00000
13.76963	914.00000
13.78942	925.00000
13.80922	914.00000
13.82902	917.00000
13.84881	915.00000
13.86861	913.00000
13.88840	913.00000
13.90820	910.00000
13.92800	915.00000
13.94779	922.00000
13.96759	945.00000
13.98738	952.00000
14.00718	984.00000
14.02698	1019.00000
14.04677	1051.00000
14.06657	1107.00000
14.08636	1164.00000
14.10616	1240.00000
14.12596	1341.00000
14.14575	1422.00000
14.16555	1551.00000
14.18534	1681.00000
14.20514	1826.00000
14.22494	2040.00000
14.24473	2265.00000
14.26453	2608.00000
14.28432	2990.00000
14.30412	3470.00000
14.32392	4041.00000
14.34371	4613.00000
14.36351	5151.00000
14.38330	5533.00000
14.40310	5625.00000
14.42290	5387.00000
14.44269	4840.00000
14.46249	4078.00000
14.48228	3264.00000
14.50208	2514.00000
14.52188	1956.00000
14.54167	1615.00000
14.56147	1443.00000
14.58126	1401.00000
14.60106	1446.00000
14.62086	1535.00000
14.64065	1673.00000
14.66045	1865.00000
14.68024	2108.00000
14.70004	2383.00000
14.71984	2661.00000
14.73963	2915.00000
14.75943	3110.00000
14.77922	3116.00000
14.79902	2936.00000
14.81882	2634.00000
14.83861	2217.00000
14.85841	1789.00000
14.87820	1407.00000
14.89800	1144.00000
14.91780	978.00000
14.93759	898.00000
14.95739	853.00000
14.97718	834.00000
14.99698	815.00000
15.01678	814.00000
15.03657	810.00000
15.05637	808.00000
15.07616	812.00000
15.09596	816.00000
15.11576	819.00000
15.13555	828.00000
15.15535	830.00000
15.17514	835.00000
15.19494	831.00000
15.21474	811.00000
15.23453	814.00000
15.25433	807.00000
15.27412	790.00000
15.29392	787.00000
15.31372	793.00000
15.33351	778.00000
15.35331	773.00000
15.37310	763.00000
15.39290	748.00000
15.41270	765.00000
15.43249	751.00000
15.45229	752.00000
15.47208	763.00000
15.49188	761.00000
15.51168	755.00000
15.53147	762.00000
15.55127	754.00000
15.57106	753.00000
15.59086	766.00000
15.61066	765.00000
15.63045	755.00000
15.65025	756.00000
15.67004	757.00000
15.68984	749.00000
15.70964	745.00000
15.72943	748.00000
15.74923	749.00000
15.76902	758.00000
15.78882	749.00000
15.80862	751.00000
15.82841	752.00000
15.84821	749.00000
15.86800	746.00000
15.88780	757.00000
15.90760	756.00000
15.92739	771.00000
15.94719	768.00000
15.96698	789.00000
15.98678	799.00000
16.00658	829.00000
16.02637	849.00000
16.04617	897.00000
16.06596	946.00000
16.08576	1001.00000
16.10556	1077.00000
16.12535	1127.00000
16.14515	1218.00000
16.16494	1332.00000
16.18474	1472.00000
16.20454	1635.00000
16.22433	1841.00000
16.24413	2039.00000
16.26392	2312.00000
16.28372	2659.00000
16.30352	3092.00000
16.32331	3738.00000
16.34311	4560.00000
16.36290	5741.00000
16.38270	7273.00000
16.40250	9149.00000
16.42229	11256.00000
16.44209	13312.00000
16.46188	15269.00000
16.48168	16446.00000
16.50148	16696.00000
16.52127	15553.00000
16.54107	13523.00000
16.56086	10780.00000
16.58066	8190.00000
16.60046	5932.00000
16.62025	4072.00000
16.64005	2818.00000
16.65984	2043.00000
16.67964	1583.00000
16.69944	1335.00000
16.71923	1138.00000
16.73903	1110.00000
16.75882	1118.00000
16.77862	1150.00000
16.79842	1188.00000
16.81821	1271.00000
16.83801	1380.00000
16.85780	1490.00000
16.87760	1656.00000
16.89740	1838.00000
16.91719	2007.00000
16.93699	2141.00000
16.95678	2221.00000
16.97658	2192.00000
16.99638	2065.00000
17.01617	1867.00000
17.03597	1598.00000
17.05576	1355.00000
17.07556	1141.00000
17.09536	974.00000
17.11515	861.00000
17.13495	810.00000
17.15474	765.00000
17.17454	741.00000
17.19434	721.00000
17.21413	721.00000
17.23393	714.00000
17.25372	705.00000
17.27352	724.00000
17.29332	704.00000
17.31311	728.00000
17.33291	717.00000
17.35270	709.00000
17.37250	702.00000
17.39230	692.00000
17.41209	685.00000
17.43189	680.00000
17.45168	676.00000
17.47148	691.00000
17.49128	683.00000
17.51107	701.00000
17.53087	695.00000
17.55066	696.00000
17.57046	691.00000
17.59026	699.00000
17.61005	693.00000
17.62985	697.00000
17.64964	700.00000
17.66944	698.00000
17.68924	707.00000
17.70903	701.00000
17.72883	705.00000
17.74862	703.00000
17.76842	709.00000
17.78822	714.00000
17.80801	719.00000
17.82781	729.00000
17.84760	731.00000
17.86740	749.00000
17.88720	763.00000
17.90699	771.00000
17.92679	799.00000
17.94658	825.00000
17.96638	853.00000
17.98618	883.00000
18.00597	909.00000
18.02577	951.00000
18.04556	975.00000
18.06536	1025.00000
18.08516	1042.00000
18.10495	1078.00000
18.12475	1097.00000
18.14454	1100.00000
18.16434	1091.00000
18.18414	1058.00000
18.20393	1026.00000
18.22373	1004.00000
18.24352	962.00000
18.26332	954.00000
18.28312	975.00000
18.30291	979.00000
18.32271	1038.00000
18.34250	1082.00000
18.36230	1163.00000
18.38210	1247.00000
18.40189	1354.00000
18.42169	1501.00000
18.44148	1666.00000
18.46128	1861.00000
18.48108	2067.00000
18.50087	2333.00000
18.52067	2573.00000
18.54046	2700.00000
18.56026	2759.00000
18.58006	2795.00000
18.59985	3013.00000
18.61965	3275.00000
18.63944	3872.00000
18.65924	4584.00000
18.67904	5641.00000
18.69883	6974.00000
18.71863	8682.00000
18.73842	10777.00000
18.75822	12853.00000
18.77802	15038.00000
18.79781	17070.00000
18.81761	18723.00000
18.83740	19921.00000
18.85720	20117.00000
18.87700	19330.00000
18.89679	17474.00000
18.91659	15169.00000
18.93638	12522.00000
18.95618	9819.00000
18.97598	7820.00000
18.99577	5905.00000
19.01557	4437.00000
19.03536	3488.00000
19.05516	2740.00000
19.07496	2263.00000
19.09475	1918.00000
19.11455	1723.00000
19.13434	1635.00000
19.15414	1559.00000
19.17394	1474.00000
19.19373	1444.00000
19.21353	1416.00000
19.23332	1387.00000
19.25312	1389.00000
19.27292	1370.00000
19.29271	1439.00000
19.31251	1488.00000
19.33230	1496.00000
19.35210	1494.00000
19.37190	1453.00000
19.39169	1395.00000
19.41149	1345.00000
19.43128	1305.00000
19.45108	1285.00000
19.47088	1325.00000
19.49067	1380.00000
19.51047	1462.00000
19.53026	1573.00000
19.55006	1711.00000
19.56986	1825.00000
19.58965	2002.00000
19.60945	2147.00000
19.62924	2337.00000
19.64904	2538.00000
19.66884	2761.00000
19.68863	3052.00000
19.70843	3373.00000
19.72822	3788.00000
19.74802	4297.00000
19.76782	4895.00000
19.78761	5535.00000
19.80741	6232.00000
19.82720	6851.00000
19.84700	7310.00000
19.86680	7568.00000
19.88659	7435.00000
19.90639	7016.00000
19.92618	6277.00000
19.94598	5361.00000
19.96578	4354.00000
19.98557	3452.00000
20.00537	2714.00000
20.02516	2151.00000
20.04496	1798.00000
20.06476	1611.00000
20.08455	1528.00000
20.10435	1506.00000
20.12414	1588.00000
20.14394	1691.00000
20.16374	1832.00000
20.18353	2028.00000
20.20333	2267.00000
20.22312	2529.00000
20.24292	2812.00000
20.26272	3119.00000
20.28251	3357.00000
20.30231	3536.00000
20.32210	3610.00000
20.34190	3546.00000
20.36170	3420.00000
20.38149	3229.00000
20.40129	3079.00000
20.42108	2970.00000
20.44088	2960.00000
20.46068	3001.00000
20.48047	3084.00000
20.50027	3140.00000
20.52006	3128.00000
20.53986	3035.00000
20.55966	2802.00000
20.57945	2560.00000
20.59925	2277.00000
20.61904	1974.00000
20.63884	1794.00000
20.65864	1675.00000
20.67843	1622.00000
20.69823	1659.00000
20.71802	1727.00000
20.73782	1806.00000
20.75762	1881.00000
20.77741	1980.00000
20.79721	2019.00000
20.81701	2070.00000
20.83680	2073.00000
20.85660	2096.00000
20.87639	2116.00000
20.89619	2124.00000
20.91599	2177.00000
20.93578	2285.00000
20.95558	2416.00000
20.97537	2639.00000
20.99517	2900.00000
21.01497	3256.00000
21.03476	3664.00000
21.05456	4177.00000
21.07435	4736.00000
21.09415	5333.00000
21.11395	5908.00000
21.13374	6507.00000
21.15354	6828.00000
21.17333	7027.00000
21.19313	6910.00000
21.21293	6492.00000
21.23272	5830.00000
21.25252	5021.00000
21.27231	4138.00000
21.29211	3375.00000
21.31191	2710.00000
21.33170	2273.00000
21.35150	1957.00000
21.37129	1827.00000
21.39109	1761.00000
21.41089	1766.00000
21.43068	1808.00000
21.45048	1863.00000
21.47027	1927.00000
21.49007	2001.00000
21.50987	2089.00000
21.52966	2201.00000
21.54946	2322.00000
21.56925	2521.00000
21.58905	2725.00000
21.60885	2999.00000
21.62864	3340.00000
21.64844	3731.00000
21.66823	4235.00000
21.68803	4831.00000
21.70783	5464.00000
21.72762	6230.00000
21.74742	6980.00000
21.76721	7723.00000
21.78701	8341.00000
21.80681	8900.00000
21.82660	9261.00000
21.84640	9573.00000
21.86619	9858.00000
21.88599	10219.00000
21.90579	10813.00000
21.92558	11466.00000
21.94538	12294.00000
21.96517	13127.00000
21.98497	13620.00000
22.00477	13765.00000
22.02456	13270.00000
22.04436	12161.00000
22.06415	10557.00000
22.08395	8563.00000
22.10375	6624.00000
22.12354	4838.00000
22.14334	3443.00000
22.16313	2436.00000
22.18293	1839.00000
22.20273	1477.00000
22.22252	1270.00000
22.24232	1175.00000
22.26211	1119.00000
22.28191	1099.00000
22.30171	1093.00000
22.32150	1130.00000
22.34130	1171.00000
22.36109	1227.00000
22.38089	1294.00000
22.40069	1385.00000
22.42048	1498.00000
22.44028	1602.00000
22.46007	1713.00000
22.47987	1848.00000
22.49967	1926.00000
22.51946	1985.00000
22.53926	1998.00000
22.55905	1934.00000
22.57885	1834.00000
22.59865	1681.00000
22.61844	1560.00000
22.63824	1408.00000
22.65803	1328.00000
22.67783	1300.00000
22.69763	1306.00000
22.71742	1353.00000
22.73722	1442.00000
22.75701	1544.00000
22.77681	1687.00000
22.79661	1813.00000
22.81640	1962.00000
22.83620	2092.00000
22.85599	2131.00000
22.87579	2124.00000
22.89559	2057.00000
22.91538	1906.00000
22.93518	1775.00000
22.95497	1651.00000
22.97477	1545.00000
22.99457	1540.00000
23.01436	1558.00000
23.03416	1640.00000
23.05395	1762.00000
23.07375	1927.00000
23.09355	2128.00000
23.11334	2371.00000
23.13314	2637.00000
23.15293	2905.00000
23.17273	3178.00000
23.19253	3413.00000
23.21232	3593.00000
23.23212	3691.00000
23.25191	3780.00000
23.27171	3836.00000
23.29151	3895.00000
23.31130	4067.00000
23.33110	4339.00000
23.35089	4719.00000
23.37069	5216.00000
23.39049	5783.00000
23.41028	6340.00000
23.43008	6765.00000
23.44987	6994.00000
23.46967	6922.00000
23.48947	6577.00000
23.50926	5932.00000
23.52906	5209.00000
23.54885	4431.00000
23.56865	3744.00000
23.58845	3232.00000
23.60824	2840.00000
23.62804	2620.00000
23.64783	2496.00000
23.66763	2398.00000
23.68743	2340.00000
23.70722	2323.00000
23.72702	2222.00000
23.74681	2147.00000
23.76661	2068.00000
23.78641	1984.00000
23.80620	1956.00000
23.82600	1967.00000
23.84579	2047.00000
23.86559	2213.00000
23.88539	2429.00000
23.90518	2705.00000
23.92498	3006.00000
23.94477	3317.00000
23.96457	3627.00000
23.98437	3833.00000
24.00416	3942.00000
24.02396	3934.00000
24.04375	3737.00000
24.06355	3436.00000
24.08335	3043.00000
24.10314	2609.00000
24.12294	2229.00000
24.14273	1898.00000
24.16253	1677.00000
24.18233	1533.00000
24.20212	1488.00000
24.22192	1484.00000
24.24171	1534.00000
24.26151	1613.00000
24.28131	1759.00000
24.30110	1890.00000
24.32090	2060.00000
24.34069	2281.00000
24.36049	2497.00000
24.38029	2763.00000
24.40008	3088.00000
24.41988	3440.00000
24.43967	3778.00000
24.45947	4139.00000
24.47927	4442.00000
24.49906	4612.00000
24.51886	4652.00000
24.53865	4506.00000
24.55845	4212.00000
24.57825	3811.00000
24.59804	3350.00000
24.61784	2959.00000
24.63763	2622.00000
24.65743	2429.00000
24.67723	2368.00000
24.69702	2424.00000
24.71682	2572.00000
24.73661	2833.00000
24.75641	3181.00000
24.77621	3636.00000
24.79600	4208.00000
24.81580	4839.00000
24.83559	5544.00000
24.85539	6235.00000
24.87519	6841.00000
24.89498	7250.00000
24.91478	7301.00000
24.93457	7000.00000
24.95437	6289.00000
24.97417	5360.00000
24.99396	4278.00000
25.01376	3268.00000
25.03355	2427.00000
25.05335	1814.00000
25.07315	1409.00000
25.09294	1183.00000
25.11274	1028.00000
25.13253	939.00000
25.15233	909.00000
25.17213	876.00000
25.19192	864.00000
25.21172	861.00000
25.23151	856.00000
25.25131	871.00000
25.27111	880.00000
25.29090	890.00000
25.31070	916.00000
25.33049	938.00000
25.35029	940.00000
25.37009	949.00000
25.38988	970.00000
25.40968	955.00000
25.42947	953.00000
25.44927	950.00000
25.46907	948.00000
25.48886	953.00000
25.50866	930.00000
25.52845	935.00000
25.54825	935.00000
25.56805	904.00000
25.58784	908.00000
25.60764	901.00000
25.62743	899.00000
25.64723	903.00000
25.66703	927.00000
25.68682	953.00000
25.70662	969.00000
25.72641	1027.00000
25.74621	1062.00000
25.76601	1117.00000
25.78580	1184.00000
25.80560	1232.00000
25.82539	1307.00000
25.84519	1377.00000
25.86499	1432.00000
25.88478	1522.00000
25.90458	1644.00000
25.92437	1751.00000
25.94417	1921.00000
25.96397	2115.00000
25.98376	2317.00000
26.00356	2500.00000
26.02335	2663.00000
26.04315	2744.00000
26.06295	2736.00000
26.08274	2637.00000
26.10254	2459.00000
26.12233	2251.00000
26.14213	2024.00000
26.16193	1829.00000
26.18172	1674.00000
26.20152	1584.00000
26.22131	1489.00000
26.24111	1458.00000
26.26091	1431.00000
26.28070	1424.00000
26.30050	1449.00000
26.32029	1484.00000
26.34009	1571.00000
26.35989	1661.00000
26.37968	1810.00000
26.39948	1979.00000
26.41927	2215.00000
26.43907	2480.00000
26.45887	2802.00000
26.47866	3216.00000
26.49846	3683.00000
26.51825	4208.00000
26.53805	4803.00000
26.55785	5385.00000
26.57764	5849.00000
26.59744	6202.00000
26.61723	6250.00000
26.63703	6028.00000
26.65683	5561.00000
26.67662	4904.00000
26.69642	4207.00000
26.71621	3553.00000
26.73601	3027.00000
26.75581	2668.00000
26.77560	2412.00000
26.79540	2314.00000
26.81519	2248.00000
26.83499	2224.00000
26.85479	2261.00000
26.87458	2286.00000
26.89438	2364.00000
26.91417	2436.00000
26.93397	2558.00000
26.95377	2729.00000
26.97356	2920.00000
26.99336	3179.00000
27.01315	3460.00000
27.03295	3761.00000
27.05275	4022.00000
27.07254	4243.00000
27.09234	4377.00000
27.11213	4410.00000
27.13193	4395.00000
27.15173	4224.00000
27.17152	4097.00000
27.19132	3889.00000
27.21111	3682.00000
27.23091	3519.00000
27.25071	3327.00000
27.27050	3158.00000
27.29030	3014.00000
27.31009	2871.00000
27.32989	2693.00000
27.34969	2522.00000
27.36948	2300.00000
27.38928	2056.00000
27.40907	1818.00000
27.42887	1574.00000
27.44867	1379.00000
27.46846	1208.00000
27.48826	1141.00000
27.50805	1070.00000
27.52785	1051.00000
27.54765	1050.00000
27.56744	1068.00000
27.58724	1074.00000
27.60703	1100.00000
27.62683	1133.00000
27.64663	1141.00000
27.66642	1157.00000
27.68622	1190.00000
27.70601	1219.00000
27.72581	1248.00000
27.74561	1321.00000
27.76540	1404.00000
27.78520	1517.00000
27.80499	1634.00000
27.82479	1795.00000
27.84459	1974.00000
27.86438	2155.00000
27.88418	2342.00000
27.90397	2540.00000
27.92377	2683.00000
27.94357	2769.00000
27.96336	2818.00000
27.98316	2827.00000
28.00295	2870.00000
28.02275	2912.00000
28.04255	3063.00000
28.06234	3311.00000
28.08214	3645.00000
28.10193	4106.00000
28.12173	4613.00000
28.14153	5206.00000
28.16132	5797.00000
28.18112	6348.00000
28.20091	6729.00000
28.22071	6939.00000
28.24051	6867.00000
28.26030	6557.00000
28.28010	6103.00000
28.29989	5583.00000
28.31969	5165.00000
28.33949	4878.00000
28.35928	4810.00000
28.37908	4965.00000
28.39887	5238.00000
28.41867	5590.00000
28.43847	5893.00000
28.45826	6112.00000
28.47806	6140.00000
28.49785	6021.00000
28.51765	5801.00000
28.53745	5509.00000
28.55724	5335.00000
28.57704	5232.00000
28.59683	5310.00000
28.61663	5442.00000
28.63643	5605.00000
28.65622	5633.00000
28.67602	5558.00000
28.69581	5181.00000
28.71561	4690.00000
28.73541	4100.00000
28.75520	3479.00000
28.77500	2937.00000
28.79479	2566.00000
28.81459	2331.00000
28.83439	2244.00000
28.85418	2273.00000
28.87398	2385.00000
28.89377	2565.00000
28.91357	2798.00000
28.93337	3111.00000
28.95316	3473.00000
28.97296	3866.00000
28.99275	4319.00000
29.01255	4754.00000
29.03235	5167.00000
29.05214	5439.00000
29.07194	5530.00000
29.09173	5429.00000
29.11153	5134.00000
29.13133	4678.00000
29.15112	4166.00000
29.17092	3740.00000
29.19071	3416.00000
29.21051	3238.00000
29.23031	3240.00000
29.25010	3322.00000
29.26990	3451.00000
29.28969	3598.00000
29.30949	3640.00000
29.32929	3574.00000
29.34908	3396.00000
29.36888	3092.00000
29.38867	2692.00000
29.40847	2288.00000
29.42827	1904.00000
29.44806	1599.00000
29.46786	1355.00000
29.48765	1202.00000
29.50745	1115.00000
29.52725	1058.00000
29.54704	1029.00000
29.56684	1026.00000
29.58663	1025.00000
29.60643	1035.00000
29.62623	1047.00000
29.64602	1073.00000
29.66582	1099.00000
29.68561	1110.00000
29.70541	1172.00000
29.72521	1212.00000
29.74500	1274.00000
29.76480	1357.00000
29.78459	1442.00000
29.80439	1572.00000
29.82419	1687.00000
29.84398	1813.00000
29.86378	1965.00000
29.88357	2081.00000
29.90337	2224.00000
29.92317	2344.00000
29.94296	2476.00000
29.96276	2642.00000
29.98255	2798.00000
30.00235	2960.00000
30.02215	3137.00000
30.04194	3260.00000
30.06174	3370.00000
30.08153	3402.00000
30.10133	3444.00000
30.12113	3464.00000
30.14092	3511.00000
30.16072	3618.00000
30.18051	3728.00000
30.20031	3888.00000
30.22011	3999.00000
30.23990	4011.00000
30.25970	3909.00000
30.27949	3682.00000
30.29929	3306.00000
30.31909	2913.00000
30.33888	2500.00000
30.35868	2121.00000
30.37847	1858.00000
30.39827	1660.00000
30.41807	1565.00000
30.43786	1536.00000
30.45766	1538.00000
30.47745	1579.00000
30.49725	1653.00000
30.51705	1754.00000
30.53684	1831.00000
30.55664	1947.00000
30.57643	2034.00000
30.59623	2120.00000
30.61603	2154.00000
30.63582	2135.00000
30.65562	2083.00000
30.67541	1989.00000
30.69521	1837.00000
30.71501	1723.00000
30.73480	1585.00000
30.75460	1492.00000
30.77439	1417.00000
30.79419	1362.00000
30.81399	1353.00000
30.83378	1344.00000
30.85358	1342.00000
30.87337	1385.00000
30.89317	1406.00000
30.91297	1442.00000
30.93276	1475.00000
30.95256	1504.00000
30.97235	1506.00000
30.99215	1496.00000
31.01195	1467.00000
31.03174	1426.00000
31.05154	1365.00000
31.07133	1330.00000
31.09113	1300.00000
31.11093	1290.00000
31.13072	1310.00000
31.15052	1353.00000
31.17031	1405.00000
31.19011	1477.00000
31.20991	1521.00000
31.22970	1562.00000
31.24950	1560.00000
31.26929	1565.00000
31.28909	1530.00000
31.30889	1536.00000
31.32868	1545.00000
31.34848	1607.00000
31.36827	1684.00000
31.38807	1810.00000
31.40787	1922.00000
31.42766	2078.00000
31.44746	2225.00000
31.46725	2355.00000
31.48705	2505.00000
31.50685	2613.00000
31.52664	2728.00000
31.54644	2762.00000
31.56623	2784.00000
31.58603	2734.00000
31.60583	2646.00000
31.62562	2510.00000
31.64542	2419.00000
31.66521	2350.00000
31.68501	2318.00000
31.70481	2388.00000
31.72460	2497.00000
31.74440	2650.00000
31.76419	2825.00000
31.78399	2955.00000
31.80379	3101.00000
31.82358	3163.00000
31.84338	3183.00000
31.86317	3125.00000
31.88297	3043.00000
31.90277	2894.00000
31.92256	2702.00000
31.94236	2514.00000
31.96215	2290.00000
31.98195	2092.00000
32.00175	1938.00000
32.02154	1798.00000
32.04134	1711.00000
32.06113	1682.00000
32.08093	1681.00000
32.10073	1696.00000
32.12052	1723.00000
32.14032	1738.00000
32.16011	1755.00000
32.17991	1725.00000
32.19971	1702.00000
32.21950	1613.00000
32.23930	1571.00000
32.25909	1500.00000
32.27889	1444.00000
32.29869	1436.00000
32.31848	1439.00000
32.33828	1494.00000
32.35807	1569.00000
32.37787	1671.00000
32.39767	1826.00000
32.41746	1956.00000
32.43726	2101.00000
32.45705	2223.00000
32.47685	2314.00000
32.49665	2310.00000
32.51644	2254.00000
32.53624	2152.00000
32.55603	1961.00000
32.57583	1798.00000
32.59563	1618.00000
32.61542	1470.00000
32.63522	1378.00000
32.65501	1330.00000
32.67481	1297.00000
32.69461	1298.00000
32.71440	1309.00000
32.73420	1308.00000
32.75399	1313.00000
32.77379	1308.00000
32.79359	1280.00000
32.81338	1272.00000
32.83318	1247.00000
32.85297	1242.00000
32.87277	1228.00000
32.89257	1232.00000
32.91236	1229.00000
32.93216	1227.00000
32.95195	1195.00000
32.97175	1185.00000
32.99155	1134.00000
33.01134	1087.00000
33.03114	1036.00000
33.05093	980.00000
33.07073	946.00000
33.09053	908.00000
33.11032	885.00000
33.13012	877.00000
33.14991	890.00000
33.16971	889.00000
33.18951	902.00000
33.20930	918.00000
33.22910	941.00000
33.24889	949.00000
33.26869	981.00000
33.28849	1017.00000
33.30828	1052.00000
33.32808	1110.00000
33.34787	1164.00000
33.36767	1239.00000
33.38747	1310.00000
33.40726	1379.00000
33.42706	1463.00000
33.44685	1519.00000
33.46665	1562.00000
33.48645	1572.00000
33.50624	1543.00000
33.52604	1477.00000
33.54583	1369.00000
33.56563	1253.00000
33.58543	1127.00000
33.60522	1013.00000
33.62502	913.00000
33.64481	862.00000
33.66461	805.00000
33.68441	787.00000
33.70420	781.00000
33.72400	781.00000
33.74379	792.00000
33.76359	798.00000
33.78339	811.00000
33.80318	817.00000
33.82298	836.00000
33.84277	834.00000
33.86257	866.00000
33.88237	880.00000
33.90216	903.00000
33.92196	928.00000
33.94175	976.00000
33.96155	997.00000
33.98135	1055.00000
34.00114	1085.00000
34.02094	1140.00000
34.04073	1178.00000
34.06053	1216.00000
34.08033	1238.00000
34.10012	1250.00000
34.11992	1240.00000
34.13971	1210.00000
34.15951	1179.00000
34.17931	1134.00000
34.19910	1086.00000
34.21890	1066.00000
34.23869	1035.00000
34.25849	1031.00000
34.27829	1037.00000
34.29808	1045.00000
34.31788	1099.00000
34.33767	1154.00000
34.35747	1204.00000
34.37727	1324.00000
34.39706	1407.00000
34.41686	1536.00000
34.43665	1669.00000
34.45645	1818.00000
34.47625	1956.00000
34.49604	2120.00000
34.51584	2234.00000
34.53563	2318.00000
34.55543	2376.00000
34.57523	2371.00000
34.59502	2266.00000
34.61482	2183.00000
34.63461	2035.00000
34.65441	1839.00000
34.67421	1667.00000
34.69400	1540.00000
34.71380	1376.00000
34.73359	1275.00000
34.75339	1199.00000
34.77319	1152.00000
34.79298	1120.00000
34.81278	1118.00000
34.83257	1126.00000
34.85237	1147.00000
34.87217	1162.00000
34.89196	1180.00000
34.91176	1178.00000
34.93155	1194.00000
34.95135	1185.00000
34.97115	1181.00000
34.99094	1172.00000
35.01074	1176.00000
35.03053	1175.00000
35.05033	1186.00000
35.07013	1219.00000
35.08992	1257.00000
35.10972	1313.00000
35.12951	1377.00000
35.14931	1439.00000
35.16911	1465.00000
35.18890	1496.00000
35.20870	1483.00000
35.22849	1451.00000
35.24829	1370.00000
35.26809	1310.00000
35.28788	1243.00000
35.30768	1169.00000
35.32747	1137.00000
35.34727	1122.00000
35.36707	1124.00000
35.38686	1118.00000
35.40666	1151.00000
35.42645	1148.00000
35.44625	1138.00000
35.46605	1115.00000
35.48584	1081.00000
35.50564	1026.00000
35.52543	971.00000
35.54523	929.00000
35.56503	879.00000
35.58482	839.00000
35.60462	797.00000
35.62441	791.00000
35.64421	754.00000
35.66401	749.00000
35.68380	754.00000
35.70360	762.00000
35.72339	770.00000
35.74319	784.00000
35.76299	795.00000
35.78278	818.00000
35.80258	824.00000
35.82237	827.00000
35.84217	839.00000
35.86197	845.00000
35.88176	838.00000
35.90156	831.00000
35.92135	826.00000
35.94115	813.00000
35.96095	802.00000
35.98074	781.00000
36.00054	769.00000
36.02033	758.00000
36.04013	756.00000
36.05993	750.00000
36.07972	765.00000
36.09952	780.00000
36.11931	804.00000
36.13911	826.00000
36.15891	857.00000
36.17870	896.00000
36.19850	908.00000
36.21829	975.00000
36.23809	1001.00000
36.25789	1045.00000
36.27768	1087.00000
36.29748	1120.00000
36.31727	1142.00000
36.33707	1159.00000
36.35687	1153.00000
36.37666	1157.00000
36.39646	1153.00000
36.41625	1139.00000
36.43605	1115.00000
36.45585	1088.00000
36.47564	1046.00000
36.49544	1009.00000
36.51523	935.00000
36.53503	915.00000
36.55483	873.00000
36.57462	856.00000
36.59442	841.00000
36.61421	850.00000
36.63401	844.00000
36.65381	856.00000
36.67360	864.00000
36.69340	861.00000
36.71319	875.00000
36.73299	869.00000
36.75279	863.00000
36.77258	855.00000
36.79238	855.00000
36.81217	859.00000
36.83197	847.00000
36.85177	861.00000
36.87156	865.00000
36.89136	895.00000
36.91115	911.00000
36.93095	942.00000
36.95075	997.00000
36.97054	1025.00000
36.99034	1066.00000
37.01013	1099.00000
37.02993	1119.00000
37.04973	1146.00000
37.06952	1156.00000
37.08932	1160.00000
37.10911	1150.00000
37.12891	1139.00000
37.14871	1127.00000
37.16850	1103.00000
37.18830	1098.00000
37.20809	1104.00000
37.22789	1118.00000
37.24769	1108.00000
37.26748	1122.00000
37.28728	1099.00000
37.30707	1089.00000
37.32687	1048.00000
37.34667	1011.00000
37.36646	999.00000
37.38626	967.00000
37.40605	946.00000
37.42585	954.00000
37.44565	950.00000
37.46544	964.00000
37.48524	975.00000
37.50503	1002.00000
37.52483	1014.00000
37.54463	1037.00000
37.56442	1066.00000
37.58422	1078.00000
37.60401	1099.00000
37.62381	1106.00000
37.64361	1127.00000
37.66340	1133.00000
37.68320	1126.00000
37.70299	1138.00000
37.72279	1120.00000
37.74259	1120.00000
37.76238	1097.00000
37.78218	1098.00000
37.80197	1086.00000
37.82177	1080.00000
37.84157	1072.00000
37.86136	1066.00000
37.88116	1057.00000
37.90095	1065.00000
37.92075	1054.00000
37.94055	1055.00000
37.96034	1086.00000
37.98014	1099.00000
37.99993	1134.00000
38.01973	1169.00000
38.03953	1211.00000
38.05932	1257.00000
38.07912	1290.00000
38.09891	1322.00000
38.11871	1338.00000
38.13851	1357.00000
38.15830	1352.00000
38.17810	1355.00000
38.19789	1340.00000
38.21769	1329.00000
38.23749	1300.00000
38.25728	1270.00000
38.27708	1250.00000
38.29687	1203.00000
38.31667	1182.00000
38.33647	1170.00000
38.35626	1157.00000
38.37606	1170.00000
38.39585	1165.00000
38.41565	1182.00000
38.43545	1189.00000
38.45524	1189.00000
38.47504	1206.00000
38.49483	1212.00000
38.51463	1233.00000
38.53443	1250.00000
38.55422	1290.00000
38.57402	1305.00000
38.59381	1348.00000
38.61361	1379.00000
38.63341	1393.00000
38.65320	1421.00000
38.67300	1437.00000
38.69279	1431.00000
38.71259	1426.00000
38.73239	1416.00000
38.75218	1379.00000
38.77198	1343.00000
38.79177	1286.00000
38.81157	1233.00000
38.83137	1172.00000
38.85116	1121.00000
38.87096	1062.00000
38.89075	1031.00000
38.91055	989.00000
38.93035	964.00000
38.95014	948.00000
38.96994	928.00000
38.98973	932.00000
39.00953	926.00000
39.02933	941.00000
39.04912	937.00000
39.06892	969.00000
39.08871	988.00000
39.10851	1015.00000
39.12831	1042.00000
39.14810	1084.00000
39.16790	1096.00000
39.18769	1135.00000
39.20749	1142.00000
39.22729	1161.00000
39.24708	1174.00000
39.26688	1183.00000
39.28667	1180.00000
39.30647	1180.00000
39.32627	1185.00000
39.34606	1193.00000
39.36586	1202.00000
39.38565	1215.00000
39.40545	1246.00000
39.42525	1250.00000
39.44504	1272.00000
39.46484	1271.00000
39.48463	1273.00000
39.50443	1274.00000
39.52423	1281.00000
39.54402	1286.00000
39.56382	1308.00000
39.58361	1338.00000
39.60341	1397.00000
39.62321	1435.00000
39.64300	1492.00000
39.66280	1535.00000
39.68259	1580.00000
39.70239	1608.00000
39.72219	1627.00000
39.74198	1673.00000
39.76178	1682.00000
39.78157	1687.00000
39.80137	1703.00000
39.82117	1673.00000
39.84096	1625.00000
39.86076	1593.00000
39.88055	1509.00000
39.90035	1482.00000
39.92015	1437.00000
39.93994	1403.00000
39.95974	1404.00000
39.97953	1413.00000
39.99933	1419.00000
40.01913	1419.00000
40.03892	1407.00000
40.05872	1383.00000
40.07851	1319.00000
40.09831	1252.00000
40.11811	1173.00000
40.13790	1085.00000
40.15770	1002.00000
40.17749	940.00000
40.19729	887.00000
40.21709	850.00000
40.23688	817.00000
40.25668	822.00000
40.27647	818.00000
40.29627	834.00000
40.31607	834.00000
40.33586	861.00000
40.35566	883.00000
40.37545	896.00000
40.39525	909.00000
40.41505	935.00000
40.43484	947.00000
40.45464	969.00000
40.47443	963.00000
40.49423	976.00000
40.51403	972.00000
40.53382	958.00000
40.55362	944.00000
40.57341	911.00000
40.59321	882.00000
40.61301	859.00000
40.63280	808.00000
40.65260	781.00000
40.67239	760.00000
40.69219	738.00000
40.71199	719.00000
40.73178	708.00000
40.75158	697.00000
40.77137	689.00000
40.79117	674.00000
40.81097	669.00000
40.83076	672.00000
40.85056	663.00000
40.87035	683.00000
40.89015	675.00000
40.90995	697.00000
40.92974	692.00000
40.94954	701.00000
40.96933	711.00000
40.98913	711.00000
41.00893	725.00000
41.02872	747.00000
41.04852	767.00000
41.06831	790.00000
41.08811	823.00000
41.10791	838.00000
41.12770	867.00000
41.14750	903.00000
41.16729	932.00000
41.18709	978.00000
41.20689	1032.00000
41.22668	1082.00000
41.24648	1149.00000
41.26627	1193.00000
41.28607	1230.00000
41.30587	1274.00000
41.32566	1293.00000
41.34546	1282.00000
41.36525	1262.00000
41.38505	1230.00000
41.40485	1162.00000
41.42464	1097.00000
41.44444	1024.00000
41.46423	958.00000
41.48403	902.00000
41.50383	863.00000
41.52362	830.00000
41.54342	818.00000
41.56321	810.00000
41.58301	805.00000
41.60281	809.00000
41.62260	817.00000
41.64240	814.00000
41.66219	844.00000
41.68199	854.00000
41.70179	859.00000
41.72158	897.00000
41.74138	897.00000
41.76117	926.00000
41.78097	932.00000
41.80077	950.00000
41.82056	959.00000
41.84036	977.00000
41.86015	978.00000
41.87995	996.00000
41.89975	1016.00000
41.91954	1013.00000
41.93934	1017.00000
41.95913	1025.00000
41.97893	1018.00000
41.99873	1009.00000
42.01852	998.00000
42.03832	1006.00000
42.05811	993.00000
42.07791	987.00000
42.09771	987.00000
42.11750	976.00000
42.13730	983.00000
42.15709	991.00000
42.17689	983.00000
42.19669	999.00000
42.21648	1003.00000
42.23628	1001.00000
42.25607	1003.00000
42.27587	998.00000
42.29567	979.00000
42.31546	971.00000
42.33526	965.00000
42.35505	940.00000
42.37485	932.00000
42.39465	926.00000
42.41444	916.00000
42.43424	919.00000
42.45403	892.00000
42.47383	894.00000
42.49363	890.00000
42.51342	881.00000
42.53322	884.00000
42.55301	876.00000
42.57281	871.00000
42.59261	864.00000
42.61240	855.00000
42.63220	833.00000
42.65199	831.00000
42.67179	817.00000
42.69159	822.00000
42.71138	813.00000
42.73118	825.00000
42.75097	835.00000
42.77077	842.00000
42.79057	853.00000
42.81036	861.00000
42.83016	884.00000
42.84995	894.00000
42.86975	908.00000
42.88955	929.00000
42.90934	952.00000
42.92914	971.00000
42.94893	993.00000
42.96873	1009.00000
42.98853	1026.00000
43.00832	1025.00000
43.02812	1019.00000
43.04791	997.00000
43.06771	970.00000
43.08751	933.00000
43.10730	900.00000
43.12710	888.00000
43.14689	852.00000
43.16669	848.00000
43.18649	850.00000
43.20628	853.00000
43.22608	863.00000
43.24587	876.00000
43.26567	903.00000
43.28547	921.00000
43.30526	965.00000
43.32506	989.00000
43.34485	1020.00000
43.36465	1069.00000
43.38445	1098.00000
43.40424	1146.00000
43.42404	1177.00000
43.44383	1197.00000
43.46363	1215.00000
43.48343	1229.00000
43.50322	1212.00000
43.52302	1192.00000
43.54281	1189.00000
43.56261	1167.00000
43.58241	1148.00000
43.60220	1131.00000
43.62200	1116.00000
43.64179	1099.00000
43.66159	1075.00000
43.68139	1063.00000
43.70118	1052.00000
43.72098	1016.00000
43.74077	1007.00000
43.76057	1010.00000
43.78037	1002.00000
43.80016	988.00000
43.81996	1009.00000
43.83975	1012.00000
43.85955	1013.00000
43.87935	1043.00000
43.89914	1044.00000
43.91894	1074.00000
43.93873	1107.00000
43.95853	1146.00000
43.97833	1184.00000
43.99812	1236.00000
44.01792	1293.00000
44.03771	1353.00000
44.05751	1397.00000
44.07731	1473.00000
44.09710	1513.00000
44.11690	1566.00000
44.13669	1625.00000
44.15649	1661.00000
44.17629	1710.00000
44.19608	1753.00000
44.21588	1766.00000
44.23567	1805.00000
44.25547	1828.00000
44.27527	1821.00000
44.29506	1851.00000
44.31486	1850.00000
44.33465	1846.00000
44.35445	1851.00000
44.37425	1859.00000
44.39404	1829.00000
44.41384	1821.00000
44.43363	1799.00000
44.45343	1730.00000
44.47323	1683.00000
44.49302	1609.00000
44.51282	1543.00000
44.53261	1480.00000
44.55241	1398.00000
44.57221	1371.00000
44.59200	1297.00000
44.61180	1277.00000
44.63159	1236.00000
44.65139	1219.00000
44.67119	1204.00000
44.69098	1183.00000
44.71078	1188.00000
44.73057	1163.00000
44.75037	1159.00000
44.77017	1156.00000
44.78996	1137.00000
44.80976	1138.00000
44.82955	1130.00000
44.84935	1120.00000
44.86915	1134.00000
44.88894	1132.00000
44.90874	1149.00000
44.92853	1161.00000
44.94833	1164.00000
44.96813	1178.00000
44.98792	1181.00000
45.00772	1189.00000
45.02751	1186.00000
45.04731	1204.00000
45.06711	1211.00000
45.08690	1229.00000
45.10670	1247.00000
45.12649	1268.00000
45.14629	1295.00000
45.16609	1317.00000
45.18588	1353.00000
45.20568	1366.00000
45.22547	1372.00000
45.24527	1375.00000
45.26507	1346.00000
45.28486	1319.00000
45.30466	1279.00000
45.32445	1245.00000
45.34425	1222.00000
45.36405	1203.00000
45.38384	1198.00000
45.40364	1210.00000
45.42343	1244.00000
45.44323	1260.00000
45.46303	1311.00000
45.48282	1353.00000
45.50262	1390.00000
45.52241	1423.00000
45.54221	1451.00000
45.56201	1448.00000
45.58180	1431.00000
45.60160	1408.00000
45.62139	1363.00000
45.64119	1305.00000
45.66099	1252.00000
45.68078	1198.00000
45.70058	1138.00000
45.72037	1097.00000
45.74017	1039.00000
45.75997	1005.00000
45.77976	971.00000
45.79956	954.00000
45.81935	932.00000
45.83915	934.00000
45.85895	950.00000
45.87874	973.00000
45.89854	1001.00000
45.91833	1033.00000
45.93813	1086.00000
45.95793	1113.00000
45.97772	1176.00000
45.99752	1209.00000
46.01731	1266.00000
46.03711	1314.00000
46.05691	1360.00000
46.07670	1396.00000
46.09650	1426.00000
46.11629	1436.00000
46.13609	1438.00000
46.15589	1417.00000
46.17568	1385.00000
46.19548	1364.00000
46.21527	1299.00000
46.23507	1273.00000
46.25487	1234.00000
46.27466	1180.00000
46.29446	1142.00000
46.31425	1090.00000
46.33405	1064.00000
46.35385	999.00000
46.37364	974.00000
46.39344	931.00000
46.41323	904.00000
46.43303	875.00000
46.45283	859.00000
46.47262	845.00000
46.49242	836.00000
46.51221	832.00000
46.53201	819.00000
46.55181	827.00000
46.57160	821.00000
46.59140	838.00000
46.61119	834.00000
46.63099	837.00000
46.65079	841.00000
46.67058	827.00000
46.69038	816.00000
46.71017	795.00000
46.72997	791.00000
46.74977	775.00000
46.76956	764.00000
46.78936	755.00000
46.80915	767.00000
46.82895	747.00000
46.84875	757.00000
46.86854	762.00000
46.88834	754.00000
46.90813	755.00000
46.92793	746.00000
46.94773	747.00000
46.96752	746.00000
46.98732	738.00000
47.00711	746.00000
47.02691	727.00000
47.04671	742.00000
47.06650	724.00000
47.08630	710.00000
47.10609	716.00000
47.12589	703.00000
47.14569	699.00000
47.16548	694.00000
47.18528	690.00000
47.20507	691.00000
47.22487	690.00000
47.24467	694.00000
47.26446	697.00000
47.28426	714.00000
47.30405	718.00000
47.32385	722.00000
47.34365	746.00000
47.36344	748.00000
47.38324	762.00000
47.40303	779.00000
47.42283	790.00000
47.44263	797.00000
47.46242	816.00000
47.48222	812.00000
47.50201	826.00000
47.52181	841.00000
47.54161	845.00000
47.56140	869.00000
47.58120	877.00000
47.60099	903.00000
47.62079	913.00000
47.64059	923.00000
47.66038	956.00000
47.68018	967.00000
47.69997	987.00000
47.71977	997.00000
47.73957	1031.00000
47.75936	1043.00000
47.77916	1058.00000
47.79895	1065.00000
47.81875	1078.00000
47.83855	1080.00000
47.85834	1073.00000
47.87814	1053.00000
47.89793	1059.00000
47.91773	1029.00000
47.93753	1027.00000
47.95732	1004.00000
47.97712	1004.00000
47.99691	982.00000
48.01671	981.00000
48.03651	970.00000
48.05630	966.00000
48.07610	942.00000
48.09589	933.00000
48.11569	923.00000
48.13549	902.00000
48.15528	892.00000
48.17508	875.00000
48.19487	872.00000
48.21467	872.00000
48.23447	857.00000
48.25426	872.00000
48.27406	863.00000
48.29385	878.00000
48.31365	888.00000
48.33345	892.00000
48.35324	909.00000
48.37304	924.00000
48.39283	938.00000
48.41263	950.00000
48.43243	978.00000
48.45222	992.00000
48.47202	1012.00000
48.49181	1040.00000
48.51161	1072.00000
48.53141	1086.00000
48.55120	1115.00000
48.57100	1123.00000
48.59079	1138.00000
48.61059	1142.00000
48.63039	1144.00000
48.65018	1138.00000
48.66998	1136.00000
48.68977	1129.00000
48.70957	1108.00000
48.72937	1095.00000
48.74916	1077.00000
48.76896	1068.00000
48.78875	1068.00000
48.80855	1081.00000
48.82835	1108.00000
48.84814	1133.00000
48.86794	1170.00000
48.88773	1201.00000
48.90753	1237.00000
48.92733	1264.00000
48.94712	1286.00000
48.96692	1312.00000
48.98671	1325.00000
49.00651	1331.00000
49.02631	1346.00000
49.04610	1354.00000
49.06590	1355.00000
49.08569	1341.00000
49.10549	1331.00000
49.12529	1323.00000
49.14508	1272.00000
49.16488	1223.00000
49.18467	1208.00000
49.20447	1161.00000
49.22427	1123.00000
49.24406	1121.00000
49.26386	1128.00000
49.28365	1137.00000
49.30345	1163.00000
49.32325	1202.00000
49.34304	1243.00000
49.36284	1274.00000
49.38263	1316.00000
49.40243	1345.00000
49.42223	1374.00000
49.44202	1380.00000
49.46182	1373.00000
49.48161	1364.00000
49.50141	1331.00000
49.52121	1278.00000
49.54100	1234.00000
49.56080	1194.00000
49.58059	1139.00000
49.60039	1085.00000
49.62019	1057.00000
49.63998	1020.00000
49.65978	1001.00000
49.67957	947.00000
49.69937	938.00000
49.71917	909.00000
49.73896	876.00000
49.75876	856.00000
49.77855	838.00000
49.79835	809.00000
49.81815	799.00000
49.83794	783.00000
49.85774	781.00000
49.87753	767.00000
49.89733	761.00000
49.91713	772.00000
49.93692	755.00000
49.95672	749.00000
49.97651	749.00000
49.99631	747.00000
50.01611	756.00000
50.03590	751.00000
50.05570	764.00000
50.07549	767.00000
50.09529	775.00000
50.11509	770.00000
50.13488	784.00000
50.15468	788.00000
50.17447	801.00000
50.19427	803.00000
50.21407	813.00000
50.23386	826.00000
50.25366	821.00000
50.27345	839.00000
50.29325	840.00000
50.31305	853.00000
50.33284	873.00000
50.35264	890.00000
50.37243	907.00000
50.39223	933.00000
50.41203	956.00000
50.43182	970.00000
50.45162	986.00000
50.47141	994.00000
50.49121	1016.00000
50.51101	1029.00000
50.53080	1019.00000
50.55060	1037.00000
50.57039	1012.00000
50.59019	990.00000
50.60999	969.00000
50.62978	927.00000
50.64958	901.00000
50.66937	876.00000
50.68917	848.00000
50.70897	818.00000
50.72876	810.00000
50.74856	788.00000
50.76835	777.00000
50.78815	773.00000
50.80795	767.00000
50.82774	762.00000
50.84754	762.00000
50.86733	765.00000
50.88713	750.00000
50.90693	756.00000
50.92672	754.00000
50.94652	761.00000
50.96631	765.00000
50.98611	768.00000
51.00591	777.00000
51.02570	779.00000
51.04550	771.00000
51.06529	757.00000
51.08509	750.00000
51.10489	729.00000
51.12468	724.00000
51.14448	705.00000
51.16427	698.00000
51.18407	700.00000
51.20387	690.00000
51.22366	714.00000
51.24346	708.00000
51.26325	718.00000
51.28305	730.00000
51.30285	726.00000
51.32264	733.00000
51.34244	730.00000
51.36223	739.00000
51.38203	760.00000
51.40183	759.00000
51.42162	775.00000
51.44142	799.00000
51.46121	791.00000
51.48101	815.00000
51.50081	812.00000
51.52060	816.00000
51.54040	819.00000
51.56019	819.00000
51.57999	817.00000
51.59979	825.00000
51.61958	819.00000
51.63938	833.00000
51.65917	840.00000
51.67897	842.00000
51.69877	844.00000
51.71856	853.00000
51.73836	850.00000
51.75815	867.00000
51.77795	845.00000
51.79775	856.00000
51.81754	830.00000
51.83734	812.00000
51.85713	789.00000
51.87693	779.00000
51.89673	744.00000
51.91652	738.00000
51.93632	740.00000
51.95611	723.00000
51.97591	717.00000
51.99571	710.00000
52.01550	713.00000
52.03530	711.00000
52.05509	704.00000
52.07489	705.00000
52.09469	707.00000
52.11448	697.00000
52.13428	694.00000
52.15407	690.00000
52.17387	695.00000
52.19367	687.00000
52.21346	707.00000
52.23326	695.00000
52.25305	707.00000
52.27285	720.00000
52.29265	714.00000
52.31244	722.00000
52.33224	722.00000
52.35203	723.00000
52.37183	716.00000
52.39163	726.00000
52.41142	711.00000
52.43122	713.00000
52.45102	715.00000
52.47081	702.00000
52.49061	686.00000
52.51040	694.00000
52.53020	678.00000
52.55000	676.00000
52.56979	689.00000
52.58959	689.00000
52.60938	699.00000
52.62918	719.00000
52.64898	739.00000
52.66877	754.00000
52.68857	776.00000
52.70836	800.00000
52.72816	810.00000
52.74796	821.00000
52.76775	836.00000
52.78755	859.00000
52.80734	880.00000
52.82714	909.00000
52.84694	933.00000
52.86673	973.00000
52.88653	999.00000
52.90632	1019.00000
52.92612	1066.00000
52.94592	1087.00000
52.96571	1127.00000
52.98551	1148.00000
53.00530	1183.00000
53.02510	1195.00000
53.04490	1194.00000
53.06469	1171.00000
53.08449	1180.00000
53.10428	1133.00000
53.12408	1110.00000
53.14388	1095.00000
53.16367	1077.00000
53.18347	1071.00000
53.20326	1074.00000
53.22306	1075.00000
53.24286	1092.00000
53.26265	1104.00000
53.28245	1118.00000
53.30224	1126.00000
53.32204	1135.00000
53.34184	1119.00000
53.36163	1110.00000
53.38143	1075.00000
53.40122	1035.00000
53.42102	983.00000
53.44082	941.00000
53.46061	880.00000
53.48041	845.00000
53.50020	804.00000
53.52000	772.00000
53.53980	749.00000
53.55959	725.00000
53.57939	704.00000
53.59918	688.00000
53.61898	669.00000
53.63878	668.00000
53.65857	661.00000
53.67837	674.00000
53.69816	670.00000
53.71796	684.00000
53.73776	700.00000
53.75755	705.00000
53.77735	700.00000
53.79714	723.00000
53.81694	732.00000
53.83674	731.00000
53.85653	753.00000
53.87633	761.00000
53.89612	768.00000
53.91592	792.00000
53.93572	797.00000
53.95551	820.00000
53.97531	838.00000
53.99510	854.00000
54.01490	861.00000
54.03470	880.00000
54.05449	880.00000
54.07429	886.00000
54.09408	896.00000
54.11388	900.00000
54.13368	898.00000
54.15347	909.00000
54.17327	888.00000
54.19306	890.00000
54.21286	877.00000
54.23266	862.00000
54.25245	848.00000
54.27225	828.00000
54.29204	805.00000
54.31184	785.00000
54.33164	758.00000
54.35143	734.00000
54.37123	709.00000
54.39102	691.00000
54.41082	671.00000
54.43062	663.00000
54.45041	646.00000
54.47021	639.00000
54.49000	641.00000
54.50980	617.00000
54.52960	630.00000
54.54939	611.00000
54.56919	613.00000
54.58898	616.00000
54.60878	618.00000
54.62858	624.00000
54.64837	631.00000
54.66817	635.00000
54.68796	646.00000
54.70776	651.00000
54.72756	646.00000
54.74735	652.00000
54.76715	648.00000
54.78694	640.00000
54.80674	640.00000
54.82654	634.00000
54.84633	639.00000
54.86613	641.00000
54.88592	632.00000
54.90572	629.00000
54.92552	633.00000
54.94531	621.00000
54.96511	621.00000
54.98490	608.00000
55.00470	610.00000
55.02450	604.00000
55.04429	597.00000
55.06409	606.00000
55.08388	604.00000
55.10368	624.00000
55.12348	632.00000
55.14327	633.00000
55.16307	638.00000
55.18286	642.00000
55.20266	644.00000
55.22246	633.00000
55.24225	636.00000
55.26205	634.00000
55.28184	648.00000
55.30164	640.00000
55.32144	655.00000
55.34123	659.00000
55.36103	670.00000
55.38082	671.00000
55.40062	663.00000
55.42042	666.00000
55.44021	652.00000
55.46001	645.00000
55.47980	640.00000
55.49960	630.00000
55.51940	627.00000
55.53919	622.00000
55.55899	614.00000
55.57878	622.00000
55.59858	611.00000
55.61838	610.00000
55.63817	609.00000
55.65797	619.00000
55.67776	628.00000
55.69756	628.00000
55.71736	641.00000
55.73715	653.00000
55.75695	663.00000
55.77674	665.00000
55.79654	691.00000
55.81634	702.00000
55.83613	716.00000
55.85593	747.00000
55.87572	755.00000
55.89552	788.00000
55.91532	793.00000
55.93511	822.00000
55.95491	830.00000
55.97470	844.00000
55.99450	843.00000
56.01430	864.00000
56.03409	862.00000
56.05389	857.00000
56.07368	885.00000
56.09348	872.00000
56.11328	885.00000
56.13307	891.00000
56.15287	903.00000
56.17266	907.00000
56.19246	908.00000
56.21226	907.00000
56.23205	911.00000
56.25185	892.00000
56.27164	882.00000
56.29144	869.00000
56.31124	843.00000
56.33103	813.00000
56.35083	792.00000
56.37062	760.00000
56.39042	724.00000
56.41022	709.00000
56.43001	697.00000
56.44981	677.00000
56.46960	667.00000
56.48940	656.00000
56.50920	662.00000
56.52899	640.00000
56.54879	631.00000
56.56858	636.00000
56.58838	640.00000
56.60818	637.00000
56.62797	636.00000
56.64777	654.00000
56.66756	649.00000
56.68736	660.00000
56.70716	652.00000
56.72695	671.00000
56.74675	672.00000
56.76654	676.00000
56.78634	689.00000
56.80614	683.00000
56.82593	686.00000
56.84573	680.00000
56.86552	685.00000
56.88532	680.00000
56.90512	686.00000
56.92491	696.00000
56.94471	694.00000
56.96450	700.00000
56.98430	693.00000
57.00410	699.00000
57.02389	689.00000
57.04369	686.00000
57.06348	688.00000
57.08328	697.00000
57.10308	678.00000
57.12287	690.00000
57.14267	666.00000
57.16246	672.00000
57.18226	653.00000
57.20206	645.00000
57.22185	636.00000
57.24165	632.00000
57.26144	625.00000
57.28124	613.00000
57.30104	616.00000
57.32083	605.00000
57.34063	602.00000
57.36042	606.00000
57.38022	604.00000
57.40002	599.00000
57.41981	610.00000
57.43961	609.00000
57.45940	619.00000
57.47920	632.00000
57.49900	640.00000
57.51879	660.00000
57.53859	664.00000
57.55838	671.00000
57.57818	680.00000
57.59798	675.00000
57.61777	684.00000
57.63757	687.00000
57.65736	701.00000
57.67716	712.00000
57.69696	726.00000
57.71675	739.00000
57.73655	747.00000
57.75634	757.00000
57.77614	761.00000
57.79594	771.00000
57.81573	773.00000
57.83553	765.00000
57.85532	763.00000
57.87512	761.00000
57.89492	726.00000
57.91471	716.00000
57.93451	712.00000
57.95430	684.00000
57.97410	658.00000
57.99390	667.00000
58.01369	648.00000
58.03349	638.00000
58.05328	626.00000
58.07308	624.00000
58.09288	618.00000
58.11267	607.00000
58.13247	605.00000
58.15226	603.00000
58.17206	596.00000
58.19186	603.00000
58.21165	590.00000
58.23145	586.00000
58.25124	587.00000
58.27104	576.00000
58.29084	583.00000
58.31063	580.00000
58.33043	579.00000
58.35022	579.00000
58.37002	582.00000
58.38982	585.00000
58.40961	582.00000
58.42941	586.00000
58.44920	585.00000
58.46900	588.00000
58.48880	588.00000
58.50859	588.00000
58.52839	595.00000
58.54818	598.00000
58.56798	585.00000
58.58778	593.00000
58.60757	580.00000
58.62737	585.00000
58.64716	576.00000
58.66696	583.00000
58.68676	586.00000
58.70655	585.00000
58.72635	585.00000
58.74614	583.00000
58.76594	586.00000
58.78574	581.00000
58.80553	582.00000
58.82533	583.00000
58.84512	586.00000
58.86492	579.00000
58.88472	586.00000
58.90451	587.00000
58.92431	592.00000
58.94410	588.00000
58.96390	598.00000
58.98370	599.00000
59.00349	595.00000
59.02329	608.00000
59.04308	604.00000
59.06288	610.00000
59.08268	612.00000
59.10247	618.00000
59.12227	622.00000
59.14206	630.00000
59.16186	632.00000
59.18166	641.00000
59.20145	640.00000
59.22125	645.00000
59.24104	641.00000
59.26084	627.00000
59.28064	626.00000
59.30043	617.00000
59.32023	614.00000
59.34002	605.00000
59.35982	608.00000
59.37962	614.00000
59.39941	610.00000
59.41921	616.00000
59.43900	615.00000
59.45880	622.00000
59.47860	622.00000
59.49839	628.00000
59.51819	634.00000
59.53798	624.00000
59.55778	634.00000
59.57758	624.00000
59.59737	620.00000
59.61717	611.00000
59.63696	613.00000
59.65676	605.00000
59.67656	609.00000
59.69635	595.00000
59.71615	605.00000
59.73594	591.00000
59.75574	587.00000
59.77554	584.00000
59.79533	570.00000
59.81513	572.00000
59.83492	571.00000
59.85472	555.00000
59.87452	563.00000
59.89431	554.00000
59.91411	561.00000
59.93390	554.00000
59.95370	549.00000
59.97350	558.00000
59.99329	545.00000
60.01309	541.00000
60.03288	547.00000
60.05268	535.00000
60.07248	546.00000
60.09227	547.00000
60.11207	548.00000
60.13186	557.00000
60.15166	560.00000
60.17146	564.00000
60.19125	575.00000
60.21105	578.00000
60.23084	586.00000
60.25064	593.00000
60.27044	598.00000
60.29023	603.00000
60.31003	608.00000
60.32982	618.00000
60.34962	624.00000
60.36942	637.00000
60.38921	646.00000
60.40901	651.00000
60.42880	669.00000
60.44860	665.00000
60.46840	676.00000
60.48819	672.00000
60.50799	676.00000
60.52778	673.00000
60.54758	664.00000
60.56738	658.00000
60.58717	651.00000
60.60697	648.00000
60.62676	645.00000
60.64656	634.00000
60.66636	644.00000
60.68615	638.00000
60.70595	640.00000
60.72574	634.00000
60.74554	641.00000
60.76534	637.00000
60.78513	635.00000
60.80493	634.00000
60.82472	636.00000
60.84452	628.00000
60.86432	622.00000
60.88411	617.00000
60.90391	614.00000
60.92370	604.00000
60.94350	590.00000
60.96330	588.00000
60.98309	577.00000
61.00289	565.00000
61.02268	559.00000
61.04248	555.00000
61.06228	550.00000
61.08207	548.00000
61.10187	546.00000
61.12166	536.00000
61.14146	545.00000
61.16126	539.00000
61.18105	546.00000
61.20085	547.00000
61.22064	558.00000
61.24044	564.00000
61.26024	563.00000
61.28003	564.00000
61.29983	567.00000
61.31962	564.00000
61.33942	566.00000
61.35922	563.00000
61.37901	565.00000
61.39881	566.00000
61.41860	564.00000
61.43840	563.00000
61.45820	555.00000
61.47799	557.00000
61.49779	546.00000
61.51758	546.00000
61.53738	552.00000
61.55718	533.00000
61.57697	548.00000
61.59677	552.00000
61.61656	533.00000
61.63636	539.00000
61.65616	535.00000
61.67595	535.00000
61.69575	526.00000
61.71554	527.00000
61.73534	523.00000
61.75514	532.00000
61.77493	522.00000
61.79473	531.00000
61.81452	533.00000
61.83432	534.00000
61.85412	537.00000
61.87391	541.00000
61.89371	531.00000
61.91350	539.00000
61.93330	527.00000
61.95310	534.00000
61.97289	530.00000
61.99269	529.00000
62.01248	533.00000
62.03228	535.00000
62.05208	531.00000
62.07187	533.00000
62.09167	521.00000
62.11146	531.00000
62.13126	522.00000
62.15106	529.00000
62.17085	525.00000
62.19065	532.00000
62.21044	526.00000
62.23024	524.00000
62.25004	534.00000
62.26983	528.00000
62.28963	531.00000
62.30942	523.00000
62.32922	524.00000
62.34902	514.00000
62.36881	509.00000
62.38861	501.00000
62.40840	507.00000
62.42820	504.00000
62.44800	509.00000
62.46779	498.00000
62.48759	503.00000
62.50738	508.00000
62.52718	497.00000
62.54698	508.00000
62.56677	499.00000
62.58657	505.00000
62.60636	511.00000
62.62616	509.00000
62.64596	511.00000
62.66575	514.00000
62.68555	524.00000
62.70534	513.00000
62.72514	524.00000
62.74494	524.00000
62.76473	536.00000
62.78453	533.00000
62.80432	550.00000
62.82412	548.00000
62.84392	563.00000
62.86371	567.00000
62.88351	575.00000
62.90330	580.00000
62.92310	600.00000
62.94290	608.00000
62.96269	612.00000
62.98249	626.00000
63.00228	635.00000
63.02208	637.00000
63.04188	638.00000
63.06167	636.00000
63.08147	645.00000
63.10126	640.00000
63.12106	639.00000
63.14086	637.00000
63.16065	645.00000
63.18045	626.00000
63.20024	645.00000
63.22004	639.00000
63.23984	651.00000
63.25963	651.00000
63.27943	660.00000
63.29922	657.00000
63.31902	656.00000
63.33882	667.00000
63.35861	662.00000
63.37841	664.00000
63.39820	679.00000
63.41800	668.00000
63.43780	666.00000
63.45759	673.00000
63.47739	670.00000
63.49718	662.00000
63.51698	662.00000
63.53678	666.00000
63.55657	650.00000
63.57637	651.00000
63.59616	650.00000
63.61596	645.00000
63.63576	637.00000
63.65555	649.00000
63.67535	637.00000
63.69514	640.00000
63.71494	643.00000
63.73474	651.00000
63.75453	649.00000
63.77433	649.00000
63.79412	650.00000
63.81392	641.00000
63.83372	626.00000
63.85351	617.00000
63.87331	600.00000
63.89310	589.00000
63.91290	572.00000
63.93270	555.00000
63.95249	560.00000
63.97229	539.00000
63.99208	535.00000
64.01188	527.00000
64.03168	523.00000
64.05147	521.00000
64.07127	512.00000
64.09106	516.00000
64.11086	509.00000
64.13066	504.00000
64.15045	501.00000
64.17025	488.00000
64.19004	486.00000
64.20984	487.00000
64.22964	482.00000
64.24943	485.00000
64.26923	493.00000
64.28902	490.00000
64.30882	496.00000
64.32862	493.00000
64.34841	496.00000
64.36821	497.00000
64.38800	493.00000
64.40780	499.00000
64.42760	506.00000
64.44739	506.00000
64.46719	519.00000
64.48698	512.00000
64.50678	526.00000
64.52658	516.00000
64.54637	515.00000
64.56617	525.00000
64.58596	514.00000
64.60576	522.00000
64.62556	514.00000
64.64535	512.00000
64.66515	513.00000
64.68494	509.00000
64.70474	495.00000
64.72454	509.00000
64.74433	505.00000
64.76413	497.00000
64.78392	501.00000
64.80372	499.00000
64.82352	488.00000
64.84331	499.00000
64.86311	485.00000
64.88290	489.00000
64.90270	501.00000
64.92250	480.00000
64.94229	500.00000
64.96209	484.00000
64.98188	493.00000
65.00168	485.00000
65.02148	494.00000
65.04127	491.00000
65.06107	497.00000
65.08086	490.00000
65.10066	491.00000
65.12046	493.00000
65.14025	485.00000
65.16005	480.00000
65.17984	484.00000
65.19964	481.00000
65.21944	478.00000
65.23923	471.00000
65.25903	482.00000
65.27882	467.00000
65.29862	482.00000
65.31842	477.00000
65.33821	478.00000
65.35801	482.00000
65.37780	476.00000
65.39760	471.00000
65.41740	472.00000
65.43719	469.00000
65.45699	468.00000
65.47678	464.00000
65.49658	468.00000
65.51638	473.00000
65.53617	460.00000
65.55597	474.00000
65.57576	466.00000
65.59556	476.00000
65.61536	467.00000
65.63515	486.00000
65.65495	476.00000
65.67474	485.00000
65.69454	495.00000
65.71434	490.00000
65.73413	503.00000
65.75393	496.00000
65.77372	509.00000
65.79352	510.00000
65.81332	520.00000
65.83311	518.00000
65.85291	530.00000
65.87270	535.00000
65.89250	534.00000
65.91230	541.00000
65.93209	541.00000
65.95189	551.00000
65.97168	543.00000
65.99148	544.00000
66.01128	558.00000
66.03107	540.00000
66.05087	540.00000
66.07066	539.00000
66.09046	533.00000
66.11026	533.00000
66.13005	524.00000
66.14985	532.00000
66.16964	524.00000
66.18944	508.00000
66.20924	513.00000
66.22903	499.00000
66.24883	491.00000
66.26862	491.00000
66.28842	495.00000
66.30822	493.00000
66.32801	497.00000
66.34781	497.00000
66.36760	497.00000
66.38740	509.00000
66.40720	504.00000
66.42699	508.00000
66.44679	523.00000
66.46658	514.00000
66.48638	520.00000
66.50618	528.00000
66.52597	521.00000
66.54577	530.00000
66.56556	540.00000
66.58536	535.00000
66.60516	533.00000
66.62495	549.00000
66.64475	538.00000
66.66454	542.00000
66.68434	543.00000
66.70414	536.00000
66.72393	535.00000
66.74373	534.00000
66.76352	517.00000
66.78332	528.00000
66.80312	519.00000
66.82291	516.00000
66.84271	515.00000
66.86250	514.00000
66.88230	510.00000
66.90210	511.00000
66.92189	513.00000
66.94169	515.00000
66.96148	513.00000
66.98128	517.00000
67.00108	512.00000
67.02087	507.00000
67.04067	513.00000
67.06046	511.00000
67.08026	518.00000
67.10006	525.00000
67.11985	531.00000
67.13965	535.00000
67.15944	539.00000
67.17924	538.00000
67.19904	543.00000
67.21883	549.00000
67.23863	540.00000
67.25842	534.00000
67.27822	536.00000
67.29802	527.00000
67.31781	516.00000
67.33761	513.00000
67.35740	523.00000
67.37720	512.00000
67.39700	516.00000
67.41679	519.00000
67.43659	524.00000
67.45638	517.00000
67.47618	520.00000
67.49598	525.00000
67.51577	519.00000
67.53557	514.00000
67.55536	523.00000
67.57516	517.00000
67.59496	526.00000
67.61475	521.00000
67.63455	527.00000
67.65434	527.00000
67.67414	531.00000
67.69394	533.00000
67.71373	530.00000
67.73353	543.00000
67.75332	533.00000
67.77312	539.00000
67.79292	540.00000
67.81271	536.00000
67.83251	528.00000
67.85230	523.00000
67.87210	507.00000
67.89190	498.00000
67.91169	494.00000
67.93149	494.00000
67.95128	491.00000
67.97108	492.00000
67.99088	493.00000
68.01067	494.00000
68.03047	480.00000
68.05026	494.00000
68.07006	481.00000
68.08986	490.00000
68.10965	485.00000
68.12945	486.00000
68.14924	484.00000
68.16904	486.00000
68.18884	490.00000
68.20863	496.00000
68.22843	494.00000
68.24822	493.00000
68.26802	504.00000
68.28782	497.00000
68.30761	500.00000
68.32741	503.00000
68.34720	502.00000
68.36700	510.00000
68.38680	506.00000
68.40659	510.00000
68.42639	501.00000
68.44618	507.00000
68.46598	502.00000
68.48578	503.00000
68.50557	503.00000
68.52537	515.00000
68.54516	511.00000
68.56496	512.00000
68.58476	517.00000
68.60455	513.00000
68.62435	514.00000
68.64414	516.00000
68.66394	522.00000
68.68374	511.00000
68.70353	512.00000
68.72333	515.00000
68.74312	511.00000
68.76292	513.00000
68.78272	523.00000
68.80251	516.00000
68.82231	526.00000
68.84210	514.00000
68.86190	519.00000
68.88170	515.00000
68.90149	517.00000
68.92129	518.00000
68.94108	514.00000
68.96088	517.00000
68.98068	520.00000
69.00047	508.00000
69.02027	520.00000
69.04006	510.00000
69.05986	517.00000
69.07966	513.00000
69.09945	507.00000
69.11925	507.00000
69.13904	505.00000
69.15884	505.00000
69.17864	503.00000
69.19843	498.00000
69.21823	508.00000
69.23802	496.00000
69.25782	500.00000
69.27762	496.00000
69.29741	496.00000
69.31721	496.00000
69.33700	497.00000
69.35680	495.00000
69.37660	506.00000
69.39639	501.00000
69.41619	500.00000
69.43598	505.00000
69.45578	508.00000
69.47558	507.00000
69.49537	517.00000
69.51517	516.00000
69.53496	526.00000
69.55476	534.00000
69.57456	542.00000
69.59435	534.00000
69.61415	556.00000
69.63394	551.00000
69.65374	556.00000
69.67354	561.00000
69.69333	565.00000
69.71313	563.00000
69.73292	570.00000
69.75272	559.00000
69.77252	555.00000
69.79231	562.00000
69.81211	546.00000
69.83190	548.00000
69.85170	552.00000
69.87150	554.00000
69.89129	547.00000
69.91109	553.00000
69.93088	545.00000
69.95068	549.00000
69.97048	556.00000
69.99027	551.00000
70.01007	556.00000
70.02986	568.00000
70.04966	567.00000
70.06946	558.00000
70.08925	559.00000
70.10905	557.00000
70.12884	556.00000
70.14864	551.00000
70.16844	551.00000
70.18823	569.00000
70.20803	562.00000
70.22782	566.00000
70.24762	582.00000
70.26742	569.00000
70.28721	594.00000
70.30701	580.00000
70.32680	605.00000
70.34660	592.00000
70.36640	600.00000
70.38619	602.00000
70.40599	596.00000
70.42578	591.00000
70.44558	594.00000
70.46538	590.00000
70.48517	581.00000
70.50497	571.00000
70.52476	565.00000
70.54456	552.00000
70.56436	541.00000
70.58415	537.00000
70.60395	535.00000
70.62374	522.00000
70.64354	525.00000
70.66334	518.00000
70.68313	508.00000
70.70293	513.00000
70.72272	502.00000
70.74252	499.00000
70.76232	496.00000
70.78211	490.00000
70.80191	477.00000
70.82170	494.00000
70.84150	484.00000
70.86130	487.00000
70.88109	492.00000
70.90089	495.00000
70.92068	491.00000
70.94048	487.00000
70.96028	485.00000
70.98007	500.00000
70.99987	494.00000
71.01966	504.00000
71.03946	507.00000
71.05926	510.00000
71.07905	512.00000
71.09885	517.00000
71.11864	516.00000
71.13844	510.00000
71.15824	521.00000
71.17803	517.00000
71.19783	518.00000
71.21762	517.00000
71.23742	514.00000
71.25722	512.00000
71.27701	513.00000
71.29681	507.00000
71.31660	508.00000
71.33640	506.00000
71.35620	518.00000
71.37599	499.00000
71.39579	514.00000
71.41558	497.00000
71.43538	503.00000
71.45518	500.00000
71.47497	502.00000
71.49477	502.00000
71.51456	500.00000
71.53436	502.00000
71.55416	492.00000
71.57395	492.00000
71.59375	493.00000
71.61354	482.00000
71.63334	490.00000
71.65314	491.00000
71.67293	494.00000
71.69273	494.00000
71.71252	496.00000
71.73232	498.00000
71.75212	502.00000
71.77191	503.00000
71.79171	496.00000
71.81150	495.00000
71.83130	496.00000
71.85110	492.00000
71.87089	482.00000
71.89069	483.00000
71.91048	481.00000
71.93028	482.00000
71.95008	479.00000
71.96987	483.00000
71.98967	485.00000
72.00946	487.00000
72.02926	486.00000
72.04906	482.00000
72.06885	478.00000
72.08865	478.00000
72.10844	476.00000
72.12824	474.00000
72.14804	486.00000
72.16783	483.00000
72.18763	490.00000
72.20742	491.00000
72.22722	492.00000
72.24702	500.00000
72.26681	497.00000
72.28661	495.00000
72.30640	505.00000
72.32620	504.00000
72.34600	493.00000
72.36579	504.00000
72.38559	504.00000
72.40538	501.00000
72.42518	499.00000
72.44498	511.00000
72.46477	514.00000
72.48457	511.00000
72.50436	514.00000
72.52416	511.00000
72.54396	517.00000
72.56375	515.00000
72.58355	517.00000
72.60334	515.00000
72.62314	517.00000
72.64294	520.00000
72.66273	512.00000
72.68253	502.00000
72.70232	513.00000
72.72212	498.00000
72.74192	496.00000
72.76171	493.00000
72.78151	487.00000
72.80130	488.00000
72.82110	496.00000
72.84090	491.00000
72.86069	496.00000
72.88049	504.00000
72.90028	504.00000
72.92008	492.00000
72.93988	496.00000
72.95967	504.00000
72.97947	493.00000
72.99926	494.00000
73.01906	494.00000
73.03886	496.00000
73.05865	485.00000
73.07845	495.00000
73.09824	493.00000
73.11804	497.00000
73.13784	497.00000
73.15763	500.00000
73.17743	502.00000
73.19722	493.00000
73.21702	507.00000
73.23682	503.00000
73.25661	496.00000
73.27641	513.00000
73.29620	497.00000
73.31600	497.00000
73.33580	496.00000
73.35559	497.00000
73.37539	490.00000
73.39518	489.00000
73.41498	481.00000
73.43478	478.00000
73.45457	478.00000
73.47437	475.00000
73.49416	471.00000
73.51396	476.00000
73.53376	491.00000
73.55355	476.00000
73.57335	486.00000
73.59314	483.00000
73.61294	489.00000
73.63274	482.00000
73.65253	488.00000
73.67233	485.00000
73.69212	496.00000
73.71192	496.00000
73.73172	489.00000
73.75151	496.00000
73.77131	495.00000
73.79110	482.00000
73.81090	485.00000
73.83070	485.00000
73.85049	483.00000
73.87029	478.00000
73.89008	495.00000
73.90988	482.00000
73.92968	481.00000
73.94947	480.00000
73.96927	472.00000
73.98906	468.00000
74.00886	462.00000
74.02866	466.00000
74.04845	463.00000
74.06825	463.00000
74.08804	467.00000
74.10784	466.00000
74.12764	464.00000
74.14743	472.00000
74.16723	477.00000
74.18702	465.00000
74.20682	480.00000
74.22662	479.00000
74.24641	476.00000
74.26621	480.00000
74.28600	480.00000
74.30580	480.00000
74.32560	479.00000
74.34539	481.00000
74.36519	482.00000
74.38498	490.00000
74.40478	486.00000
74.42458	492.00000
74.44437	502.00000
74.46417	493.00000
74.48396	494.00000
74.50376	499.00000
74.52356	500.00000
74.54335	498.00000
74.56315	491.00000
74.58294	502.00000
74.60274	503.00000
74.62254	501.00000
74.64233	505.00000
74.66213	513.00000
74.68192	511.00000
74.70172	517.00000
74.72152	512.00000
74.74131	509.00000
74.76111	512.00000
74.78090	516.00000
74.80070	510.00000
74.82050	515.00000
74.84029	513.00000
74.86009	530.00000
74.87988	517.00000
74.89968	522.00000
74.91948	526.00000
74.93927	533.00000
74.95907	523.00000
74.97886	531.00000
74.99866	527.00000
75.01846	524.00000
75.03825	519.00000
75.05805	520.00000
75.07784	518.00000
75.09764	514.00000
75.11744	510.00000
75.13723	515.00000
75.15703	493.00000
75.17682	497.00000
75.19662	488.00000
75.21642	485.00000
75.23621	482.00000
75.25601	486.00000
75.27580	482.00000
75.29560	490.00000
75.31540	476.00000
75.33519	483.00000
75.35499	477.00000
75.37478	478.00000
75.39458	474.00000
75.41438	480.00000
75.43417	475.00000
75.45397	474.00000
75.47376	472.00000
75.49356	470.00000
75.51336	464.00000
75.53315	468.00000
75.55295	475.00000
75.57274	483.00000
75.59254	481.00000
75.61234	494.00000
75.63213	496.00000
75.65193	489.00000
75.67172	489.00000
75.69152	485.00000
75.71132	490.00000
75.73111	490.00000
75.75091	485.00000
75.77070	497.00000
75.79050	495.00000
75.81030	490.00000
75.83009	480.00000
75.84989	488.00000
75.86968	475.00000
75.88948	481.00000
75.90928	483.00000
75.92907	484.00000
75.94887	489.00000
75.96866	495.00000
75.98846	498.00000
76.00826	494.00000
76.02805	496.00000
76.04785	499.00000
76.06764	496.00000
76.08744	500.00000
76.10724	497.00000
76.12703	500.00000
76.14683	503.00000
76.16662	498.00000
76.18642	494.00000
76.20622	492.00000
76.22601	496.00000
76.24581	493.00000
76.26560	492.00000
76.28540	499.00000
76.30520	497.00000
76.32499	494.00000
76.34479	498.00000
76.36458	490.00000
76.38438	485.00000
76.40418	485.00000
76.42397	478.00000
76.44377	486.00000
76.46356	472.00000
76.48336	479.00000
76.50316	492.00000
76.52295	483.00000
76.54275	488.00000
76.56254	494.00000
76.58234	492.00000
76.60214	491.00000
76.62193	501.00000
76.64173	497.00000
76.66152	503.00000
76.68132	503.00000
76.70112	502.00000
76.72091	499.00000
76.74071	497.00000
76.76050	488.00000
76.78030	485.00000
76.80010	479.00000
76.81989	472.00000
76.83969	470.00000
76.85948	465.00000
76.87928	464.00000
76.89908	469.00000
76.91887	459.00000
76.93867	468.00000
76.95846	461.00000
76.97826	461.00000
76.99806	465.00000
77.01785	462.00000
77.03765	466.00000
77.05744	465.00000
77.07724	462.00000
77.09704	459.00000
77.11683	453.00000
77.13663	455.00000
77.15642	456.00000
77.17622	449.00000
77.19602	450.00000
77.21581	453.00000
77.23561	452.00000
77.25540	451.00000
77.27520	449.00000
77.29500	458.00000
77.31479	462.00000
77.33459	456.00000
77.35438	461.00000
77.37418	461.00000
77.39398	462.00000
77.41377	462.00000
77.43357	462.00000
77.45336	466.00000
77.47316	460.00000
77.49296	465.00000
77.51275	462.00000
77.53255	463.00000
77.55234	470.00000
77.57214	464.00000
77.59194	473.00000
77.61173	469.00000
77.63153	474.00000
77.65132	468.00000
77.67112	476.00000
77.69092	480.00000
77.71071	484.00000
77.73051	486.00000
77.75030	493.00000
77.77010	495.00000
77.78990	499.00000
77.80969	492.00000
77.82949	501.00000
77.84928	493.00000
77.86908	496.00000
77.88888	497.00000
77.90867	498.00000
77.92847	507.00000
77.94826	492.00000
77.96806	499.00000
77.98786	503.00000
78.00765	493.00000
78.02745	502.00000
78.04724	502.00000
78.06704	507.00000
78.08684	504.00000
78.10663	503.00000
78.12643	499.00000
78.14622	496.00000
78.16602	492.00000
78.18582	494.00000
78.20561	497.00000
78.22541	502.00000
78.24520	498.00000
78.26500	503.00000
78.28480	505.00000
78.30459	499.00000
78.32439	498.00000
78.34418	504.00000
78.36398	503.00000
78.38378	504.00000
78.40357	502.00000
78.42337	502.00000
78.44316	502.00000
78.46296	505.00000
78.48276	506.00000
78.50255	511.00000
78.52235	527.00000
78.54214	521.00000
78.56194	525.00000
78.58174	528.00000
78.60153	537.00000
78.62133	527.00000
78.64112	533.00000
78.66092	539.00000
78.68072	532.00000
78.70051	536.00000
78.72031	537.00000
78.74010	530.00000
78.75990	535.00000
78.77970	536.00000
78.79949	530.00000
78.81929	525.00000
78.83908	520.00000
78.85888	510.00000
78.87868	515.00000
78.89847	504.00000
78.91827	501.00000
78.93806	510.00000
78.95786	503.00000
78.97766	508.00000
78.99745	505.00000
79.01725	512.00000
79.03704	502.00000
79.05684	505.00000
79.07664	508.00000
79.09643	505.00000
79.11623	499.00000
79.13602	502.00000
79.15582	505.00000
79.17562	510.00000
79.19541	502.00000
79.21521	510.00000
79.23500	512.00000
79.25480	511.00000
79.27460	508.00000
79.29439	517.00000
79.31419	512.00000
79.33398	515.00000
79.35378	516.00000
79.37358	513.00000
79.39337	520.00000
79.41317	516.00000
79.43296	516.00000
79.45276	514.00000
79.47256	515.00000
79.49235	507.00000
79.51215	503.00000
79.53194	499.00000
79.55174	496.00000
79.57154	492.00000
79.59133	489.00000
79.61113	485.00000
79.63092	489.00000
79.65072	488.00000
79.67052	483.00000
79.69031	485.00000
79.71011	477.00000
79.72990	473.00000
79.74970	468.00000
79.76950	459.00000
79.78929	458.00000
79.80909	459.00000
79.82888	463.00000
79.84868	453.00000
79.86848	462.00000
79.88827	468.00000
79.90807	462.00000
79.92786	461.00000
79.94766	461.00000
79.96746	468.00000
79.98725	459.00000
80.00705	463.00000
80.02684	467.00000
80.04664	465.00000
80.06644	474.00000
80.08623	472.00000
80.10603	477.00000
80.12582	479.00000
80.14562	482.00000
80.16542	472.00000
80.18521	477.00000
80.20501	480.00000
80.22480	478.00000
80.24460	483.00000
80.26440	483.00000
80.28419	489.00000
80.30399	505.00000
80.32378	493.00000
80.34358	504.00000
80.36338	499.00000
80.38317	503.00000
80.40297	492.00000
80.42276	490.00000
80.44256	493.00000
80.46236	487.00000
80.48215	496.00000
80.50195	493.00000
80.52174	489.00000
80.54154	499.00000
80.56134	490.00000
80.58113	489.00000
80.60093	488.00000
80.62072	484.00000
80.64052	483.00000
80.66032	490.00000
80.68011	488.00000
80.69991	497.00000
80.71970	498.00000
80.73950	501.00000
80.75930	498.00000
80.77909	498.00000
80.79889	497.00000
80.81868	502.00000
80.83848	507.00000
80.85828	509.00000
80.87807	512.00000
80.89787	521.00000
80.91766	521.00000
80.93746	531.00000
80.95726	520.00000
80.97705	531.00000
80.99685	528.00000
81.01664	528.00000
81.03644	534.00000
81.05624	529.00000
81.07603	535.00000
81.09583	532.00000
81.11562	536.00000
81.13542	529.00000
81.15522	527.00000
81.17501	532.00000
81.19481	527.00000
81.21460	538.00000
81.23440	526.00000
81.25420	531.00000
81.27399	527.00000
81.29379	525.00000
81.31358	520.00000
81.33338	522.00000
81.35318	531.00000
81.37297	527.00000
81.39277	537.00000
81.41256	534.00000
81.43236	537.00000
81.45216	530.00000
81.47195	527.00000
81.49175	527.00000
81.51154	517.00000
81.53134	515.00000
81.55114	516.00000
81.57093	512.00000
81.59073	531.00000
81.61052	514.00000
81.63032	530.00000
81.65012	535.00000
81.66991	524.00000
81.68971	535.00000
81.70950	527.00000
81.72930	531.00000
81.74910	538.00000
81.76889	536.00000
81.78869	536.00000
81.80848	543.00000
81.82828	540.00000
81.84808	541.00000
81.86787	535.00000
81.88767	532.00000
81.90746	534.00000
81.92726	522.00000
81.94706	516.00000
81.96685	513.00000
81.98665	512.00000
82.00644	502.00000
82.02624	499.00000
82.04604	499.00000
82.06583	493.00000
82.08563	488.00000
82.10542	486.00000
82.12522	488.00000
82.14502	485.00000
82.16481	491.00000
82.18461	487.00000
82.20440	494.00000
82.22420	487.00000
82.24400	491.00000
82.26379	482.00000
82.28359	490.00000
82.30338	481.00000
82.32318	477.00000
82.34298	483.00000
82.36277	481.00000
82.38257	480.00000
82.40236	484.00000
82.42216	487.00000
82.44196	485.00000
82.46175	493.00000
82.48155	483.00000
82.50134	486.00000
82.52114	478.00000
82.54094	480.00000
82.56073	475.00000
82.58053	476.00000
82.60032	478.00000
82.62012	478.00000
82.63992	478.00000
82.65971	479.00000
82.67951	471.00000
82.69930	469.00000
82.71910	487.00000
82.73890	467.00000
82.75869	486.00000
82.77849	478.00000
82.79828	487.00000
82.81808	478.00000
82.83788	488.00000
82.85767	486.00000
82.87747	488.00000
82.89726	491.00000
82.91706	487.00000
82.93686	489.00000
82.95665	485.00000
82.97645	486.00000
82.99624	477.00000
83.01604	483.00000
83.03584	483.00000
83.05563	475.00000
83.07543	482.00000
83.09522	488.00000
83.11502	481.00000
83.13482	495.00000
83.15461	495.00000
83.17441	492.00000
83.19420	501.00000
83.21400	496.00000
83.23380	497.00000
83.25359	500.00000
83.27339	496.00000
83.29318	499.00000
83.31298	503.00000
83.33278	506.00000
83.35257	511.00000
83.37237	507.00000
83.39216	512.00000
83.41196	515.00000
83.43176	505.00000
83.45155	506.00000
83.47135	508.00000
83.49114	498.00000
83.51094	504.00000
83.53074	506.00000
83.55053	492.00000
83.57033	508.00000
83.59012	498.00000
83.60992	495.00000
83.62972	503.00000
83.64951	497.00000
83.66931	504.00000
83.68910	497.00000
83.70890	501.00000
83.72870	502.00000
83.74849	498.00000
83.76829	499.00000
83.78808	494.00000
83.80788	498.00000
83.82768	495.00000
83.84747	490.00000
83.86727	487.00000
83.88706	490.00000
83.90686	482.00000
83.92666	485.00000
83.94645	475.00000
83.96625	475.00000
83.98604	475.00000
84.00584	478.00000
84.02564	472.00000
84.04543	473.00000
84.06523	479.00000
84.08503	481.00000
84.10482	473.00000
84.12462	475.00000
84.14441	477.00000
84.16421	475.00000
84.18401	475.00000
84.20380	477.00000
84.22360	484.00000
84.24339	487.00000
84.26319	488.00000
84.28299	488.00000
84.30278	488.00000
84.32258	488.00000
84.34237	484.00000
84.36217	484.00000
84.38197	488.00000
84.40176	487.00000
84.42156	487.00000
84.44135	489.00000
84.46115	488.00000
84.48095	491.00000
84.50074	483.00000
84.52054	489.00000
84.54033	488.00000
84.56013	484.00000
84.57993	482.00000
84.59972	483.00000
84.61952	480.00000
84.63931	469.00000
84.65911	473.00000
84.67891	473.00000
84.69870	466.00000
84.71850	475.00000
84.73829	480.00000
84.75809	485.00000
84.77789	482.00000
84.79768	482.00000
84.81748	482.00000
84.83727	477.00000
84.85707	479.00000
84.87687	469.00000
84.89666	477.00000
84.91646	466.00000
84.93625	470.00000
84.95605	469.00000
84.97585	469.00000
84.99564	471.00000
85.01544	471.00000
85.03523	476.00000
85.05503	481.00000
85.07483	479.00000
85.09462	488.00000
85.11442	490.00000
85.13421	492.00000
85.15401	491.00000
85.17381	487.00000
85.19360	482.00000
85.21340	485.00000
85.23319	485.00000
85.25299	492.00000
85.27279	498.00000
85.29258	497.00000
85.31238	503.00000
85.33217	498.00000
85.35197	493.00000
85.37177	499.00000
85.39156	496.00000
85.41136	493.00000
85.43115	496.00000
85.45095	495.00000
85.47075	488.00000
85.49054	477.00000
85.51034	484.00000
85.53013	476.00000
85.54993	476.00000
85.56973	477.00000
85.58952	479.00000
85.60932	485.00000
85.62911	476.00000
85.64891	480.00000
85.66871	484.00000
85.68850	474.00000
85.70830	474.00000
85.72809	478.00000
85.74789	473.00000
85.76769	481.00000
85.78748	473.00000
85.80728	478.00000
85.82707	491.00000
85.84687	476.00000
85.86667	483.00000
85.88646	485.00000
85.90626	476.00000
85.92605	483.00000
85.94585	475.00000
85.96565	478.00000
85.98544	484.00000
86.00524	480.00000
86.02503	482.00000
86.04483	481.00000
86.06463	478.00000
86.08442	477.00000
86.10422	484.00000
86.12401	473.00000
86.14381	486.00000
86.16361	479.00000
86.18340	482.00000
86.20320	470.00000
86.22299	478.00000
86.24279	477.00000
86.26259	474.00000
86.28238	477.00000
86.30218	483.00000
86.32197	485.00000
86.34177	487.00000
86.36157	493.00000
86.38136	499.00000
86.40116	494.00000
86.42095	512.00000
86.44075	504.00000
86.46055	507.00000
86.48034	512.00000
86.50014	503.00000
86.51993	505.00000
86.53973	504.00000
86.55953	497.00000
86.57932	496.00000
86.59912	489.00000
86.61891	488.00000
86.63871	480.00000
86.65851	480.00000
86.67830	472.00000
86.69810	482.00000
86.71789	477.00000
86.73769	468.00000
86.75749	479.00000
86.77728	463.00000
86.79708	466.00000
86.81687	469.00000
86.83667	461.00000
86.85647	474.00000
86.87626	471.00000
86.89606	475.00000
86.91585	481.00000
86.93565	476.00000
86.95545	476.00000
86.97524	474.00000
86.99504	480.00000
87.01483	467.00000
87.03463	473.00000
87.05443	475.00000
87.07422	474.00000
87.09402	476.00000
87.11381	481.00000
87.13361	474.00000
87.15341	473.00000
87.17320	481.00000
87.19300	476.00000
87.21279	479.00000
87.23259	483.00000
87.25239	485.00000
87.27218	486.00000
87.29198	482.00000
87.31177	493.00000
87.33157	482.00000
87.35137	490.00000
87.37116	490.00000
87.39096	485.00000
87.41075	485.00000
87.43055	485.00000
87.45035	493.00000
87.47014	488.00000
87.48994	485.00000
87.50973	487.00000
87.52953	482.00000
87.54933	476.00000
87.56912	479.00000
87.58892	484.00000
87.60871	486.00000
87.62851	493.00000
87.64831	497.00000
87.66810	491.00000
87.68790	501.00000
87.70769	490.00000
87.72749	497.00000
87.74729	481.00000
87.76708	483.00000
87.78688	479.00000
87.80667	473.00000
87.82647	475.00000
87.84627	472.00000
87.86606	488.00000
87.88586	478.00000
87.90565	482.00000
87.92545	486.00000
87.94525	488.00000
87.96504	492.00000
87.98484	486.00000
88.00463	491.00000
88.02443	495.00000
88.04423	490.00000
88.06402	491.00000
88.08382	492.00000
88.10361	494.00000
88.12341	492.00000
88.14321	498.00000
88.16300	491.00000
88.18280	486.00000
88.20259	481.00000
88.22239	484.00000
88.24219	472.00000
88.26198	477.00000
88.28178	475.00000
88.30157	478.00000
88.32137	482.00000
88.34117	484.00000
88.36096	479.00000
88.38076	484.00000
88.40055	485.00000
88.42035	488.00000
88.44015	486.00000
88.45994	482.00000
88.47974	479.00000
88.49953	478.00000
88.51933	467.00000
88.53913	462.00000
88.55892	463.00000
88.57872	458.00000
88.59851	452.00000
88.61831	462.00000
88.63811	463.00000
88.65790	455.00000
88.67770	462.00000
88.69749	461.00000
88.71729	455.00000
88.73709	453.00000
88.75688	453.00000
88.77668	451.00000
88.79647	453.00000
88.81627	456.00000
88.83607	457.00000
88.85586	460.00000
88.87566	462.00000
88.89545	460.00000
88.91525	465.00000
88.93505	464.00000
88.95484	462.00000
88.97464	450.00000
88.99443	462.00000
89.01423	455.00000
89.03403	457.00000
89.05382	458.00000
89.07362	460.00000
89.09341	460.00000
89.11321	472.00000
89.13301	461.00000
89.15280	468.00000
89.17260	474.00000
89.19239	481.00000
89.21219	477.00000
89.23199	499.00000
89.25178	493.00000
89.27158	497.00000
89.29137	499.00000
89.31117	496.00000
89.33097	492.00000
89.35076	490.00000
89.37056	492.00000
89.39035	495.00000
89.41015	500.00000
89.42995	499.00000
89.44974	505.00000
89.46954	499.00000
89.48933	497.00000
89.50913	498.00000
89.52893	494.00000
89.54872	497.00000
89.56852	501.00000
89.58831	506.00000
89.60811	509.00000
89.62791	512.00000
89.64770	514.00000
89.66750	518.00000
89.68729	512.00000
89.70709	510.00000
89.72689	507.00000
89.74668	496.00000
89.76648	489.00000
89.78627	493.00000
89.80607	485.00000
89.82587	478.00000
89.84566	489.00000
89.86546	476.00000
89.88525	483.00000
89.90505	471.00000
89.92485	479.00000
89.94464	473.00000
89.96444	475.00000
89.98423	475.00000
90.00403	471.00000
90.02383	482.00000
90.04362	474.00000
90.06342	480.00000
90.08321	487.00000
90.10301	478.00000
90.12281	480.00000
90.14260	482.00000
90.16240	469.00000
90.18219	467.00000
90.20199	471.00000
90.22179	458.00000
90.24158	459.00000
90.26138	458.00000
90.28117	454.00000
90.30097	455.00000
90.32077	458.00000
90.34056	450.00000
90.36036	460.00000
90.38015	459.00000
90.39995	454.00000
90.41975	456.00000
90.43954	454.00000
90.45934	447.00000
90.47913	451.00000
90.49893	446.00000
90.51873	460.00000
90.53852	452.00000
90.55832	456.00000
90.57811	460.00000
90.59791	453.00000
90.61771	455.00000
90.63750	447.00000
90.65730	456.00000
90.67709	448.00000
90.69689	451.00000
90.71669	444.00000
90.73648	443.00000
90.75628	446.00000
90.77607	444.00000
90.79587	451.00000
90.81567	451.00000
90.83546	459.00000
90.85526	460.00000
90.87505	455.00000
90.89485	454.00000
90.91465	465.00000
90.93444	459.00000
90.95424	454.00000
90.97403	466.00000
90.99383	462.00000
91.01363	461.00000
91.03342	462.00000
91.05322	464.00000
91.07301	463.00000
91.09281	460.00000
91.11261	454.00000
91.13240	442.00000
91.15220	451.00000
91.17199	438.00000
91.19179	438.00000
91.21159	446.00000
91.23138	441.00000
91.25118	450.00000
91.27097	435.00000
91.29077	449.00000
91.31057	442.00000
91.33036	442.00000
91.35016	442.00000
91.36995	452.00000
91.38975	442.00000
91.40955	452.00000
91.42934	450.00000
91.44914	456.00000
91.46893	458.00000
91.48873	455.00000
91.50853	460.00000
91.52832	460.00000
91.54812	464.00000
91.56791	458.00000
91.58771	460.00000
91.60751	465.00000
91.62730	464.00000
91.64710	463.00000
91.66689	471.00000
91.68669	467.00000
91.70649	469.00000
91.72628	469.00000
91.74608	467.00000
91.76587	464.00000
91.78567	465.00000
91.80547	473.00000
91.82526	459.00000
91.84506	474.00000
91.86485	470.00000
91.88465	467.00000
91.90445	477.00000
91.92424	473.00000
91.94404	472.00000
91.96383	474.00000
91.98363	467.00000
92.00343	466.00000
92.02322	466.00000
92.04302	470.00000
92.06281	471.00000
92.08261	475.00000
92.10241	472.00000
92.12220	479.00000
92.14200	474.00000
92.16179	474.00000
92.18159	474.00000
92.20139	473.00000
92.22118	479.00000
92.24098	474.00000
92.26077	477.00000
92.28057	475.00000
92.30037	487.00000
92.32016	478.00000
92.33996	480.00000
92.35975	484.00000
92.37955	472.00000
92.39935	473.00000
92.41914	466.00000
92.43894	468.00000
92.45873	467.00000
92.47853	468.00000
92.49833	463.00000
92.51812	468.00000
92.53792	470.00000
92.55771	468.00000
92.57751	462.00000
92.59731	475.00000
92.61710	460.00000
92.63690	458.00000
92.65669	456.00000
92.67649	450.00000
92.69629	444.00000
92.71608	449.00000
92.73588	455.00000
92.75567	454.00000
92.77547	456.00000
92.79527	456.00000
92.81506	462.00000
92.83486	453.00000
92.85465	455.00000
92.87445	460.00000
92.89425	449.00000
92.91404	458.00000
92.93384	454.00000
92.95363	451.00000
92.97343	463.00000
92.99323	448.00000
93.01302	457.00000
93.03282	452.00000
93.05261	450.00000
93.07241	446.00000
93.09221	457.00000
93.11200	459.00000
93.13180	456.00000
93.15159	462.00000
93.17139	463.00000
93.19119	458.00000
93.21098	451.00000
93.23078	455.00000
93.25057	446.00000
93.27037	448.00000
93.29017	452.00000
93.30996	443.00000
93.32976	453.00000
93.34955	441.00000
93.36935	446.00000
93.38915	445.00000
93.40894	444.00000
93.42874	437.00000
93.44853	446.00000
93.46833	441.00000
93.48813	443.00000
93.50792	437.00000
93.52772	442.00000
93.54751	432.00000
93.56731	440.00000
93.58711	433.00000
93.60690	431.00000
93.62670	432.00000
93.64649	431.00000
93.66629	430.00000
93.68609	435.00000
93.70588	432.00000
93.72568	430.00000
93.74547	436.00000
93.76527	432.00000
93.78507	425.00000
93.80486	432.00000
93.82466	431.00000
93.84445	426.00000
93.86425	430.00000
93.88405	440.00000
93.90384	434.00000
93.92364	426.00000
93.94343	437.00000
93.96323	421.00000
93.98303	416.00000
94.00282	411.00000
94.02262	420.00000
94.04241	414.00000
94.06221	416.00000
94.08201	430.00000
94.10180	427.00000
94.12160	427.00000
94.14139	435.00000
94.16119	429.00000
94.18099	429.00000
94.20078	431.00000
94.22058	421.00000
94.24037	426.00000
94.26017	423.00000
94.27997	429.00000
94.29976	433.00000
94.31956	430.00000
94.33935	431.00000
94.35915	438.00000
94.37895	428.00000
94.39874	429.00000
94.41854	438.00000
94.43833	437.00000
94.45813	438.00000
94.47793	444.00000
94.49772	446.00000
94.51752	434.00000
94.53731	445.00000
94.55711	441.00000
94.57691	440.00000
94.59670	447.00000
94.61650	443.00000
94.63629	447.00000
94.65609	443.00000
94.67589	448.00000
94.69568	441.00000
94.71548	441.00000
94.73527	439.00000
94.75507	431.00000
94.77487	431.00000
94.79466	430.00000
94.81446	420.00000
94.83425	432.00000
94.85405	430.00000
94.87385	424.00000
94.89364	427.00000
94.91344	424.00000
94.93323	416.00000
94.95303	422.00000
94.97283	416.00000
94.99262	419.00000
95.01242	423.00000
95.03221	428.00000
95.05201	422.00000
95.07181	430.00000
95.09160	429.00000
95.11140	425.00000
95.13119	435.00000
95.15099	425.00000
95.17079	425.00000
95.19058	422.00000
95.21038	422.00000
95.23017	410.00000
95.24997	412.00000
95.26977	419.00000
95.28956	421.00000
95.30936	418.00000
95.32915	422.00000
95.34895	424.00000
95.36875	431.00000
95.38854	414.00000
95.40834	424.00000
95.42813	430.00000
95.44793	415.00000
95.46773	422.00000
95.48752	420.00000
95.50732	420.00000
95.52711	415.00000
95.54691	424.00000
95.56671	421.00000
95.58650	423.00000
95.60630	427.00000
95.62609	418.00000
95.64589	425.00000
95.66569	426.00000
95.68548	426.00000
95.70528	422.00000
95.72507	425.00000
95.74487	432.00000
95.76467	417.00000
95.78446	431.00000
95.80426	429.00000
95.82405	433.00000
95.84385	438.00000
95.86365	433.00000
95.88344	439.00000
95.90324	434.00000
95.92303	433.00000
95.94283	430.00000
95.96263	433.00000
95.98242	425.00000
96.00222	435.00000
96.02201	438.00000
96.04181	433.00000
96.06161	452.00000
96.08140	449.00000
96.10120	449.00000
96.12099	447.00000
96.14079	448.00000
96.16059	435.00000
96.18038	441.00000
96.20018	440.00000
96.21997	433.00000
96.23977	437.00000
96.25957	441.00000
96.27936	428.00000
96.29916	439.00000
96.31895	440.00000
96.33875	439.00000
96.35855	449.00000
96.37834	445.00000
96.39814	442.00000
96.41793	434.00000
96.43773	433.00000
96.45753	427.00000
96.47732	422.00000
96.49712	424.00000
96.51691	430.00000
96.53671	426.00000
96.55651	426.00000
96.57630	424.00000
96.59610	421.00000
96.61589	420.00000
96.63569	418.00000
96.65549	413.00000
96.67528	418.00000
96.69508	417.00000
96.71487	420.00000
96.73467	415.00000
96.75447	427.00000
96.77426	415.00000
96.79406	427.00000
96.81385	423.00000
96.83365	419.00000
96.85345	423.00000
96.87324	414.00000
96.89304	415.00000
96.91283	410.00000
96.93263	409.00000
96.95243	411.00000
96.97222	409.00000
96.99202	407.00000
97.01181	411.00000
97.03161	407.00000
97.05141	409.00000
97.07120	407.00000
97.09100	418.00000
97.11079	417.00000
97.13059	422.00000
97.15039	421.00000
97.17018	420.00000
97.18998	421.00000
97.20977	418.00000
97.22957	415.00000
97.24937	424.00000
97.26916	423.00000
97.28896	429.00000
97.30875	426.00000
97.32855	426.00000
97.34835	424.00000
97.36814	433.00000
97.38794	415.00000
97.40773	430.00000
97.42753	435.00000
97.44733	426.00000
97.46712	430.00000
97.48692	430.00000
97.50671	433.00000
97.52651	428.00000
97.54631	428.00000
97.56610	425.00000
97.58590	436.00000
97.60569	428.00000
97.62549	429.00000
97.64529	435.00000
97.66508	429.00000
97.68488	427.00000
97.70467	421.00000
97.72447	433.00000
97.74427	424.00000
97.76406	425.00000
97.78386	426.00000
97.80365	423.00000
97.82345	419.00000
97.84325	416.00000
97.86304	419.00000
97.88284	418.00000
97.90263	428.00000
97.92243	418.00000
97.94223	419.00000
97.96202	413.00000
97.98182	414.00000
98.00161	415.00000
98.02141	407.00000
98.04121	413.00000
98.06100	419.00000
98.08080	413.00000
98.10059	412.00000
98.12039	417.00000
98.14019	418.00000
98.15998	417.00000
98.17978	418.00000
98.19957	419.00000
98.21937	422.00000
98.23917	425.00000
98.25896	425.00000
98.27876	424.00000
98.29855	426.00000
98.31835	424.00000
98.33815	417.00000
98.35794	431.00000
98.37774	420.00000
98.39753	430.00000
98.41733	430.00000
98.43713	426.00000
98.45692	426.00000
98.47672	427.00000
98.49651	421.00000
98.51631	422.00000
98.53611	429.00000
98.55590	427.00000
98.57570	426.00000
98.59549	430.00000
98.61529	433.00000
98.63509	433.00000
98.65488	437.00000
98.67468	431.00000
98.69447	434.00000
98.71427	425.00000
98.73407	422.00000
98.75386	424.00000
98.77366	414.00000
98.79345	417.00000
98.81325	419.00000
98.83305	410.00000
98.85284	412.00000
98.87264	418.00000
98.89243	412.00000
98.91223	412.00000
98.93203	414.00000
98.95182	413.00000
98.97162	408.00000
98.99141	411.00000
99.01121	414.00000
99.03101	410.00000
99.05080	408.00000
99.07060	416.00000
99.09039	406.00000
99.11019	407.00000
99.12999	413.00000
99.14978	411.00000
99.16958	414.00000
99.18937	413.00000
99.20917	413.00000
99.22897	415.00000
99.24876	411.00000
99.26856	414.00000
99.28835	412.00000
99.30815	410.00000
99.32795	416.00000
99.34774	412.00000
99.36754	413.00000
99.38733	410.00000
99.40713	414.00000
99.42693	410.00000
99.44672	410.00000
99.46652	417.00000
99.48631	416.00000
99.50611	421.00000
99.52591	420.00000
99.54570	414.00000
99.56550	419.00000
99.58529	414.00000
99.60509	410.00000
99.62489	419.00000
99.64468	420.00000
99.66448	416.00000
99.68427	411.00000
99.70407	408.00000
99.72387	405.00000
99.74366	398.00000
99.76346	402.00000
99.78325	404.00000
99.80305	400.00000
