7.96300	12376.00000
7.98930	12338.00000
8.01560	12113.00000
8.04180	12086.00000
8.06810	11991.00000
8.09440	12305.00000
8.12060	12205.00000
8.14690	12349.00000
8.17310	12253.00000
8.19940	12262.00000
8.22570	12191.00000
8.25190	12203.00000
8.27820	12261.00000
8.30440	12188.00000
8.33070	12118.00000
8.35700	12292.00000
8.38320	12197.00000
8.40950	12130.00000
8.43570	12123.00000
8.46200	12030.00000
8.48830	12100.00000
8.51450	12195.00000
8.54080	12287.00000
8.56700	12212.00000
8.59330	12156.00000
8.61960	12447.00000
8.64580	12353.00000
8.67210	12241.00000
8.69830	12187.00000
8.72460	12064.00000
8.75090	12259.00000
8.77710	12163.00000
8.80340	12134.00000
8.82960	12010.00000
8.85590	12044.00000
8.88220	12323.00000
8.90840	12149.00000
8.93470	12244.00000
8.96090	12448.00000
8.98720	12360.00000
9.01350	12416.00000
9.03970	12239.00000
9.06600	12073.00000
9.09220	12043.00000
9.11850	12188.00000
9.14480	12255.00000
9.17100	12598.00000
9.19730	12283.00000
9.22350	12364.00000
9.24980	12348.00000
9.27610	12329.00000
9.30230	12631.00000
9.32860	12411.00000
9.35480	12139.00000
9.38110	12090.00000
9.40740	12124.00000
9.43360	11954.00000
9.45990	12089.00000
9.48610	12131.00000
9.51240	12283.00000
9.53870	11911.00000
9.56490	12259.00000
9.59120	12119.00000
9.61740	12019.00000
9.64370	12196.00000
9.66990	12430.00000
9.69620	12199.00000
9.72250	12122.00000
9.74870	12293.00000
9.77500	12137.00000
9.80130	12239.00000
9.82750	12371.00000
9.85380	12157.00000
9.88000	12197.00000
9.90630	11928.00000
9.93250	12360.00000
9.95880	12403.00000
9.98510	12212.00000
10.01130	12478.00000
10.03760	12230.00000
10.06390	12213.00000
10.09010	12318.00000
10.11640	12052.00000
10.14260	12210.00000
10.16890	12180.00000
10.19520	12358.00000
10.22140	12230.00000
10.24770	12109.00000
10.27390	12157.00000
10.30020	12236.00000
10.32650	12408.00000
10.35270	12089.00000
10.37900	12108.00000
10.40520	12199.00000
10.43150	12285.00000
10.45780	12231.00000
10.48400	12199.00000
10.51030	12239.00000
10.53650	12123.00000
10.56280	11961.00000
10.58910	11902.00000
10.61530	12135.00000
10.64160	12062.00000
10.66780	12483.00000
10.69410	11973.00000
10.72040	11841.00000
10.74660	12254.00000
10.77290	12026.00000
10.79910	11919.00000
10.82540	12096.00000
10.85170	11994.00000
10.87790	11892.00000
10.90420	12147.00000
10.93040	12032.00000
10.95670	11977.00000
10.98300	12136.00000
11.00920	12162.00000
11.03550	11994.00000
11.06170	12039.00000
11.08800	12032.00000
11.11430	12080.00000
11.14050	11967.00000
11.16680	12057.00000
11.19300	12104.00000
11.21930	12221.00000
11.24560	12059.00000
11.27180	12070.00000
11.29810	12060.00000
11.32430	12159.00000
11.35060	12047.00000
11.37690	12057.00000
11.40310	12154.00000
11.42940	12052.00000
11.45560	12183.00000
11.48190	12083.00000
11.50820	12271.00000
11.53440	11900.00000
11.56070	12237.00000
11.58690	12260.00000
11.61320	11961.00000
11.63950	12181.00000
11.66570	12102.00000
11.69200	12087.00000
11.71820	12327.00000
11.74450	12570.00000
11.77080	12010.00000
11.79700	12157.00000
11.82330	12124.00000
11.84950	12233.00000
11.87580	11997.00000
11.90210	12025.00000
11.92830	12025.00000
11.95460	12163.00000
11.98080	12116.00000
12.00710	12268.00000
12.03340	12112.00000
12.05960	12255.00000
12.08590	12406.00000
12.11210	12168.00000
12.13840	12184.00000
12.16470	12187.00000
12.19090	12004.00000
12.21720	12465.00000
12.24340	12470.00000
12.26970	12515.00000
12.29600	12608.00000
12.32220	12521.00000
12.34850	12631.00000
12.37470	12890.00000
12.40100	13393.00000
12.42730	13032.00000
12.45350	12358.00000
12.47980	12333.00000
12.50600	12294.00000
12.53230	12335.00000
12.55860	12313.00000
12.58480	12130.00000
12.61110	12109.00000
12.63730	12163.00000
12.66360	12204.00000
12.68990	12374.00000
12.71610	12128.00000
12.74240	12234.00000
12.76860	12098.00000
12.79490	12143.00000
12.82120	11967.00000
12.84740	12400.00000
12.87370	12470.00000
12.89990	12207.00000
12.92620	12386.00000
12.95250	12178.00000
12.97870	12463.00000
13.00500	12376.00000
13.03120	12633.00000
13.05750	12255.00000
13.08380	12367.00000
13.11000	12211.00000
13.13630	12379.00000
13.16250	12174.00000
13.18880	12344.00000
13.21510	12108.00000
13.24130	12420.00000
13.26760	12335.00000
13.29380	12315.00000
13.32010	12294.00000
13.34640	12328.00000
13.37260	12465.00000
13.39890	12345.00000
13.42510	12576.00000
13.45140	12560.00000
13.47770	12668.00000
13.50390	12852.00000
13.53020	12906.00000
13.55640	13104.00000
13.58270	13319.00000
13.60900	13367.00000
13.63520	13562.00000
13.66150	14135.00000
13.68770	14430.00000
13.71400	14548.00000
13.74030	15292.00000
13.76650	16207.00000
13.79280	17089.00000
13.81900	18954.00000
13.84530	22577.00000
13.87160	26638.00000
13.89780	24563.00000
13.92410	18703.00000
13.95030	14030.00000
13.97660	12966.00000
14.00290	12618.00000
14.02910	12717.00000
14.05540	12559.00000
14.08160	12612.00000
14.10790	12375.00000
14.13420	12317.00000
14.16040	12289.00000
14.18670	12410.00000
14.21290	12326.00000
14.23920	12241.00000
14.26540	12153.00000
14.29170	12331.00000
14.31800	12477.00000
14.34420	12027.00000
14.37050	12328.00000
14.39680	12399.00000
14.42300	12213.00000
14.44930	12115.00000
14.47550	12096.00000
14.50180	12321.00000
14.52800	12403.00000
14.55430	12180.00000
14.58060	12289.00000
14.60680	12321.00000
14.63310	12336.00000
14.65940	12332.00000
14.68560	12255.00000
14.71190	12185.00000
14.73810	12195.00000
14.76440	12030.00000
14.79070	12216.00000
14.81690	12298.00000
14.84320	12216.00000
14.86940	12026.00000
14.89570	12275.00000
14.92200	11896.00000
14.94820	12120.00000
14.97450	12035.00000
15.00070	12058.00000
15.02700	12217.00000
15.05330	12247.00000
15.07950	12172.00000
15.10580	12241.00000
15.13200	12110.00000
15.15830	12270.00000
15.18460	12233.00000
15.21080	12192.00000
15.23710	12039.00000
15.26330	12201.00000
15.28960	12060.00000
15.31590	12109.00000
15.34210	12126.00000
15.36840	12050.00000
15.39460	11980.00000
15.42090	12306.00000
15.44720	12355.00000
15.47340	12162.00000
15.49970	12132.00000
15.52590	12209.00000
15.55220	12097.00000
15.57850	12277.00000
15.60470	12190.00000
15.63100	12106.00000
15.65720	12156.00000
15.68350	12146.00000
15.70980	12223.00000
15.73600	12134.00000
15.76230	12258.00000
15.78850	12327.00000
15.81480	12378.00000
15.84110	12206.00000
15.86730	12449.00000
15.89360	12423.00000
15.91980	12703.00000
15.94610	12317.00000
15.97240	12068.00000
15.99860	12426.00000
16.02490	12179.00000
16.05110	12331.00000
16.07740	12164.00000
16.10370	12165.00000
16.12990	12226.00000
16.15620	12334.00000
16.18240	12235.00000
16.20870	11965.00000
16.23500	12005.00000
16.26120	11926.00000
16.28750	12159.00000
16.31370	12170.00000
16.34000	12320.00000
16.36630	12129.00000
16.39250	12072.00000
16.41880	12142.00000
16.44500	11943.00000
16.47130	11956.00000
16.49760	12121.00000
16.52380	12230.00000
16.55010	12213.00000
16.57630	11974.00000
16.60260	12241.00000
16.62890	12218.00000
16.65510	12136.00000
16.68140	12200.00000
16.70760	12172.00000
16.73390	12023.00000
16.76020	12119.00000
16.78640	12314.00000
16.81270	12130.00000
16.83890	12104.00000
16.86520	12086.00000
16.89150	12242.00000
16.91770	12298.00000
16.94400	12161.00000
16.97020	12514.00000
16.99650	12472.00000
17.02280	12491.00000
17.04900	12276.00000
17.07530	12437.00000
17.10150	12576.00000
17.12780	12317.00000
17.15410	12262.00000
17.18030	12690.00000
17.20660	12726.00000
17.23280	12725.00000
17.25910	13165.00000
17.28540	13331.00000
17.31160	13275.00000
17.33790	13815.00000
17.36410	14105.00000
17.39040	15022.00000
17.41670	15633.00000
17.44290	16930.00000
17.46920	18202.00000
17.49540	20711.00000
17.52170	23736.00000
17.54800	28949.00000
17.57420	37442.00000
17.60050	48348.00000
17.62670	42398.00000
17.65300	30118.00000
17.67930	19127.00000
17.70550	14029.00000
17.73180	12958.00000
17.75800	12728.00000
17.78430	12510.00000
17.81060	12591.00000
17.83680	12476.00000
17.86310	12590.00000
17.88930	12282.00000
17.91560	12276.00000
17.94190	12329.00000
17.96810	12131.00000
17.99440	12144.00000
18.02060	11965.00000
18.04690	12056.00000
18.07320	12103.00000
18.09940	12209.00000
18.12570	12185.00000
18.15190	12211.00000
18.17820	12075.00000
18.20450	12318.00000
18.23070	12417.00000
18.25700	12061.00000
18.28320	12187.00000
18.30950	12178.00000
18.33580	12153.00000
18.36200	12030.00000
18.38830	11974.00000
18.41450	12057.00000
18.44080	12146.00000
18.46710	12165.00000
18.49330	11935.00000
18.51960	11899.00000
18.54580	11850.00000
18.57210	12074.00000
18.59840	12017.00000
18.62460	11925.00000
18.65090	12127.00000
18.67710	12238.00000
18.70340	12103.00000
18.72970	12092.00000
18.75590	11889.00000
18.78220	12096.00000
18.80840	11954.00000
18.83470	12262.00000
18.86100	12046.00000
18.88720	12090.00000
18.91350	12062.00000
18.93970	12201.00000
18.96600	12208.00000
18.99230	11955.00000
19.01850	12156.00000
19.04480	12067.00000
19.07100	11907.00000
19.09730	12045.00000
19.12360	11886.00000
19.14980	11856.00000
19.17610	12089.00000
19.20230	12026.00000
19.22860	12032.00000
19.25490	12002.00000
19.28110	11939.00000
19.30740	11963.00000
19.33360	11817.00000
19.35990	12089.00000
19.38620	11908.00000
19.41240	12046.00000
19.43870	12050.00000
19.46490	11978.00000
19.49120	11753.00000
19.51750	11789.00000
19.54370	12132.00000
19.57000	11996.00000
19.59620	11921.00000
19.62250	11751.00000
19.64880	11968.00000
19.67500	11986.00000
19.70130	12042.00000
19.72750	11975.00000
19.75380	11886.00000
19.78010	12098.00000
19.80630	11955.00000
19.83260	11991.00000
19.85880	11904.00000
19.88510	11909.00000
19.91140	12318.00000
19.93760	12134.00000
19.96390	11983.00000
19.99010	12196.00000
20.01640	12259.00000
20.04270	12033.00000
20.06890	12002.00000
20.09520	11981.00000
20.12140	12250.00000
20.14770	12078.00000
20.17400	12167.00000
20.20020	12032.00000
20.22650	12014.00000
20.25270	12013.00000
20.27900	11919.00000
20.30530	12170.00000
20.33150	12270.00000
20.35780	12039.00000
20.38400	12194.00000
20.41030	12170.00000
20.43660	11890.00000
20.46280	12128.00000
20.48910	11998.00000
20.51530	11869.00000
20.54160	12056.00000
20.56790	11870.00000
20.59410	11849.00000
20.62040	11936.00000
20.64660	12056.00000
20.67290	12155.00000
20.69920	12021.00000
20.72540	11979.00000
20.75170	11933.00000
20.77790	12253.00000
20.80420	12180.00000
20.83050	12075.00000
20.85670	11962.00000
20.88300	12112.00000
20.90920	12077.00000
20.93550	11836.00000
20.96180	12015.00000
20.98800	12226.00000
21.01430	12033.00000
21.04050	12031.00000
21.06680	12047.00000
21.09310	12024.00000
21.11930	12136.00000
21.14560	12126.00000
21.17180	12254.00000
21.19810	12119.00000
21.22430	12191.00000
21.25060	12274.00000
21.27690	12150.00000
21.30310	12289.00000
21.32940	12487.00000
21.35560	12641.00000
21.38190	12780.00000
21.40820	13361.00000
21.43440	13758.00000
21.46070	14182.00000
21.48690	15383.00000
21.51320	16857.00000
21.53950	19373.00000
21.56570	21681.00000
21.59200	18690.00000
21.61820	16764.00000
21.64450	14319.00000
21.67080	12691.00000
21.69700	12431.00000
21.72330	12169.00000
21.74950	12003.00000
21.77580	12196.00000
21.80210	12006.00000
21.82830	12035.00000
21.85460	12122.00000
21.88080	12269.00000
21.90710	11968.00000
21.93340	12103.00000
21.95960	11968.00000
21.98590	11907.00000
22.01210	11811.00000
22.03840	11789.00000
22.06470	11939.00000
22.09090	11881.00000
22.11720	11759.00000
22.14340	11931.00000
22.16970	11935.00000
22.19600	11788.00000
22.22220	11931.00000
22.24850	12001.00000
22.27470	12070.00000
22.30100	12040.00000
22.32730	11940.00000
22.35350	11971.00000
22.37980	12230.00000
22.40600	12497.00000
22.43230	12889.00000
22.45860	13419.00000
22.48480	14667.00000
22.51110	15579.00000
22.53730	15164.00000
22.56360	14124.00000
22.58990	13181.00000
22.61610	12266.00000
22.64240	11905.00000
22.66860	11931.00000
22.69490	11896.00000
22.72120	11885.00000
22.74740	11935.00000
22.77370	11913.00000
22.79990	11778.00000
22.82620	11810.00000
22.85250	11804.00000
22.87870	11953.00000
22.90500	11848.00000
22.93120	11824.00000
22.95750	11884.00000
22.98380	11975.00000
23.01000	11783.00000
23.03630	11591.00000
23.06250	11861.00000
23.08880	11823.00000
23.11510	11686.00000
23.14130	11848.00000
23.16760	11925.00000
23.19380	11541.00000
23.22010	11695.00000
23.24640	11821.00000
23.27260	11629.00000
23.29890	11737.00000
23.32510	11858.00000
23.35140	11718.00000
23.37770	11826.00000
23.40390	11918.00000
23.43020	11661.00000
23.45640	11661.00000
23.48270	11785.00000
23.50900	11710.00000
23.53520	11722.00000
23.56150	11756.00000
23.58780	11735.00000
23.61400	11766.00000
23.64030	12029.00000
23.66650	11873.00000
23.69280	11653.00000
23.71910	11639.00000
23.74530	11656.00000
23.77160	11618.00000
23.79780	11591.00000
23.82410	11833.00000
23.85040	11711.00000
23.87660	11633.00000
23.90290	11818.00000
23.92910	11869.00000
23.95540	12043.00000
23.98170	11652.00000
24.00790	11885.00000
24.03420	11777.00000
24.06040	11631.00000
24.08670	11946.00000
24.11300	11933.00000
24.13920	11902.00000
24.16550	11872.00000
24.19170	11967.00000
24.21800	11536.00000
24.24430	11743.00000
24.27050	11828.00000
24.29680	11719.00000
24.32300	11808.00000
24.34930	11839.00000
24.37560	11603.00000
24.40180	11608.00000
24.42810	11840.00000
24.45430	11919.00000
24.48060	11780.00000
24.50690	11773.00000
24.53310	11950.00000
24.55940	11938.00000
24.58560	11867.00000
24.61190	11578.00000
24.63820	11879.00000
24.66440	11806.00000
24.69070	11867.00000
24.71690	12125.00000
24.74320	12092.00000
24.76950	12370.00000
24.79570	12544.00000
24.82200	12837.00000
24.84820	13290.00000
24.87450	14370.00000
24.90080	15359.00000
24.92700	17592.00000
24.95330	20481.00000
24.97950	21680.00000
25.00580	19190.00000
25.03210	16915.00000
25.05830	15579.00000
25.08460	13050.00000
25.11080	12380.00000
25.13710	12222.00000
25.16340	11822.00000
25.18960	11943.00000
25.21590	11674.00000
25.24210	11824.00000
25.26840	11796.00000
25.29470	11769.00000
25.32090	11750.00000
25.34720	11708.00000
25.37340	11709.00000
25.39970	11866.00000
25.42600	12021.00000
25.45220	11821.00000
25.47850	11779.00000
25.50470	11704.00000
25.53100	11669.00000
25.55730	11764.00000
25.58350	11774.00000
25.60980	11910.00000
25.63600	11918.00000
25.66230	12102.00000
25.68860	12229.00000
25.71480	12579.00000
25.74110	12886.00000
25.76730	12618.00000
25.79360	12232.00000
25.81990	11985.00000
25.84610	11977.00000
25.87240	11704.00000
25.89860	11917.00000
25.92490	11792.00000
25.95120	11720.00000
25.97740	11868.00000
26.00370	11933.00000
26.02990	11769.00000
26.05620	11846.00000
26.08250	11651.00000
26.10870	11552.00000
26.13500	11630.00000
26.16120	11652.00000
26.18750	11704.00000
26.21380	11570.00000
26.24000	11861.00000
26.26630	11749.00000
26.29250	11895.00000
26.31880	11560.00000
26.34510	11873.00000
26.37130	11724.00000
26.39760	11718.00000
26.42380	11492.00000
26.45010	11752.00000
26.47640	11803.00000
26.50260	11797.00000
26.52890	11761.00000
26.55510	11689.00000
26.58140	11771.00000
26.60770	11685.00000
26.63390	11675.00000
26.66020	11719.00000
26.68640	11663.00000
26.71270	11914.00000
26.73900	11946.00000
26.76520	11628.00000
26.79150	11750.00000
26.81770	11558.00000
26.84400	11758.00000
26.87030	11972.00000
26.89650	11804.00000
26.92280	11731.00000
26.94900	11661.00000
26.97530	11802.00000
27.00160	11758.00000
27.02780	11576.00000
27.05410	11602.00000
27.08030	11578.00000
27.10660	11719.00000
27.13290	11722.00000
27.15910	11741.00000
27.18540	11692.00000
27.21160	11552.00000
27.23790	11676.00000
27.26420	11774.00000
27.29040	11774.00000
27.31670	11717.00000
27.34290	11641.00000
27.36920	11590.00000
27.39550	11791.00000
27.42170	11662.00000
27.44800	11586.00000
27.47420	11602.00000
27.50050	11671.00000
27.52680	11510.00000
27.55300	11742.00000
27.57930	11811.00000
27.60550	11670.00000
27.63180	11850.00000
27.65810	11784.00000
27.68430	11608.00000
27.71060	11425.00000
27.73680	11808.00000
27.76310	12107.00000
27.78940	11901.00000
27.81560	12013.00000
27.84190	12079.00000
27.86810	12041.00000
27.89440	12539.00000
27.92070	13151.00000
27.94690	13443.00000
27.97320	14353.00000
27.99940	13934.00000
28.02570	13083.00000
28.05200	13107.00000
28.07820	12473.00000
28.10450	11767.00000
28.13070	11776.00000
28.15700	11801.00000
28.18330	11515.00000
28.20950	11839.00000
28.23580	11744.00000
28.26200	11472.00000
28.28830	11974.00000
28.31460	11684.00000
28.34080	11683.00000
28.36710	11693.00000
28.39330	11792.00000
28.41960	11769.00000
28.44590	11752.00000
28.47210	11793.00000
28.49840	11688.00000
28.52460	11601.00000
28.55090	11682.00000
28.57720	11669.00000
28.60340	11706.00000
28.62970	11555.00000
28.65590	11586.00000
28.68220	11633.00000
28.70850	11746.00000
28.73470	11936.00000
28.76100	11563.00000
28.78720	11598.00000
28.81350	11652.00000
28.83980	11561.00000
28.86600	11646.00000
28.89230	11572.00000
28.91850	11593.00000
28.94480	11769.00000
28.97110	11730.00000
28.99730	11537.00000
29.02360	11534.00000
29.04980	11485.00000
29.07610	11605.00000
29.10240	11776.00000
29.12860	11728.00000
29.15490	11709.00000
29.18110	11684.00000
29.20740	11765.00000
29.23370	11645.00000
29.25990	11507.00000
29.28620	11630.00000
29.31240	11703.00000
29.33870	11613.00000
29.36500	11589.00000
29.39120	11475.00000
29.41750	11443.00000
29.44370	11264.00000
29.47000	11534.00000
29.49630	11615.00000
29.52250	11729.00000
29.54880	11526.00000
29.57500	11698.00000
29.60130	11657.00000
29.62760	11778.00000
29.65380	11648.00000
29.68010	11701.00000
29.70630	11849.00000
29.73260	11896.00000
29.75890	11598.00000
29.78510	11394.00000
29.81140	11590.00000
29.83760	11505.00000
29.86390	11539.00000
29.89020	11662.00000
29.91640	11728.00000
29.94270	11817.00000
29.96890	11625.00000
29.99520	11786.00000
30.02150	11652.00000
30.04770	11662.00000
30.07400	11646.00000
30.10020	11520.00000
30.12650	11453.00000
30.15280	11671.00000
30.17900	11719.00000
30.20530	11536.00000
30.23150	11607.00000
30.25780	11391.00000
30.28400	11680.00000
30.31030	11661.00000
30.33660	11597.00000
30.36280	11471.00000
30.38910	11602.00000
30.41530	11535.00000
30.44160	11528.00000
30.46790	11603.00000
30.49410	11566.00000
30.52040	11497.00000
30.54660	11453.00000
30.57290	11540.00000
30.59920	11767.00000
30.62540	11541.00000
30.65170	11542.00000
30.67790	11602.00000
30.70420	11651.00000
30.73050	11499.00000
30.75670	11720.00000
30.78300	11382.00000
30.80920	11481.00000
30.83550	11640.00000
30.86180	11645.00000
30.88800	11612.00000
30.91430	11562.00000
30.94050	11556.00000
30.96680	11515.00000
30.99310	11465.00000
31.01930	11567.00000
31.04560	11494.00000
31.07180	11528.00000
31.09810	11692.00000
31.12440	11670.00000
31.15060	11713.00000
31.17690	11637.00000
31.20310	11866.00000
31.22940	11814.00000
31.25570	12226.00000
31.28190	12443.00000
31.30820	13035.00000
31.33440	13983.00000
31.36070	15715.00000
31.38700	16755.00000
31.41320	14937.00000
31.43950	14037.00000
31.46570	13974.00000
31.49200	12833.00000
31.51830	11984.00000
31.54450	11641.00000
31.57080	11664.00000
31.59700	11495.00000
31.62330	11638.00000
31.64960	11605.00000
31.67580	11634.00000
31.70210	11451.00000
31.72830	11564.00000
31.75460	11408.00000
31.78090	11467.00000
31.80710	11534.00000
31.83340	11419.00000
31.85960	11536.00000
31.88590	11564.00000
31.91220	11604.00000
31.93840	11470.00000
31.96470	11404.00000
31.99090	11310.00000
32.01720	11477.00000
32.04350	11229.00000
32.06970	11338.00000
32.09600	11679.00000
32.12220	11694.00000
32.14850	11555.00000
32.17480	11568.00000
32.20100	11391.00000
32.22730	11660.00000
32.25350	11473.00000
32.27980	11565.00000
32.30610	11611.00000
32.33230	11392.00000
32.35860	11642.00000
32.38480	11678.00000
32.41110	11547.00000
32.43740	11663.00000
32.46360	11631.00000
32.48990	11411.00000
32.51610	11563.00000
32.54240	11416.00000
32.56870	11431.00000
32.59490	11645.00000
32.62120	11417.00000
32.64740	11443.00000
32.67370	11334.00000
32.70000	11720.00000
32.72620	11679.00000
32.75250	11518.00000
32.77870	11393.00000
32.80500	11309.00000
32.83130	11565.00000
32.85750	11507.00000
32.88380	11576.00000
32.91000	11752.00000
32.93630	11625.00000
32.96260	11724.00000
32.98880	11765.00000
33.01510	11564.00000
33.04130	11609.00000
33.06760	11830.00000
33.09390	11913.00000
33.12010	12333.00000
33.14640	12267.00000
33.17260	12493.00000
33.19890	13423.00000
33.22520	14805.00000
33.25140	17043.00000
33.27770	19332.00000
33.30390	19183.00000
33.33020	16659.00000
33.35650	15553.00000
33.38270	15614.00000
33.40900	13684.00000
33.43520	12151.00000
33.46150	11657.00000
33.48780	11737.00000
33.51400	11585.00000
33.54030	11502.00000
33.56650	11667.00000
33.59280	11451.00000
33.61910	11616.00000
33.64530	11619.00000
33.67160	11476.00000
33.69780	11694.00000
33.72410	11731.00000
33.75040	11797.00000
33.77660	12311.00000
33.80290	12573.00000
33.82910	12756.00000
33.85540	12653.00000
33.88170	12480.00000
33.90790	12486.00000
33.93420	12368.00000
33.96040	11803.00000
33.98670	11766.00000
34.01300	11837.00000
34.03920	11508.00000
34.06550	11542.00000
34.09170	11522.00000
34.11800	11246.00000
34.14430	11403.00000
34.17050	11606.00000
34.19680	11454.00000
34.22300	11542.00000
34.24930	11482.00000
34.27560	11479.00000
34.30180	11578.00000
34.32810	11463.00000
34.35430	11639.00000
34.38060	11538.00000
34.40690	11485.00000
34.43310	11439.00000
34.45940	11430.00000
34.48560	11373.00000
34.51190	11285.00000
34.53820	11464.00000
34.56440	11401.00000
34.59070	11493.00000
34.61690	11294.00000
34.64320	11357.00000
34.66950	11402.00000
34.69570	11510.00000
34.72200	11527.00000
34.74820	11403.00000
34.77450	11375.00000
34.80080	11345.00000
34.82700	11457.00000
34.85330	11440.00000
34.87950	11460.00000
34.90580	11559.00000
34.93210	11506.00000
34.95830	11391.00000
34.98460	11628.00000
35.01080	11267.00000
35.03710	11367.00000
35.06340	11462.00000
35.08960	11331.00000
35.11590	11509.00000
35.14210	11338.00000
35.16840	11310.00000
35.19470	11422.00000
35.22090	11635.00000
35.24720	11360.00000
35.27340	11386.00000
35.29970	11474.00000
35.32600	11404.00000
35.35220	11400.00000
35.37850	11529.00000
35.40470	11430.00000
35.43100	11587.00000
35.45730	11832.00000
35.48350	12013.00000
35.50980	12218.00000
35.53600	12374.00000
35.56230	13453.00000
35.58860	14509.00000
35.61480	14569.00000
35.64110	14092.00000
35.66730	14193.00000
35.69360	13544.00000
35.71990	12757.00000
35.74610	12426.00000
35.77240	12013.00000
35.79860	11489.00000
35.82490	11541.00000
35.85120	11417.00000
35.87740	11242.00000
35.90370	11442.00000
35.92990	11548.00000
35.95620	11459.00000
35.98250	11575.00000
36.00870	11496.00000
36.03500	11360.00000
36.06120	11187.00000
36.08750	11187.00000
36.11380	11370.00000
36.14000	11467.00000
36.16630	11493.00000
36.19250	11550.00000
36.21880	11452.00000
36.24510	11185.00000
36.27130	11551.00000
36.29760	11327.00000
36.32380	11362.00000
36.35010	11398.00000
36.37640	11341.00000
36.40260	11177.00000
36.42890	11202.00000
36.45510	11226.00000
36.48140	11308.00000
36.50770	11348.00000
36.53390	11238.00000
36.56020	11334.00000
36.58640	11307.00000
36.61270	11412.00000
36.63900	11204.00000
36.66520	11243.00000
36.69150	11423.00000
36.71770	11233.00000
36.74400	11460.00000
36.77030	11225.00000
36.79650	11423.00000
36.82280	11353.00000
36.84900	11221.00000
36.87530	11368.00000
36.90160	11460.00000
36.92780	11385.00000
36.95410	11304.00000
36.98030	11489.00000
37.00660	11225.00000
37.03290	11519.00000
37.05910	11405.00000
37.08540	11476.00000
37.11160	11490.00000
37.13790	11334.00000
37.16420	11377.00000
37.19040	11347.00000
37.21670	11362.00000
37.24290	11514.00000
37.26920	11508.00000
37.29550	11430.00000
37.32170	11286.00000
37.34800	11477.00000
37.37420	11403.00000
37.40050	11646.00000
37.42680	11340.00000
37.45300	11139.00000
37.47930	11333.00000
37.50550	11405.00000
37.53180	11385.00000
37.55810	11310.00000
37.58430	11623.00000
37.61060	11427.00000
37.63680	11547.00000
37.66310	11393.00000
37.68940	11487.00000
37.71560	11521.00000
37.74190	11814.00000
37.76810	12227.00000
37.79440	12680.00000
37.82070	12492.00000
37.84690	12154.00000
37.87320	12010.00000
37.89940	11862.00000
37.92570	12333.00000
37.95200	11620.00000
37.97820	11412.00000
38.00450	11399.00000
38.03070	11579.00000
38.05700	11407.00000
38.08330	11392.00000
38.10950	11611.00000
38.13580	11542.00000
38.16200	11539.00000
38.18830	11586.00000
38.21460	11625.00000
38.24080	11491.00000
38.26710	11532.00000
38.29330	12069.00000
38.31960	12262.00000
38.34590	12780.00000
38.37210	13814.00000
38.39840	14245.00000
38.42460	13884.00000
38.45090	13146.00000
38.47720	12823.00000
38.50340	12805.00000
38.52970	12306.00000
38.55590	11686.00000
38.58220	11728.00000
38.60850	11418.00000
38.63470	11442.00000
38.66100	11381.00000
38.68720	11368.00000
38.71350	11175.00000
38.73980	11441.00000
38.76600	11309.00000
38.79230	11395.00000
38.81850	11263.00000
38.84480	11343.00000
38.87110	11278.00000
38.89730	11278.00000
38.92360	11478.00000
38.94980	11208.00000
38.97610	11325.00000
39.00240	11235.00000
39.02860	11456.00000
39.05490	11152.00000
39.08120	11355.00000
39.10740	11295.00000
39.13370	11397.00000
39.15990	11411.00000
39.18620	11096.00000
39.21240	11287.00000
39.23870	11661.00000
39.26500	11306.00000
39.29120	11309.00000
39.31750	11265.00000
39.34380	11408.00000
39.37000	11254.00000
39.39630	11233.00000
39.42250	11421.00000
39.44880	11348.00000
39.47500	11274.00000
39.50130	11346.00000
39.52760	11309.00000
39.55380	11350.00000
39.58010	11469.00000
39.60630	11540.00000
39.63260	11457.00000
39.65890	11200.00000
39.68510	11304.00000
39.71140	11288.00000
39.73760	11280.00000
39.76390	11274.00000
39.79020	11343.00000
39.81640	11193.00000
39.84270	11470.00000
39.86890	11196.00000
39.89520	11235.00000
39.92150	11360.00000
39.94770	11435.00000
39.97400	11349.00000
40.00020	11192.00000
40.02650	11544.00000
40.05280	11403.00000
40.07900	11630.00000
40.10530	11593.00000
40.13150	11446.00000
40.15780	11466.00000
40.18410	11345.00000
40.21030	11369.00000
40.23660	11538.00000
40.26280	11516.00000
40.28910	11352.00000
40.31540	11364.00000
40.34160	11275.00000
40.36790	11358.00000
40.39410	11379.00000
40.42040	11292.00000
40.44670	11284.00000
40.47290	11340.00000
40.49920	11420.00000
40.52540	11783.00000
40.55170	12164.00000
40.57800	12284.00000
40.60420	11951.00000
40.63050	11678.00000
40.65670	11563.00000
40.68300	11710.00000
40.70930	11534.00000
40.73550	11495.00000
40.76180	11184.00000
40.78800	11286.00000
40.81430	11295.00000
40.84060	11270.00000
40.86680	11331.00000
40.89310	11385.00000
40.91930	11149.00000
40.94560	11409.00000
40.97190	11235.00000
40.99810	11496.00000
41.02440	11095.00000
41.05060	11602.00000
41.07690	11035.00000
41.10320	11217.00000
41.12940	11139.00000
41.15570	11390.00000
41.18190	11174.00000
41.20820	11295.00000
41.23450	11441.00000
41.26070	11276.00000
41.28700	11438.00000
41.31320	11265.00000
41.33950	11451.00000
41.36580	11464.00000
41.39200	11127.00000
41.41830	11101.00000
41.44450	11206.00000
41.47080	11300.00000
41.49710	11322.00000
41.52330	11285.00000
41.54960	11173.00000
41.57580	11157.00000
41.60210	11373.00000
41.62840	11257.00000
41.65460	11305.00000
41.68090	11272.00000
41.70710	11316.00000
41.73340	11262.00000
41.75970	11227.00000
41.78590	11339.00000
41.81220	11233.00000
41.83840	11245.00000
41.86470	11311.00000
41.89100	11503.00000
41.91720	11587.00000
41.94350	11821.00000
41.96970	11929.00000
41.99600	12447.00000
42.02230	13670.00000
42.04850	14187.00000
42.07480	14081.00000
42.10100	12841.00000
42.12730	12543.00000
42.15360	12770.00000
42.17980	12825.00000
42.20610	12107.00000
42.23230	11799.00000
42.25860	11422.00000
42.28490	11401.00000
42.31110	11536.00000
42.33740	11167.00000
42.36360	11257.00000
42.38990	11143.00000
42.41620	11346.00000
42.44240	11264.00000
42.46870	11407.00000
42.49490	11292.00000
42.52120	11435.00000
42.54750	11311.00000
42.57370	11259.00000
42.60000	11152.00000
42.62620	11326.00000
42.65250	11167.00000
42.67880	11323.00000
42.70500	11236.00000
42.73130	11136.00000
42.75750	11159.00000
42.78380	11325.00000
42.81010	11163.00000
42.83630	11183.00000
42.86260	11382.00000
42.88880	11330.00000
42.91510	11289.00000
42.94140	11198.00000
42.96760	11371.00000
42.99390	11268.00000
43.02010	11165.00000
43.04640	11009.00000
43.07270	11129.00000
43.09890	11225.00000
43.12520	11143.00000
43.15140	11081.00000
43.17770	11262.00000
43.20400	11104.00000
43.23020	11347.00000
43.25650	11086.00000
43.28270	11352.00000
43.30900	11279.00000
43.33530	11351.00000
43.36150	11261.00000
43.38780	11263.00000
43.41400	11200.00000
43.44030	11375.00000
43.46660	11206.00000
43.49280	11335.00000
43.51910	10898.00000
43.54530	11311.00000
43.57160	11212.00000
43.59790	11187.00000
43.62410	11277.00000
43.65040	11141.00000
43.67660	11301.00000
43.70290	11186.00000
43.72920	11188.00000
43.75540	11328.00000
43.78170	11264.00000
43.80790	11089.00000
43.83420	11539.00000
43.86050	11348.00000
43.88670	11451.00000
43.91300	11551.00000
43.93920	11819.00000
43.96550	11707.00000
43.99180	11544.00000
44.01800	11513.00000
44.04430	11593.00000
44.07050	11241.00000
44.09680	11402.00000
44.12310	11436.00000
44.14930	11335.00000
44.17560	11454.00000
44.20180	11240.00000
44.22810	11219.00000
44.25440	11299.00000
44.28060	11248.00000
44.30690	11176.00000
44.33310	11261.00000
44.35940	11206.00000
44.38570	11227.00000
44.41190	11437.00000
44.43820	11209.00000
44.46440	11198.00000
44.49070	11283.00000
44.51700	11150.00000
44.54320	11217.00000
44.56950	11043.00000
44.59570	11051.00000
44.62200	11373.00000
44.64830	11427.00000
44.67450	11241.00000
44.70080	11197.00000
44.72700	11226.00000
44.75330	11194.00000
44.77960	11249.00000
44.80580	11205.00000
44.83210	11177.00000
44.85830	11366.00000
44.88460	11344.00000
44.91090	11145.00000
44.93710	11175.00000
44.96340	11372.00000
44.98960	11510.00000
45.01590	11391.00000
45.04220	11381.00000
45.06840	11392.00000
45.09470	11327.00000
45.12090	11258.00000
45.14720	11277.00000
45.17350	11267.00000
45.19970	11162.00000
45.22600	11152.00000
45.25220	11282.00000
45.27850	11159.00000
45.30480	11403.00000
45.33100	11274.00000
45.35730	11041.00000
45.38350	11253.00000
45.40980	11294.00000
45.43610	11375.00000
45.46230	11313.00000
45.48860	11154.00000
45.51480	11218.00000
45.54110	11125.00000
45.56740	11293.00000
45.59360	11192.00000
45.61990	11254.00000
45.64610	11293.00000
45.67240	11474.00000
45.69870	11349.00000
45.72490	11527.00000
45.75120	11523.00000
45.77740	12093.00000
45.80370	12452.00000
45.83000	13047.00000
45.85620	14102.00000
45.88250	14368.00000
45.90870	14810.00000
45.93500	14695.00000
45.96130	14740.00000
45.98750	15006.00000
46.01380	14480.00000
46.04000	13656.00000
46.06630	12761.00000
46.09260	12901.00000
46.11880	12520.00000
46.14510	12040.00000
46.17130	11559.00000
46.19760	11429.00000
46.22390	11558.00000
46.25010	11721.00000
46.27640	12159.00000
46.30260	12562.00000
46.32890	12684.00000
46.35520	12415.00000
46.38140	12626.00000
46.40770	12561.00000
46.43390	12566.00000
46.46020	12337.00000
46.48650	12093.00000
46.51270	11938.00000
46.53900	11696.00000
46.56520	11563.00000
46.59150	11484.00000
46.61780	11283.00000
46.64400	11365.00000
46.67030	11247.00000
46.69650	11363.00000
46.72280	11240.00000
46.74910	11295.00000
46.77530	11287.00000
46.80160	11071.00000
46.82780	11280.00000
46.85410	11298.00000
46.88040	11160.00000
46.90660	11417.00000
46.93290	11278.00000
46.95910	11097.00000
46.98540	11257.00000
47.01170	11235.00000
47.03790	11089.00000
47.06420	11311.00000
47.09040	11286.00000
47.11670	11080.00000
47.14300	11218.00000
47.16920	11149.00000
47.19550	11145.00000
47.22170	11210.00000
47.24800	11276.00000
47.27430	11329.00000
47.30050	11203.00000
47.32680	11109.00000
47.35300	11196.00000
47.37930	11283.00000
47.40560	11233.00000
47.43180	11094.00000
47.45810	11128.00000
47.48430	11231.00000
47.51060	11225.00000
47.53690	11430.00000
47.56310	11330.00000
47.58940	11489.00000
47.61560	11652.00000
47.64190	12137.00000
47.66820	12758.00000
47.69440	13379.00000
47.72070	12953.00000
47.74690	12255.00000
47.77320	11807.00000
47.79950	12078.00000
47.82570	12318.00000
47.85200	11926.00000
47.87820	11697.00000
47.90450	11362.00000
47.93080	11078.00000
47.95700	11076.00000
47.98330	11206.00000
48.00950	10917.00000
48.03580	11271.00000
48.06210	11161.00000
48.08830	11174.00000
48.11460	11035.00000
48.14080	11074.00000
48.16710	11194.00000
48.19340	11275.00000
48.21960	11122.00000
48.24590	10974.00000
48.27210	11335.00000
48.29840	11113.00000
48.32470	10974.00000
48.35090	11212.00000
48.37720	10987.00000
48.40340	11132.00000
48.42970	11122.00000
48.45600	11253.00000
48.48220	11038.00000
48.50850	11206.00000
48.53470	10893.00000
48.56100	11127.00000
48.58730	11062.00000
48.61350	11056.00000
48.63980	10966.00000
48.66600	11096.00000
48.69230	11099.00000
48.71860	10979.00000
48.74480	10970.00000
48.77110	10959.00000
48.79730	11014.00000
48.82360	11080.00000
48.84990	11040.00000
48.87610	10932.00000
48.90240	11048.00000
48.92860	11076.00000
48.95490	10980.00000
48.98120	10962.00000
49.00740	10972.00000
49.03370	10966.00000
49.05990	11219.00000
49.08620	11045.00000
49.11250	11057.00000
49.13870	10946.00000
49.16500	11113.00000
49.19120	11034.00000
49.21750	11041.00000
49.24380	10912.00000
49.27000	11030.00000
49.29630	10854.00000
49.32250	11071.00000
49.34880	10893.00000
49.37510	11032.00000
49.40130	11208.00000
49.42760	11181.00000
49.45380	11240.00000
49.48010	11023.00000
49.50640	11064.00000
49.53260	11132.00000
49.55890	11193.00000
49.58510	10929.00000
49.61140	11187.00000
49.63770	11085.00000
49.66390	11188.00000
49.69020	10900.00000
49.71640	10982.00000
49.74270	11050.00000
49.76900	11040.00000
49.79520	11197.00000
49.82150	11102.00000
49.84770	11277.00000
49.87400	11152.00000
49.90030	11333.00000
49.92650	11620.00000
49.95280	11535.00000
49.97900	11346.00000
50.00530	11269.00000
50.03160	11224.00000
50.05780	11479.00000
50.08410	11176.00000
50.11030	11023.00000
50.13660	11193.00000
50.16290	11076.00000
50.18910	10912.00000
50.21540	10974.00000
50.24160	11058.00000
50.26790	10884.00000
50.29420	11160.00000
50.32040	11197.00000
50.34670	11190.00000
50.37290	11018.00000
50.39920	11070.00000
50.42550	11083.00000
50.45170	10943.00000
50.47800	10917.00000
50.50420	10774.00000
50.53050	11018.00000
50.55680	11242.00000
50.58300	10992.00000
50.60930	11073.00000
50.63550	11297.00000
50.66180	10973.00000
50.68810	10930.00000
50.71430	11245.00000
50.74060	11158.00000
50.76680	11164.00000
50.79310	10939.00000
50.81940	11062.00000
50.84560	11224.00000
50.87190	11297.00000
50.89810	10942.00000
50.92440	11222.00000
50.95070	11015.00000
50.97690	11208.00000
51.00320	10984.00000
51.02940	10984.00000
51.05570	11253.00000
51.08200	11331.00000
51.10820	11188.00000
51.13450	11330.00000
51.16070	11358.00000
51.18700	11491.00000
51.21330	12056.00000
51.23950	12694.00000
51.26580	13334.00000
51.29200	13705.00000
51.31830	14350.00000
51.34460	14561.00000
51.37080	13318.00000
51.39710	12880.00000
51.42330	12679.00000
51.44960	12596.00000
51.47590	12726.00000
51.50210	12144.00000
51.52840	11685.00000
51.55460	11229.00000
51.58090	11418.00000
51.60720	11470.00000
51.63340	11491.00000
51.65970	11360.00000
51.68590	11330.00000
51.71220	11164.00000
51.73850	11200.00000
51.76470	11159.00000
51.79100	11248.00000
51.81720	11143.00000
51.84350	11077.00000
51.86980	11193.00000
51.89600	11202.00000
51.92230	11247.00000
51.94850	11217.00000
51.97480	11190.00000
52.00110	10830.00000
52.02730	11138.00000
52.05360	10992.00000
52.07980	11058.00000
52.10610	11180.00000
52.13240	11158.00000
52.15860	11320.00000
52.18490	11222.00000
52.21110	11012.00000
52.23740	10920.00000
52.26370	10958.00000
52.28990	11189.00000
52.31620	10930.00000
52.34240	11103.00000
52.36870	11015.00000
52.39500	11034.00000
52.42120	11037.00000
52.44750	11064.00000
52.47370	11142.00000
52.50000	11217.00000
52.52630	10899.00000
52.55250	10847.00000
52.57880	10929.00000
52.60500	11067.00000
52.63130	10955.00000
52.65760	11000.00000
52.68380	11056.00000
52.71010	11130.00000
52.73630	11041.00000
52.76260	11049.00000
52.78890	11347.00000
52.81510	11127.00000
52.84140	11258.00000
52.86760	11731.00000
52.89390	11914.00000
52.92020	12224.00000
52.94640	12140.00000
52.97270	11759.00000
52.99890	11639.00000
53.02520	11666.00000
53.05150	11638.00000
53.07770	11858.00000
53.10400	11384.00000
53.13020	11410.00000
53.15650	11200.00000
53.18280	11162.00000
53.20900	11123.00000
53.23530	11184.00000
53.26150	11309.00000
53.28780	11262.00000
53.31410	10928.00000
53.34030	11145.00000
53.36660	11080.00000
53.39280	11024.00000
53.41910	11126.00000
53.44540	10966.00000
53.47160	11024.00000
53.49790	10993.00000
53.52410	11124.00000
53.55040	10914.00000
53.57670	10987.00000
53.60290	11136.00000
53.62920	10996.00000
53.65540	11018.00000
53.68170	10986.00000
53.70800	11007.00000
53.73420	11181.00000
53.76050	11025.00000
53.78670	11122.00000
53.81300	11040.00000
53.83930	11022.00000
53.86550	11016.00000
53.89180	11055.00000
53.91800	11031.00000
53.94430	10977.00000
53.97060	11157.00000
53.99680	10995.00000
54.02310	11230.00000
54.04930	11081.00000
54.07560	11171.00000
54.10190	11015.00000
54.12810	11100.00000
54.15440	11060.00000
54.18060	11138.00000
54.20690	10947.00000
54.23320	11095.00000
54.25940	11206.00000
54.28570	11052.00000
54.31190	11030.00000
54.33820	10895.00000
54.36450	11031.00000
54.39070	11036.00000
54.41700	10910.00000
54.44320	11173.00000
54.46950	10948.00000
54.49580	11177.00000
54.52200	11048.00000
54.54830	10941.00000
54.57450	11006.00000
54.60080	11087.00000
54.62710	11067.00000
54.65330	11107.00000
54.67960	11210.00000
54.70580	11177.00000
54.73210	10989.00000
54.75840	11117.00000
54.78460	11175.00000
54.81090	10920.00000
54.83710	11200.00000
54.86340	11056.00000
54.88970	11154.00000
54.91590	10893.00000
54.94220	11157.00000
54.96840	11282.00000
54.99470	11219.00000
55.02100	11455.00000
55.04720	10981.00000
55.07350	11226.00000
55.09970	11198.00000
55.12600	11118.00000
55.15230	11358.00000
55.17850	11196.00000
55.20480	11092.00000
55.23100	10863.00000
55.25730	11125.00000
55.28360	10822.00000
55.30980	11130.00000
55.33610	11345.00000
55.36230	11219.00000
55.38860	10997.00000
55.41490	11090.00000
55.44110	10904.00000
55.46740	10970.00000
55.49360	11052.00000
55.51990	10998.00000
55.54620	10937.00000
55.57240	10953.00000
55.59870	11050.00000
55.62490	11009.00000
55.65120	11169.00000
55.67750	11170.00000
55.70370	11070.00000
55.73000	11093.00000
55.75620	10881.00000
55.78250	10921.00000
55.80880	11116.00000
55.83500	11008.00000
55.86130	11051.00000
55.88750	11148.00000
55.91380	11211.00000
55.94010	10865.00000
55.96630	10978.00000
55.99260	11066.00000
56.01880	10932.00000
56.04510	11156.00000
56.07140	11109.00000
56.09760	11119.00000
56.12390	10955.00000
56.15010	11054.00000
56.17640	11099.00000
56.20270	11006.00000
56.22890	11017.00000
56.25520	11000.00000
56.28140	11052.00000
56.30770	11169.00000
56.33400	11255.00000
56.36020	11506.00000
56.38650	11406.00000
56.41270	11795.00000
56.43900	11352.00000
56.46530	11554.00000
56.49150	11366.00000
56.51780	11392.00000
56.54400	11467.00000
56.57030	11438.00000
56.59660	11428.00000
56.62280	11471.00000
56.64910	11642.00000
56.67530	11581.00000
56.70160	11565.00000
56.72790	11796.00000
56.75410	12083.00000
56.78040	11665.00000
56.80660	11633.00000
56.83290	11236.00000
56.85920	11611.00000
56.88540	11398.00000
56.91170	11420.00000
56.93790	11308.00000
56.96420	11221.00000
56.99050	11198.00000
57.01670	10959.00000
57.04300	11016.00000
57.06920	11083.00000
57.09550	11247.00000
57.12180	11061.00000
57.14800	11113.00000
57.17430	10904.00000
57.20050	11041.00000
57.22680	10923.00000
57.25310	10813.00000
57.27930	11347.00000
57.30560	11052.00000
57.33180	11128.00000
57.35810	11110.00000
57.38440	10977.00000
57.41060	11097.00000
57.43690	10952.00000
57.46310	11154.00000
57.48940	10972.00000
57.51570	11008.00000
57.54190	10868.00000
57.56820	11121.00000
57.59440	11035.00000
57.62070	11041.00000
57.64700	11050.00000
57.67320	11050.00000
57.69950	11096.00000
57.72570	11283.00000
57.75200	11175.00000
57.77830	11518.00000
57.80450	11527.00000
57.83080	11461.00000
57.85700	11278.00000
57.88330	11256.00000
57.90960	11381.00000
57.93580	11472.00000
57.96210	11238.00000
57.98830	11353.00000
58.01460	11531.00000
58.04090	11209.00000
58.06710	11143.00000
58.09340	10888.00000
58.11960	10942.00000
58.14590	11133.00000
58.17220	11036.00000
58.19840	11129.00000
58.22470	11219.00000
58.25090	11071.00000
58.27720	11021.00000
58.30350	11131.00000
58.32970	11050.00000
58.35600	11029.00000
58.38220	11270.00000
58.40850	10933.00000
58.43480	11081.00000
58.46100	11102.00000
58.48730	11028.00000
58.51350	10993.00000
58.53980	11003.00000
58.56610	11228.00000
58.59230	11132.00000
58.61860	11209.00000
58.64480	10977.00000
58.67110	10964.00000
58.69740	11130.00000
58.72360	11121.00000
58.74990	11022.00000
58.77610	11089.00000
58.80240	11063.00000
58.82870	11123.00000
58.85490	11091.00000
58.88120	11136.00000
58.90740	10913.00000
58.93370	11210.00000
58.96000	11040.00000
58.98620	11003.00000
59.01250	11130.00000
59.03870	11005.00000
59.06500	10950.00000
59.09130	11061.00000
59.11750	11156.00000
59.14380	11206.00000
59.17000	10956.00000
59.19630	11215.00000
59.22260	11485.00000
59.24880	11252.00000
59.27510	11510.00000
59.30130	11889.00000
59.32760	12591.00000
59.35390	12910.00000
59.38010	12547.00000
59.40640	11903.00000
59.43260	11556.00000
59.45890	11595.00000
59.48520	11803.00000
59.51140	12055.00000
59.53770	11790.00000
59.56390	11474.00000
59.59020	11431.00000
59.61650	11099.00000
59.64270	11058.00000
59.66900	11179.00000
59.69520	11189.00000
59.72150	11082.00000
59.74780	11289.00000
59.77400	11209.00000
59.80030	11226.00000
59.82650	11146.00000
59.85280	10978.00000
59.87910	11123.00000
59.90530	11144.00000
59.93160	11152.00000
59.95780	11288.00000
59.98410	11140.00000
60.01040	11150.00000
60.03660	10974.00000
60.06290	10919.00000
60.08910	10797.00000
60.11540	11116.00000
60.14170	11240.00000
60.16790	11084.00000
60.19420	11212.00000
60.22040	10978.00000
60.24670	10966.00000
60.27300	11007.00000
60.29920	10866.00000
60.32550	10724.00000
60.35170	11028.00000
60.37800	10956.00000
60.40430	10725.00000
60.43050	10818.00000
60.45680	10968.00000
60.48300	11058.00000
60.50930	11009.00000
60.53560	11075.00000
60.56180	10990.00000
60.58810	11039.00000
60.61430	10848.00000
60.64060	11061.00000
60.66690	11060.00000
60.69310	11029.00000
60.71940	10855.00000
60.74560	10924.00000
60.77190	11081.00000
60.79820	10878.00000
60.82440	11241.00000
60.85070	11183.00000
60.87690	11058.00000
60.90320	11242.00000
60.92950	11184.00000
60.95570	11349.00000
60.98200	11536.00000
61.00820	11778.00000
61.03450	11445.00000
61.06080	11403.00000
61.08700	11307.00000
61.11330	11273.00000
61.13950	11443.00000
61.16580	11043.00000
61.19210	11185.00000
61.21830	11127.00000
61.24460	11083.00000
61.27080	11019.00000
61.29710	11150.00000
61.32340	11078.00000
61.34960	11121.00000
61.37590	11125.00000
61.40210	11105.00000
61.42840	11036.00000
61.45470	11060.00000
61.48090	11166.00000
61.50720	11024.00000
61.53340	10834.00000
61.55970	10991.00000
61.58600	10954.00000
61.61220	11021.00000
61.63850	11068.00000
61.66470	10797.00000
61.69100	10946.00000
61.71730	10928.00000
61.74350	10891.00000
61.76980	10849.00000
61.79600	10948.00000
61.82230	10968.00000
61.84860	10912.00000
61.87480	10917.00000
61.90110	10992.00000
61.92730	10719.00000
61.95360	10868.00000
61.97990	11003.00000
62.00610	10964.00000
62.03240	10992.00000
62.05860	10792.00000
62.08490	11079.00000
62.11120	10904.00000
62.13740	10958.00000
62.16370	10803.00000
62.18990	10958.00000
62.21620	10802.00000
62.24250	11031.00000
62.26870	10952.00000
62.29500	10690.00000
62.32120	10884.00000
62.34750	11060.00000
62.37380	11053.00000
62.40000	11016.00000
62.42630	11081.00000
62.45250	11136.00000
62.47880	11301.00000
62.50510	10727.00000
62.53130	11064.00000
62.55760	11331.00000
62.58380	11250.00000
62.61010	11432.00000
62.63640	11243.00000
62.66260	11295.00000
62.68890	10950.00000
62.71510	11107.00000
62.74140	11203.00000
62.76770	11039.00000
62.79390	11264.00000
62.82020	11336.00000
62.84640	11168.00000
62.87270	11080.00000
62.89900	11170.00000
62.92520	10797.00000
62.95150	10909.00000
62.97770	10908.00000
63.00400	11223.00000
63.03030	11001.00000
63.05650	10892.00000
63.08280	11064.00000
63.10900	10954.00000
63.13530	10935.00000
63.16160	10982.00000
63.18780	10666.00000
63.21410	11084.00000
63.24030	10966.00000
63.26660	10897.00000
63.29290	11093.00000
63.31910	11043.00000
63.34540	11108.00000
63.37160	10917.00000
63.39790	10831.00000
63.42420	10894.00000
63.45040	11018.00000
63.47670	10748.00000
63.50290	10947.00000
63.52920	11011.00000
63.55550	10706.00000
63.58170	10882.00000
63.60800	11030.00000
63.63420	10929.00000
63.66050	11136.00000
63.68680	11000.00000
63.71300	10984.00000
63.73930	10963.00000
63.76550	10871.00000
63.79180	10964.00000
63.81810	10964.00000
63.84430	10845.00000
63.87060	10964.00000
63.89680	11064.00000
63.92310	10906.00000
63.94940	11072.00000
63.97560	11091.00000
64.00190	10827.00000
64.02820	11101.00000
64.05440	10949.00000
64.08070	10954.00000
64.10690	11168.00000
64.13320	11001.00000
64.15950	11077.00000
64.18570	11007.00000
64.21200	10788.00000
64.23820	11018.00000
64.26450	10979.00000
64.29070	10949.00000
64.31700	11022.00000
64.34330	11128.00000
64.36950	10984.00000
64.39580	11051.00000
64.42210	10863.00000
64.44830	10999.00000
64.47460	11021.00000
64.50080	10974.00000
64.52710	11025.00000
64.55340	11015.00000
64.57960	10915.00000
64.60590	11006.00000
64.63210	10864.00000
64.65840	10899.00000
64.68470	10952.00000
64.71090	10972.00000
64.73720	10911.00000
64.76340	10922.00000
64.78970	10963.00000
64.81590	10814.00000
64.84220	11087.00000
64.86850	11191.00000
64.89470	10873.00000
64.92100	10971.00000
64.94730	10820.00000
64.97350	10971.00000
64.99980	10838.00000
65.02600	10804.00000
65.05230	10849.00000
65.07860	11116.00000
65.10480	10831.00000
65.13110	11155.00000
65.15730	10975.00000
65.18360	11031.00000
65.20990	10936.00000
65.23610	10878.00000
65.26240	10996.00000
65.28860	10942.00000
65.31490	10967.00000
65.34110	11076.00000
65.36740	11130.00000
65.39370	11193.00000
65.41990	11307.00000
65.44620	11561.00000
65.47250	11188.00000
65.49870	11311.00000
65.52500	11223.00000
65.55120	11250.00000
65.57750	11437.00000
65.60380	11640.00000
65.63000	11403.00000
65.65630	11435.00000
65.68250	11395.00000
65.70880	11301.00000
65.73510	11345.00000
65.76130	11699.00000
65.78760	11325.00000
65.81380	11537.00000
65.84010	11412.00000
65.86630	11388.00000
65.89260	11292.00000
65.91890	11200.00000
65.94510	11421.00000
65.97140	11302.00000
65.99770	11332.00000
66.02390	11120.00000
66.05020	11196.00000
66.07640	11091.00000
66.10270	11073.00000
66.12900	11152.00000
66.15520	11039.00000
66.18150	10891.00000
66.20770	10936.00000
66.23400	10928.00000
66.26030	10962.00000
66.28650	11014.00000
66.31280	10892.00000
66.33900	11014.00000
66.36530	10819.00000
66.39150	10904.00000
66.41780	10740.00000
66.44410	10827.00000
66.47030	10901.00000
66.49660	10930.00000
66.52290	10987.00000
66.54910	11004.00000
66.57540	11022.00000
66.60160	10837.00000
66.62790	10971.00000
66.65420	11037.00000
66.68040	10912.00000
66.70670	11098.00000
66.73290	11022.00000
66.75920	11058.00000
66.78550	11104.00000
66.81170	11260.00000
66.83800	11448.00000
66.86420	11385.00000
66.89050	11528.00000
66.91670	11329.00000
66.94300	11239.00000
66.96930	11036.00000
66.99550	11179.00000
67.02180	10973.00000
67.04800	11275.00000
67.07430	11148.00000
67.10060	11175.00000
67.12680	11094.00000
67.15310	11084.00000
67.17940	11149.00000
67.20560	11169.00000
67.23190	11082.00000
67.25810	10844.00000
67.28440	11012.00000
67.31070	11130.00000
67.33690	10961.00000
67.36320	11109.00000
67.38940	11235.00000
67.41570	10861.00000
67.44190	10870.00000
67.46820	10989.00000
67.49450	10924.00000
67.52070	11004.00000
67.54700	10882.00000
67.57320	10893.00000
67.59950	10692.00000
67.62580	10900.00000
67.65200	11213.00000
67.67830	10841.00000
67.70460	10900.00000
67.73080	10980.00000
67.75710	11084.00000
67.78330	10910.00000
67.80960	11094.00000
67.83590	10836.00000
67.86210	10866.00000
67.88840	10872.00000
67.91460	10925.00000
67.94090	10878.00000
67.96710	10767.00000
67.99340	10905.00000
68.01970	10909.00000
68.04590	10916.00000
68.07220	10866.00000
68.09840	11000.00000
68.12470	10954.00000
68.15100	10990.00000
68.17720	10803.00000
68.20350	11017.00000
68.22980	11105.00000
68.25600	10642.00000
68.28230	10966.00000
68.30850	10852.00000
68.33480	11035.00000
68.36110	10980.00000
68.38730	10819.00000
68.41360	10840.00000
68.43980	10964.00000
68.46610	11020.00000
68.49230	11150.00000
68.51860	10975.00000
68.54490	11028.00000
68.57110	11033.00000
68.59740	10802.00000
68.62360	11049.00000
68.64990	10947.00000
68.67620	10896.00000
68.70240	11099.00000
68.72870	10997.00000
68.75500	10900.00000
68.78120	10986.00000
68.80750	11021.00000
68.83370	10920.00000
68.86000	11279.00000
68.88630	11268.00000
68.91250	11111.00000
68.93880	11059.00000
68.96500	10970.00000
68.99130	10875.00000
69.01750	11020.00000
69.04380	10952.00000
69.07010	11121.00000
69.09630	10891.00000
69.12260	11191.00000
69.14880	10942.00000
69.17510	10882.00000
69.20140	11052.00000
69.22760	10910.00000
69.25390	10915.00000
69.28020	10972.00000
69.30640	10926.00000
69.33270	11139.00000
69.35890	11115.00000
69.38520	10753.00000
69.41150	11285.00000
69.43770	11126.00000
69.46400	11234.00000
69.49020	10918.00000
69.51650	10966.00000
69.54270	10949.00000
69.56900	11036.00000
69.59530	10807.00000
69.62150	10953.00000
69.64780	11042.00000
69.67400	11078.00000
69.70030	11010.00000
69.72660	10935.00000
69.75280	11194.00000
69.77910	11473.00000
69.80540	11365.00000
69.83160	11419.00000
69.85790	11548.00000
69.88410	11758.00000
69.91040	11564.00000
69.93670	11914.00000
69.96290	11452.00000
69.98920	11414.00000
70.01540	11508.00000
70.04170	11312.00000
70.06790	11607.00000
70.09420	11439.00000
70.12050	11512.00000
70.14670	11290.00000
70.17300	11151.00000
70.19920	11046.00000
70.22550	11029.00000
70.25180	10795.00000
70.27800	11087.00000
70.30430	10732.00000
70.33060	10875.00000
70.35680	10917.00000
70.38310	10821.00000
70.40930	11162.00000
70.43560	10823.00000
70.46190	10884.00000
70.48810	11034.00000
70.51440	10913.00000
70.54060	11008.00000
70.56690	10849.00000
70.59320	10801.00000
70.61940	10963.00000
70.64570	10958.00000
70.67190	10879.00000
70.69820	10911.00000
70.72440	11089.00000
70.75070	11028.00000
70.77700	10805.00000
70.80320	10662.00000
70.82950	10954.00000
70.85580	10917.00000
70.88200	10750.00000
70.90830	10850.00000
70.93450	10754.00000
70.96080	10690.00000
70.98710	10817.00000
71.01330	10849.00000
71.03960	10741.00000
71.06580	11012.00000
71.09210	10880.00000
71.11840	11115.00000
71.14460	11188.00000
71.17090	11085.00000
71.19710	11177.00000
71.22340	11012.00000
71.24960	10944.00000
71.27590	10996.00000
71.30220	10986.00000
71.32840	10823.00000
71.35470	11207.00000
71.38100	11051.00000
71.40720	11011.00000
71.43350	11090.00000
71.45970	11010.00000
71.48600	10997.00000
71.51230	11052.00000
71.53850	10902.00000
71.56480	10760.00000
71.59100	10812.00000
71.61730	10913.00000
71.64360	10837.00000
71.66980	10863.00000
71.69610	10984.00000
71.72230	10887.00000
71.74860	10836.00000
71.77480	11058.00000
71.80110	10838.00000
71.82740	10941.00000
71.85360	10768.00000
71.87990	10838.00000
71.90620	10885.00000
71.93240	10948.00000
71.95870	10887.00000
71.98490	10610.00000
72.01120	10727.00000
72.03750	10945.00000
72.06370	10795.00000
72.09000	10928.00000
72.11620	10723.00000
72.14250	10883.00000
72.16880	10986.00000
72.19500	10802.00000
72.22130	11080.00000
72.24750	10872.00000
72.27380	10910.00000
72.30000	10800.00000
72.32630	10975.00000
72.35260	10912.00000
72.37880	10830.00000
72.40510	10935.00000
72.43140	10857.00000
72.45760	10851.00000
72.48390	10789.00000
72.51010	10814.00000
72.53640	10841.00000
72.56270	11025.00000
72.58890	10917.00000
72.61520	10718.00000
72.64140	10809.00000
72.66770	10879.00000
72.69400	10947.00000
72.72020	11042.00000
72.74650	10808.00000
72.77270	10979.00000
72.79900	10953.00000
72.82520	10892.00000
72.85150	10930.00000
72.87780	11040.00000
72.90400	10880.00000
72.93030	11236.00000
72.95660	11077.00000
72.98280	10925.00000
73.00910	10968.00000
73.03530	10801.00000
73.06160	10745.00000
73.08790	10865.00000
73.11410	11118.00000
73.14040	10751.00000
73.16660	11077.00000
73.19290	10937.00000
73.21920	11064.00000
73.24540	10986.00000
73.27170	10856.00000
73.29790	10917.00000
73.32420	10909.00000
73.35040	10822.00000
73.37670	10886.00000
73.40300	10790.00000
73.42920	10883.00000
73.45550	10701.00000
73.48180	10956.00000
73.50800	10780.00000
73.53430	10823.00000
73.56050	10802.00000
73.58680	10927.00000
73.61310	10639.00000
73.63930	10862.00000
73.66560	10769.00000
73.69180	10869.00000
73.71810	10911.00000
73.74440	10908.00000
73.77060	10734.00000
73.79690	10833.00000
73.82310	10824.00000
73.84940	10967.00000
73.87560	10853.00000
73.90190	10875.00000
73.92820	11023.00000
73.95440	11196.00000
73.98070	11200.00000
74.00700	11161.00000
74.03320	10952.00000
74.05950	11140.00000
74.08570	10919.00000
74.11200	10851.00000
74.13830	11040.00000
74.16450	10978.00000
74.19080	10961.00000
74.21700	10841.00000
74.24330	11150.00000
74.26960	11034.00000
74.29580	11157.00000
74.32210	11112.00000
74.34830	10997.00000
74.37460	11054.00000
74.40080	11031.00000
74.42710	10733.00000
74.45340	10963.00000
74.47960	10893.00000
74.50590	10972.00000
74.53220	10854.00000
74.55840	10729.00000
74.58470	10956.00000
74.61090	10756.00000
74.63720	10955.00000
74.66350	11015.00000
74.68970	10937.00000
74.71600	10755.00000
74.74220	10861.00000
74.76850	10761.00000
74.79480	10834.00000
74.82100	10861.00000
74.84730	10865.00000
74.87350	10917.00000
74.89980	10715.00000
74.92600	10840.00000
74.95230	11020.00000
74.97860	10863.00000
75.00480	10844.00000
75.03110	10861.00000
75.05740	10771.00000
75.08360	10706.00000
75.10990	10524.00000
75.13610	10922.00000
75.16240	10754.00000
75.18870	10654.00000
75.21490	10883.00000
75.24120	10809.00000
75.26740	10954.00000
75.29370	11034.00000
75.32000	11051.00000
75.34620	10983.00000
75.37250	11051.00000
75.39870	11257.00000
75.42500	11105.00000
75.45120	11053.00000
75.47750	10830.00000
75.50380	10791.00000
75.53000	11006.00000
75.55630	10949.00000
75.58260	10972.00000
75.60880	11051.00000
75.63510	11045.00000
75.66130	10900.00000
75.68760	10939.00000
75.71390	10910.00000
75.74010	10969.00000
75.76640	10954.00000
75.79260	10894.00000
75.81890	10721.00000
75.84520	10842.00000
75.87140	10838.00000
75.89770	10845.00000
75.92390	10913.00000
75.95020	10906.00000
75.97640	10525.00000
76.00270	10678.00000
76.02900	10838.00000
76.05520	10737.00000
76.08150	10600.00000
76.10770	10809.00000
76.13400	10778.00000
76.16030	10756.00000
76.18650	10708.00000
76.21280	10786.00000
76.23910	10839.00000
76.26530	10768.00000
76.29160	10594.00000
76.31780	10687.00000
76.34410	10651.00000
76.37040	10711.00000
76.39660	10692.00000
76.42290	10975.00000
76.44910	10724.00000
76.47540	10804.00000
76.50160	10798.00000
76.52790	10703.00000
76.55420	10634.00000
76.58040	10730.00000
76.60670	10621.00000
76.63290	10709.00000
76.65920	10832.00000
76.68550	10680.00000
76.71170	10684.00000
76.73800	10751.00000
76.76430	10638.00000
76.79050	10603.00000
76.81680	10867.00000
76.84300	10732.00000
76.86930	10743.00000
76.89560	10792.00000
76.92180	10694.00000
76.94810	11091.00000
76.97430	10882.00000
77.00060	10751.00000
77.02680	10710.00000
77.05310	10686.00000
77.07940	10814.00000
77.10560	10782.00000
77.13190	10758.00000
77.15810	10916.00000
77.18440	10782.00000
77.21070	10786.00000
77.23690	10870.00000
77.26320	10920.00000
77.28950	11095.00000
77.31570	11110.00000
77.34200	10935.00000
77.36820	10869.00000
77.39450	10603.00000
77.42080	10928.00000
77.44700	10824.00000
77.47330	10708.00000
77.49950	10893.00000
77.52580	11014.00000
77.55200	10730.00000
77.57830	10738.00000
77.60460	10590.00000
77.63080	10879.00000
77.65710	10895.00000
77.68330	10770.00000
77.70960	10750.00000
77.73590	10854.00000
77.76210	10812.00000
77.78840	10706.00000
77.81470	10744.00000
77.84090	10499.00000
77.86720	10760.00000
77.89340	10642.00000
77.91970	10866.00000
77.94600	10880.00000
77.97220	10820.00000
77.99850	10576.00000
78.02470	10768.00000
78.05100	10837.00000
78.07720	10569.00000
78.10350	10841.00000
78.12980	10560.00000
78.15600	10633.00000
78.18230	10768.00000
78.20850	10643.00000
78.23480	10836.00000
78.26110	10525.00000
78.28730	10710.00000
78.31360	10687.00000
78.33990	10812.00000
78.36610	10697.00000
78.39240	10820.00000
78.41860	10712.00000
78.44490	10614.00000
78.47120	11095.00000
78.49740	10816.00000
78.52370	10977.00000
78.54990	10619.00000
78.57620	10588.00000
78.60240	10706.00000
78.62870	10745.00000
78.65500	10736.00000
78.68120	10866.00000
78.70750	10898.00000
78.73370	10756.00000
78.76000	10798.00000
78.78630	10852.00000
78.81250	10790.00000
78.83880	10754.00000
78.86510	10865.00000
78.89130	10703.00000
78.91760	10684.00000
78.94380	10593.00000
78.97010	10723.00000
78.99640	10739.00000
79.02260	10492.00000
79.04890	10782.00000
79.07510	10656.00000
79.10140	10704.00000
79.12760	10661.00000
79.15390	10733.00000
79.18020	10789.00000
79.20640	10654.00000
79.23270	10764.00000
79.25890	10679.00000
79.28520	10647.00000
79.31150	10714.00000
79.33770	10778.00000
79.36400	10759.00000
79.39030	10871.00000
79.41650	10639.00000
79.44280	10666.00000
79.46900	10793.00000
79.49530	10731.00000
79.52160	10728.00000
79.54780	10725.00000
79.57410	10624.00000
79.60030	10691.00000
79.62660	10799.00000
79.65280	10756.00000
79.67910	10942.00000
79.70540	10812.00000
79.73160	10668.00000
79.75790	10603.00000
79.78410	10845.00000
79.81040	10689.00000
79.83670	10827.00000
79.86290	10620.00000
79.88920	10781.00000
79.91550	10957.00000
79.94170	10721.00000
