1.01090	1074.00000
1.02761	1175.00000
1.04432	1182.00000
1.06103	1142.00000
1.07774	1236.00000
1.09445	1285.00000
1.11117	1303.00000
1.12788	1288.00000
1.14459	1312.00000
1.16130	1365.00000
1.17801	1333.00000
1.19472	1490.00000
1.21143	1447.00000
1.22814	1513.00000
1.24485	1484.00000
1.26156	1481.00000
1.27828	1517.00000
1.29499	1564.00000
1.31170	1531.00000
1.32841	1531.00000
1.34512	1500.00000
1.36183	1538.00000
1.37854	1478.00000
1.39525	1537.00000
1.41196	1529.00000
1.42867	1515.00000
1.44539	1533.00000
1.46210	1591.00000
1.47881	1521.00000
1.49552	1588.00000
1.51223	1543.00000
1.52894	1476.00000
1.54565	1547.00000
1.56236	1495.00000
1.57907	1565.00000
1.59578	1572.00000
1.61250	1510.00000
1.62921	1513.00000
1.64592	1581.00000
1.66263	1593.00000
1.67934	1569.00000
1.69605	1510.00000
1.71276	1486.00000
1.72947	1554.00000
1.74618	1515.00000
1.76289	1567.00000
1.77961	1498.00000
1.79632	1561.00000
1.81303	1478.00000
1.82974	1485.00000
1.84645	1569.00000
1.86316	1530.00000
1.87987	1550.00000
1.89658	1462.00000
1.91329	1512.00000
1.93000	1514.00000
1.94672	1548.00000
1.96343	1532.00000
1.98014	1527.00000
1.99685	1476.00000
2.01356	1506.00000
2.03027	1548.00000
2.04698	1586.00000
2.06369	1551.00000
2.08040	1562.00000
2.09711	1523.00000
2.11383	1509.00000
2.13054	1609.00000
2.14725	1643.00000
2.16396	1569.00000
2.18067	1556.00000
2.19738	1598.00000
2.21409	1550.00000
2.23080	1612.00000
2.24751	1598.00000
2.26422	1555.00000
2.28094	1540.00000
2.29765	1571.00000
2.31436	1611.00000
2.33107	1669.00000
2.34778	1580.00000
2.36449	1593.00000
2.38120	1502.00000
2.39791	1561.00000
2.41462	1614.00000
2.43133	1663.00000
2.44805	1588.00000
2.46476	1596.00000
2.48147	1583.00000
2.49818	1623.00000
2.51489	1639.00000
2.53160	1632.00000
2.54831	1534.00000
2.56502	1650.00000
2.58173	1604.00000
2.59844	1626.00000
2.61516	1629.00000
2.63187	1603.00000
2.64858	1630.00000
2.66529	1638.00000
2.68200	1660.00000
2.69871	1703.00000
2.71542	1658.00000
2.73213	1508.00000
2.74884	1644.00000
2.76555	1616.00000
2.78227	1647.00000
2.79898	1625.00000
2.81569	1634.00000
2.83240	1593.00000
2.84911	1720.00000
2.86582	1598.00000
2.88253	1715.00000
2.89924	1635.00000
2.91595	1715.00000
2.93266	1622.00000
2.94938	1559.00000
2.96609	1647.00000
2.98280	1622.00000
2.99951	1637.00000
3.01622	1645.00000
3.03293	1626.00000
3.04964	1697.00000
3.06635	1621.00000
3.08306	1622.00000
3.09977	1667.00000
3.11649	1639.00000
3.13320	1583.00000
3.14991	1599.00000
3.16662	1575.00000
3.18333	1680.00000
3.20004	1618.00000
3.21675	1664.00000
3.23346	1663.00000
3.25017	1600.00000
3.26688	1571.00000
3.28360	1628.00000
3.30031	1572.00000
3.31702	1592.00000
3.33373	1607.00000
3.35044	1594.00000
3.36715	1632.00000
3.38386	1625.00000
3.40057	1627.00000
3.41728	1602.00000
3.43399	1546.00000
3.45071	1561.00000
3.46742	1572.00000
3.48413	1532.00000
3.50084	1680.00000
3.51755	1616.00000
3.53426	1609.00000
3.55097	1529.00000
3.56768	1606.00000
3.58439	1628.00000
3.60110	1638.00000
3.61782	1646.00000
3.63453	1571.00000
3.65124	1572.00000
3.66795	1672.00000
3.68466	1654.00000
3.70137	1590.00000
3.71808	1607.00000
3.73479	1694.00000
3.75150	1683.00000
3.76821	1697.00000
3.78493	1628.00000
3.80164	1848.00000
3.81835	1690.00000
3.83506	1754.00000
3.85177	1715.00000
3.86848	1838.00000
3.88519	1910.00000
3.90190	1955.00000
3.91861	2056.00000
3.93532	2062.00000
3.95204	2109.00000
3.96875	2162.00000
3.98546	2368.00000
4.00217	2358.00000
4.01888	2538.00000
4.03559	2724.00000
4.05230	2963.00000
4.06901	3053.00000
4.08572	3520.00000
4.10243	3863.00000
4.11915	4251.00000
4.13586	4659.00000
4.15257	5286.00000
4.16928	6492.00000
4.18599	7834.00000
4.20270	10121.00000
4.21941	11758.00000
4.23612	9786.00000
4.25283	7045.00000
4.26954	4306.00000
4.28626	2409.00000
4.30297	1830.00000
4.31968	1628.00000
4.33639	1565.00000
4.35310	1512.00000
4.36981	1425.00000
4.38652	1463.00000
4.40323	1383.00000
4.41994	1385.00000
4.43665	1335.00000
4.45337	1402.00000
4.47008	1408.00000
4.48679	1398.00000
4.50350	1361.00000
4.52021	1454.00000
4.53692	1382.00000
4.55363	1432.00000
4.57034	1382.00000
4.58705	1320.00000
4.60376	1414.00000
4.62048	1393.00000
4.63719	1411.00000
4.65390	1340.00000
4.67061	1324.00000
4.68732	1367.00000
4.70403	1332.00000
4.72074	1337.00000
4.73745	1327.00000
4.75416	1354.00000
4.77087	1325.00000
4.78759	1427.00000
4.80430	1325.00000
4.82101	1417.00000
4.83772	1315.00000
4.85443	1339.00000
4.87114	1324.00000
4.88785	1272.00000
4.90456	1273.00000
4.92127	1309.00000
4.93798	1312.00000
4.95470	1322.00000
4.97141	1244.00000
4.98812	1300.00000
5.00483	1335.00000
5.02154	1253.00000
5.03825	1312.00000
5.05496	1303.00000
5.07167	1233.00000
5.08838	1253.00000
5.10509	1284.00000
5.12181	1285.00000
5.13852	1311.00000
5.15523	1283.00000
5.17194	1249.00000
5.18865	1297.00000
5.20536	1243.00000
5.22207	1313.00000
5.23878	1256.00000
5.25549	1241.00000
5.27220	1233.00000
5.28892	1344.00000
5.30563	1230.00000
5.32234	1263.00000
5.33905	1285.00000
5.35576	1218.00000
5.37247	1251.00000
5.38918	1270.00000
5.40589	1268.00000
5.42260	1241.00000
5.43931	1252.00000
5.45603	1295.00000
5.47274	1323.00000
5.48945	1230.00000
5.50616	1216.00000
5.52287	1248.00000
5.53958	1296.00000
5.55629	1238.00000
5.57300	1335.00000
5.58971	1246.00000
5.60642	1291.00000
5.62314	1202.00000
5.63985	1225.00000
5.65656	1219.00000
5.67327	1287.00000
5.68998	1257.00000
5.70669	1308.00000
5.72340	1248.00000
5.74011	1242.00000
5.75682	1238.00000
5.77353	1208.00000
5.79025	1286.00000
5.80696	1212.00000
5.82367	1313.00000
5.84038	1285.00000
5.85709	1259.00000
5.87380	1321.00000
5.89051	1296.00000
5.90722	1254.00000
5.92393	1271.00000
5.94064	1251.00000
5.95736	1242.00000
5.97407	1268.00000
5.99078	1253.00000
6.00749	1210.00000
6.02420	1206.00000
6.04091	1303.00000
6.05762	1223.00000
6.07433	1304.00000
6.09104	1215.00000
6.10775	1333.00000
6.12447	1255.00000
6.14118	1256.00000
6.15789	1327.00000
6.17460	1322.00000
6.19131	1410.00000
6.20802	1345.00000
6.22473	1362.00000
6.24144	1373.00000
6.25815	1389.00000
6.27486	1442.00000
6.29158	1443.00000
6.30829	1509.00000
6.32500	1597.00000
6.34171	1645.00000
6.35842	1776.00000
6.37513	1858.00000
6.39184	1988.00000
6.40855	2237.00000
6.42526	2572.00000
6.44197	2937.00000
6.45869	2946.00000
6.47540	2598.00000
6.49211	2333.00000
6.50882	1975.00000
6.52553	1631.00000
6.54224	1541.00000
6.55895	1333.00000
6.57566	1393.00000
6.59237	1477.00000
6.60908	1440.00000
6.62580	1437.00000
6.64251	1410.00000
6.65922	1430.00000
6.67593	1509.00000
6.69264	1505.00000
6.70935	1645.00000
6.72606	1614.00000
6.74277	1673.00000
6.75948	1668.00000
6.77619	1657.00000
6.79291	1532.00000
6.80962	1487.00000
6.82633	1541.00000
6.84304	1412.00000
6.85975	1458.00000
6.87646	1438.00000
6.89317	1515.00000
6.90988	1447.00000
6.92659	1477.00000
6.94330	1544.00000
6.96002	1550.00000
6.97673	1519.00000
6.99344	1629.00000
7.01015	1565.00000
7.02686	1499.00000
7.04357	1533.00000
7.06028	1582.00000
7.07699	1596.00000
7.09370	1571.00000
7.11041	1576.00000
7.12713	1588.00000
7.14384	1583.00000
7.16055	1651.00000
7.17726	1592.00000
7.19397	1678.00000
7.21068	1743.00000
7.22739	1725.00000
7.24410	1648.00000
7.26081	1703.00000
7.27752	1745.00000
7.29424	1898.00000
7.31095	1828.00000
7.32766	1917.00000
7.34437	1840.00000
7.36108	1943.00000
7.37779	1943.00000
7.39450	2065.00000
7.41121	2332.00000
7.42792	2388.00000
7.44463	2726.00000
7.46135	2900.00000
7.47806	3082.00000
7.49477	2946.00000
7.51148	2754.00000
7.52819	2569.00000
7.54490	2370.00000
7.56161	2240.00000
7.57832	2065.00000
7.59503	2069.00000
7.61174	2096.00000
7.62846	2084.00000
7.64517	2106.00000
7.66188	2062.00000
7.67859	2001.00000
7.69530	2184.00000
7.71201	2311.00000
7.72872	2365.00000
7.74543	2411.00000
7.76214	2558.00000
7.77885	2646.00000
7.79557	2797.00000
7.81228	3097.00000
7.82899	3292.00000
7.84570	3691.00000
7.86241	4177.00000
7.87912	5017.00000
7.89583	5785.00000
7.91254	7554.00000
7.92925	9498.00000
7.94596	10426.00000
7.96268	9351.00000
7.97939	7335.00000
7.99610	6321.00000
8.01281	5326.00000
8.02952	3876.00000
8.04623	2849.00000
8.06294	2500.00000
8.07965	2430.00000
8.09636	2560.00000
8.11307	2350.00000
8.12979	2363.00000
8.14650	2277.00000
8.16321	2443.00000
8.17992	2445.00000
8.19663	2403.00000
8.21334	2407.00000
8.23005	2545.00000
8.24676	2639.00000
8.26347	2691.00000
8.28018	2715.00000
8.29690	2925.00000
8.31361	3055.00000
8.33032	3284.00000
8.34703	3677.00000
8.36374	4056.00000
8.38045	4473.00000
8.39716	5341.00000
8.41387	6563.00000
8.43058	8368.00000
8.44729	10326.00000
8.46401	10443.00000
8.48072	8774.00000
8.49743	7584.00000
8.51414	7235.00000
8.53085	6555.00000
8.54756	5510.00000
8.56427	4702.00000
8.58098	4111.00000
8.59769	3726.00000
8.61440	3356.00000
8.63112	3148.00000
8.64783	2783.00000
8.66454	2611.00000
8.68125	2483.00000
8.69796	2406.00000
8.71467	2452.00000
8.73138	2424.00000
8.74809	2420.00000
8.76480	2470.00000
8.78151	2370.00000
8.79823	2390.00000
8.81494	2357.00000
8.83165	2319.00000
8.84836	2407.00000
8.86507	2440.00000
8.88178	2447.00000
8.89849	2405.00000
8.91520	2485.00000
8.93191	2438.00000
8.94862	2441.00000
8.96534	2351.00000
8.98205	2354.00000
8.99876	2373.00000
9.01547	2478.00000
9.03218	2396.00000
9.04889	2380.00000
9.06560	2455.00000
9.08231	2538.00000
9.09902	2419.00000
9.11573	2476.00000
9.13245	2580.00000
9.14916	2575.00000
9.16587	2625.00000
9.18258	2848.00000
9.19929	2957.00000
9.21600	3125.00000
9.23271	3210.00000
9.24942	3074.00000
9.26613	3002.00000
9.28284	2815.00000
9.29956	2677.00000
9.31627	2599.00000
9.33298	2560.00000
9.34969	2487.00000
9.36640	2509.00000
9.38311	2379.00000
9.39982	2443.00000
9.41653	2421.00000
9.43324	2376.00000
9.44995	2318.00000
9.46667	2457.00000
9.48338	2376.00000
9.50009	2538.00000
9.51680	2491.00000
9.53351	2462.00000
9.55022	2563.00000
9.56693	2549.00000
9.58364	2645.00000
9.60035	2663.00000
9.61706	2692.00000
9.63378	2901.00000
9.65049	3048.00000
9.66720	3314.00000
9.68391	3644.00000
9.70062	4280.00000
9.71733	5000.00000
9.73404	5419.00000
9.75075	5767.00000
9.76746	5323.00000
9.78417	4555.00000
9.80089	4281.00000
9.81760	3972.00000
9.83431	3454.00000
9.85102	3113.00000
9.86773	2659.00000
9.88444	2520.00000
9.90115	2605.00000
9.91786	2659.00000
9.93457	2580.00000
9.95128	2688.00000
9.96800	2819.00000
9.98471	2724.00000
10.00142	2647.00000
10.01813	2709.00000
10.03484	2575.00000
10.05155	2632.00000
10.06826	2503.00000
10.08497	2450.00000
10.10168	2316.00000
10.11839	2315.00000
10.13511	2336.00000
10.15182	2395.00000
10.16853	2419.00000
10.18524	2286.00000
10.20195	2322.00000
10.21866	2367.00000
10.23537	2365.00000
10.25208	2445.00000
10.26879	2441.00000
10.28550	2437.00000
10.30222	2391.00000
10.31893	2358.00000
10.33564	2382.00000
10.35235	2475.00000
10.36906	2323.00000
10.38577	2447.00000
10.40248	2335.00000
10.41919	2363.00000
10.43590	2353.00000
10.45261	2440.00000
10.46933	2390.00000
10.48604	2472.00000
10.50275	2372.00000
10.51946	2409.00000
10.53617	2435.00000
10.55288	2378.00000
10.56959	2438.00000
10.58630	2344.00000
10.60301	2405.00000
10.61972	2295.00000
10.63644	2417.00000
10.65315	2380.00000
10.66986	2344.00000
10.68657	2477.00000
10.70328	2434.00000
10.71999	2453.00000
10.73670	2466.00000
10.75341	2461.00000
10.77012	2408.00000
10.78683	2384.00000
10.80355	2394.00000
10.82026	2452.00000
10.83697	2431.00000
10.85368	2554.00000
10.87039	2537.00000
10.88710	2586.00000
10.90381	2774.00000
10.92052	2900.00000
10.93723	2947.00000
10.95394	3145.00000
10.97066	3548.00000
10.98737	3540.00000
11.00408	3225.00000
11.02079	3151.00000
11.03750	3203.00000
11.05421	3050.00000
11.07092	3043.00000
11.08763	2709.00000
11.10434	2671.00000
11.12105	2666.00000
11.13777	2651.00000
11.15448	2642.00000
11.17119	2590.00000
11.18790	2659.00000
11.20461	2694.00000
11.22132	2817.00000
11.23803	2851.00000
11.25474	2891.00000
11.27145	2869.00000
11.28816	3035.00000
11.30488	3287.00000
11.32159	3318.00000
11.33830	3705.00000
11.35501	4083.00000
11.37172	4716.00000
11.38843	5943.00000
11.40514	7281.00000
11.42185	9288.00000
11.43856	12269.00000
11.45527	15356.00000
11.47199	17874.00000
11.48870	17081.00000
11.50541	15034.00000
11.52212	12789.00000
11.53883	11140.00000
11.55554	9939.00000
11.57225	8350.00000
11.58896	6500.00000
11.60567	4724.00000
11.62238	3699.00000
11.63910	3129.00000
11.65581	3012.00000
11.67252	2768.00000
11.68923	2713.00000
11.70594	2815.00000
11.72265	2683.00000
11.73936	2742.00000
11.75607	2792.00000
11.77278	2886.00000
11.78949	2931.00000
11.80621	3177.00000
11.82292	3468.00000
11.83963	3881.00000
11.85634	4308.00000
11.87305	4632.00000
11.88976	4271.00000
11.90647	4191.00000
11.92318	3694.00000
11.93989	3491.00000
11.95660	3385.00000
11.97332	3216.00000
11.99003	2909.00000
12.00674	2663.00000
12.02345	2483.00000
12.04016	2437.00000
12.05687	2346.00000
12.07358	2439.00000
12.09029	2460.00000
12.10700	2335.00000
12.12371	2392.00000
12.14043	2344.00000
12.15714	2332.00000
12.17385	2348.00000
12.19056	2413.00000
12.20727	2340.00000
12.22398	2390.00000
12.24069	2337.00000
12.25740	2463.00000
12.27411	2333.00000
12.29082	2412.00000
12.30754	2400.00000
12.32425	2384.00000
12.34096	2414.00000
12.35767	2401.00000
12.37438	2367.00000
12.39109	2522.00000
12.40780	2546.00000
12.42451	2559.00000
12.44122	2820.00000
12.45793	2877.00000
12.47465	3270.00000
12.49136	3437.00000
12.50807	3551.00000
12.52478	3536.00000
12.54149	3131.00000
12.55820	3123.00000
12.57491	3181.00000
12.59162	3118.00000
12.60833	2929.00000
12.62504	3006.00000
12.64176	2873.00000
12.65847	3064.00000
12.67518	3291.00000
12.69189	3395.00000
12.70860	3446.00000
12.72531	3311.00000
12.74202	3187.00000
12.75873	3174.00000
12.77544	3163.00000
12.79215	3360.00000
12.80887	3346.00000
12.82558	3257.00000
12.84229	3142.00000
12.85900	3321.00000
12.87571	3510.00000
12.89242	3571.00000
12.90913	3662.00000
12.92584	3435.00000
12.94255	3363.00000
12.95926	3210.00000
12.97598	3094.00000
12.99269	2914.00000
13.00940	2804.00000
13.02611	2847.00000
13.04282	2610.00000
13.05953	2611.00000
13.07624	2439.00000
13.09295	2423.00000
13.10966	2351.00000
13.12637	2464.00000
13.14309	2477.00000
13.15980	2496.00000
13.17651	2509.00000
13.19322	2520.00000
13.20993	2629.00000
13.22664	2714.00000
13.24335	2741.00000
13.26006	2905.00000
13.27677	3365.00000
13.29348	3664.00000
13.31020	4167.00000
13.32691	4950.00000
13.34362	5414.00000
13.36033	5439.00000
13.37704	4938.00000
13.39375	4619.00000
13.41046	4594.00000
13.42717	4691.00000
13.44388	5151.00000
13.46059	5623.00000
13.47731	6027.00000
13.49402	6797.00000
13.51073	7154.00000
13.52744	6803.00000
13.54415	6495.00000
13.56086	6300.00000
13.57757	6320.00000
13.59428	6319.00000
13.61099	5881.00000
13.62770	5020.00000
13.64442	4337.00000
13.66113	3851.00000
13.67784	3546.00000
13.69455	3150.00000
13.71126	3023.00000
13.72797	2646.00000
13.74468	2598.00000
13.76139	2476.00000
13.77810	2466.00000
13.79481	2534.00000
13.81153	2525.00000
13.82824	2747.00000
13.84495	2723.00000
13.86166	3006.00000
13.87837	3022.00000
13.89508	3009.00000
13.91179	2978.00000
13.92850	2897.00000
13.94521	2738.00000
13.96192	2819.00000
13.97864	2937.00000
13.99535	3068.00000
14.01206	3043.00000
14.02877	3001.00000
14.04548	2988.00000
14.06219	2785.00000
14.07890	2740.00000
14.09561	2644.00000
14.11232	2728.00000
14.12903	2654.00000
14.14575	2645.00000
14.16246	2721.00000
14.17917	2676.00000
14.19588	3100.00000
14.21259	3323.00000
14.22930	3528.00000
14.24601	3858.00000
14.26272	4394.00000
14.27943	4569.00000
14.29614	4639.00000
14.31286	4477.00000
14.32957	4248.00000
14.34628	3858.00000
14.36299	3663.00000
14.37970	3773.00000
14.39641	3511.00000
14.41312	3211.00000
14.42983	3116.00000
14.44654	2855.00000
14.46325	2725.00000
14.47997	2628.00000
14.49668	2516.00000
14.51339	2649.00000
14.53010	2800.00000
14.54681	2700.00000
14.56352	2752.00000
14.58023	2771.00000
14.59694	2875.00000
14.61365	2849.00000
14.63036	2870.00000
14.64708	2825.00000
14.66379	2833.00000
14.68050	2902.00000
14.69721	2929.00000
14.71392	3075.00000
14.73063	3359.00000
14.74734	3500.00000
14.76405	3863.00000
14.78076	4178.00000
14.79747	4050.00000
14.81419	3731.00000
14.83090	3641.00000
14.84761	3510.00000
14.86432	3546.00000
14.88103	3632.00000
14.89774	3676.00000
14.91445	3770.00000
14.93116	4244.00000
14.94787	4719.00000
14.96458	5445.00000
14.98130	6244.00000
14.99801	6928.00000
15.01472	7720.00000
15.03143	8422.00000
15.04814	9293.00000
15.06485	9827.00000
15.08156	9500.00000
15.09827	8486.00000
15.11498	7447.00000
15.13169	6805.00000
15.14841	6537.00000
15.16512	6207.00000
15.18183	5609.00000
15.19854	4830.00000
15.21525	4207.00000
15.23196	3767.00000
15.24867	3585.00000
15.26538	3334.00000
15.28209	3124.00000
15.29880	2934.00000
15.31552	2857.00000
15.33223	2656.00000
15.34894	2650.00000
15.36565	2570.00000
15.38236	2501.00000
15.39907	2557.00000
15.41578	2397.00000
15.43249	2337.00000
15.44920	2311.00000
15.46591	2529.00000
15.48263	2545.00000
15.49934	2697.00000
15.51605	2834.00000
15.53276	2872.00000
15.54947	2918.00000
15.56618	2996.00000
15.58289	2984.00000
15.59960	3282.00000
15.61631	3595.00000
15.63302	3862.00000
15.64974	4008.00000
15.66645	3715.00000
15.68316	3271.00000
15.69987	3079.00000
15.71658	2979.00000
15.73329	2979.00000
15.75000	2878.00000
15.76671	2813.00000
15.78342	2740.00000
15.80013	2473.00000
15.81685	2383.00000
15.83356	2320.00000
15.85027	2260.00000
15.86698	2218.00000
15.88369	2220.00000
15.90040	2195.00000
15.91711	2196.00000
15.93382	2178.00000
15.95053	2198.00000
15.96724	2095.00000
15.98396	2186.00000
16.00067	2116.00000
16.01738	2288.00000
16.03409	2214.00000
16.05080	2105.00000
16.06751	2195.00000
16.08422	2237.00000
16.10093	2185.00000
16.11764	2163.00000
16.13435	2116.00000
16.15107	2165.00000
16.16778	2258.00000
16.18449	2290.00000
16.20120	2286.00000
16.21791	2221.00000
16.23462	2302.00000
16.25133	2357.00000
16.26804	2346.00000
16.28475	2372.00000
16.30146	2282.00000
16.31818	2231.00000
16.33489	2294.00000
16.35160	2323.00000
16.36831	2301.00000
16.38502	2372.00000
16.40173	2514.00000
16.41844	2577.00000
16.43515	2773.00000
16.45186	2997.00000
16.46857	3313.00000
16.48529	3754.00000
16.50200	4375.00000
16.51871	4840.00000
16.53542	5241.00000
16.55213	5215.00000
16.56884	4847.00000
16.58555	4508.00000
16.60226	4002.00000
16.61897	3706.00000
16.63568	3739.00000
16.65240	3711.00000
16.66911	3741.00000
16.68582	3261.00000
16.70253	2869.00000
16.71924	2813.00000
16.73595	2732.00000
16.75266	2792.00000
16.76937	2933.00000
16.78608	3236.00000
16.80279	3627.00000
16.81951	4070.00000
16.83622	5069.00000
16.85293	5888.00000
16.86964	6528.00000
16.88635	6006.00000
16.90306	5514.00000
16.91977	4625.00000
16.93648	4174.00000
16.95319	4174.00000
16.96990	4319.00000
16.98662	4214.00000
17.00333	3838.00000
17.02004	3312.00000
17.03675	2796.00000
17.05346	2547.00000
17.07017	2473.00000
17.08688	2351.00000
17.10359	2254.00000
17.12030	2314.00000
17.13701	2319.00000
17.15373	2307.00000
17.17044	2207.00000
17.18715	2307.00000
17.20386	2463.00000
17.22057	2356.00000
17.23728	2500.00000
17.25399	2424.00000
17.27070	2626.00000
17.28741	2892.00000
17.30412	2978.00000
17.32084	3001.00000
17.33755	3027.00000
17.35426	2840.00000
17.37097	2642.00000
17.38768	2587.00000
17.40439	2561.00000
17.42110	2610.00000
17.43781	2752.00000
17.45452	2707.00000
17.47123	2667.00000
17.48795	2612.00000
17.50466	2657.00000
17.52137	2804.00000
17.53808	2659.00000
17.55479	2788.00000
17.57150	2616.00000
17.58821	2743.00000
17.60492	2777.00000
17.62163	2735.00000
17.63834	2881.00000
17.65506	3029.00000
17.67177	2978.00000
17.68848	3144.00000
17.70519	3140.00000
17.72190	3097.00000
17.73861	3080.00000
17.75532	2982.00000
17.77203	2878.00000
17.78874	2886.00000
17.80545	2913.00000
17.82217	2953.00000
17.83888	2962.00000
17.85559	2784.00000
17.87230	2865.00000
17.88901	2632.00000
17.90572	2430.00000
17.92243	2428.00000
17.93914	2379.00000
17.95585	2311.00000
17.97256	2374.00000
17.98928	2439.00000
18.00599	2440.00000
18.02270	2554.00000
18.03941	2781.00000
18.05612	2859.00000
18.07283	2957.00000
18.08954	2671.00000
18.10625	2483.00000
18.12296	2325.00000
18.13967	2383.00000
18.15639	2420.00000
18.17310	2486.00000
18.18981	2449.00000
18.20652	2363.00000
18.22323	2227.00000
18.23994	2039.00000
18.25665	2166.00000
18.27336	2039.00000
18.29007	2014.00000
18.30678	1999.00000
18.32350	1988.00000
18.34021	1966.00000
18.35692	1932.00000
18.37363	1994.00000
18.39034	1875.00000
18.40705	1964.00000
18.42376	1927.00000
18.44047	2092.00000
18.45718	1963.00000
18.47389	2040.00000
18.49061	2075.00000
18.50732	2223.00000
18.52403	2439.00000
18.54074	2404.00000
18.55745	2564.00000
18.57416	2578.00000
18.59087	2558.00000
18.60758	2314.00000
18.62429	2419.00000
18.64100	2332.00000
18.65772	2236.00000
18.67443	2274.00000
18.69114	2315.00000
18.70785	2358.00000
18.72456	2234.00000
18.74127	2307.00000
18.75798	2269.00000
18.77469	2267.00000
18.79140	2228.00000
18.80811	2273.00000
18.82483	2075.00000
18.84154	2128.00000
18.85825	2106.00000
18.87496	2001.00000
18.89167	2036.00000
18.90838	2077.00000
18.92509	2003.00000
18.94180	2052.00000
18.95851	1994.00000
18.97522	1928.00000
18.99194	2028.00000
19.00865	2076.00000
19.02536	2045.00000
19.04207	2146.00000
19.05878	2256.00000
19.07549	2425.00000
19.09220	2641.00000
19.10891	2707.00000
19.12562	2829.00000
19.14233	2822.00000
19.15905	2842.00000
19.17576	2832.00000
19.19247	2627.00000
19.20918	2718.00000
19.22589	2595.00000
19.24260	2651.00000
19.25931	2615.00000
19.27602	2534.00000
19.29273	2288.00000
19.30944	2292.00000
19.32616	2150.00000
19.34287	2188.00000
19.35958	2172.00000
19.37629	2192.00000
19.39300	2134.00000
19.40971	2326.00000
19.42642	2440.00000
19.44313	2381.00000
19.45984	2514.00000
19.47655	2456.00000
19.49327	2406.00000
19.50998	2494.00000
19.52669	2535.00000
19.54340	2562.00000
19.56011	2868.00000
19.57682	3007.00000
19.59353	3079.00000
19.61024	3127.00000
19.62695	3246.00000
19.64366	3376.00000
19.66038	3602.00000
19.67709	3890.00000
19.69380	4062.00000
19.71051	3972.00000
19.72722	3879.00000
19.74393	3541.00000
19.76064	3166.00000
19.77735	2924.00000
19.79406	2793.00000
19.81077	2834.00000
19.82749	2766.00000
19.84420	2754.00000
19.86091	2592.00000
19.87762	2422.00000
19.89433	2205.00000
19.91104	2133.00000
19.92775	2216.00000
19.94446	2301.00000
19.96117	2271.00000
19.97788	2468.00000
19.99460	2536.00000
20.01131	2530.00000
20.02802	2644.00000
20.04473	2687.00000
20.06144	2479.00000
20.07815	2510.00000
20.09486	2541.00000
20.11157	2585.00000
20.12828	2691.00000
20.14499	2732.00000
20.16171	2719.00000
20.17842	2637.00000
20.19513	2574.00000
20.21184	2338.00000
20.22855	2190.00000
20.24526	2204.00000
20.26197	2203.00000
20.27868	2282.00000
20.29539	2079.00000
20.31210	2066.00000
20.32882	2048.00000
20.34553	2044.00000
20.36224	2036.00000
20.37895	1899.00000
20.39566	1916.00000
20.41237	1968.00000
20.42908	1942.00000
20.44579	2075.00000
20.46250	2210.00000
20.47921	2376.00000
20.49593	2660.00000
20.51264	2871.00000
20.52935	3048.00000
20.54606	2959.00000
20.56277	2885.00000
20.57948	2713.00000
20.59619	2529.00000
20.61290	2587.00000
20.62961	2528.00000
20.64632	2562.00000
20.66304	2725.00000
20.67975	2664.00000
20.69646	2857.00000
20.71317	2671.00000
20.72988	2673.00000
20.74659	2542.00000
20.76330	2455.00000
20.78001	2350.00000
20.79672	2405.00000
20.81343	2371.00000
20.83015	2462.00000
20.84686	2376.00000
20.86357	2660.00000
20.88028	2557.00000
20.89699	2631.00000
20.91370	2551.00000
20.93041	2510.00000
20.94712	2478.00000
20.96383	2384.00000
20.98054	2187.00000
20.99726	2234.00000
21.01397	2131.00000
21.03068	2149.00000
21.04739	2055.00000
21.06410	2057.00000
21.08081	2064.00000
21.09752	1978.00000
21.11423	1931.00000
21.13094	1923.00000
21.14765	1891.00000
21.16437	1974.00000
21.18108	1974.00000
21.19779	1955.00000
21.21450	2037.00000
21.23121	2126.00000
21.24792	2127.00000
21.26463	2175.00000
21.28134	2211.00000
21.29805	2217.00000
21.31476	2192.00000
21.33148	2412.00000
21.34819	2478.00000
21.36490	2634.00000
21.38161	2802.00000
21.39832	2969.00000
21.41503	3025.00000
21.43174	3004.00000
21.44845	3122.00000
21.46516	3091.00000
21.48187	3065.00000
21.49859	2932.00000
21.51530	2711.00000
21.53201	2778.00000
21.54872	2572.00000
21.56543	2478.00000
21.58214	2344.00000
21.59885	2188.00000
21.61556	2206.00000
21.63227	2163.00000
21.64898	2018.00000
21.66570	2103.00000
21.68241	1980.00000
21.69912	2037.00000
21.71583	2074.00000
21.73254	2048.00000
21.74925	2230.00000
21.76596	2387.00000
21.78267	2388.00000
21.79938	2449.00000
21.81609	2587.00000
21.83281	2617.00000
21.84952	2590.00000
21.86623	2563.00000
21.88294	2416.00000
21.89965	2158.00000
21.91636	2192.00000
21.93307	2186.00000
21.94978	2173.00000
21.96649	2092.00000
21.98320	2025.00000
21.99992	2012.00000
22.01663	1959.00000
22.03334	1822.00000
22.05005	1801.00000
22.06676	1651.00000
22.08347	1717.00000
22.10018	1755.00000
22.11689	1655.00000
22.13360	1704.00000
22.15031	1783.00000
22.16703	1752.00000
22.18374	1823.00000
22.20045	1783.00000
22.21716	1865.00000
22.23387	1862.00000
22.25058	1773.00000
22.26729	1725.00000
22.28400	1800.00000
22.30071	1848.00000
22.31742	1821.00000
22.33414	1857.00000
22.35085	1880.00000
22.36756	1950.00000
22.38427	1963.00000
22.40098	1942.00000
22.41769	2000.00000
22.43440	2016.00000
22.45111	2020.00000
22.46782	2061.00000
22.48453	1930.00000
22.50125	1836.00000
22.51796	1946.00000
22.53467	1884.00000
22.55138	1917.00000
22.56809	2009.00000
22.58480	2196.00000
22.60151	2281.00000
22.61822	2381.00000
22.63493	2515.00000
22.65164	2395.00000
22.66836	2451.00000
22.68507	2367.00000
22.70178	2201.00000
22.71849	2052.00000
22.73520	2034.00000
22.75191	1918.00000
22.76862	1947.00000
22.78533	2091.00000
22.80204	2157.00000
22.81875	1978.00000
22.83547	1820.00000
22.85218	1934.00000
22.86889	1804.00000
22.88560	1660.00000
22.90231	1596.00000
22.91902	1635.00000
22.93573	1581.00000
22.95244	1629.00000
22.96915	1611.00000
22.98586	1691.00000
23.00258	1780.00000
23.01929	1944.00000
23.03600	2046.00000
23.05271	2154.00000
23.06942	2378.00000
23.08613	2449.00000
23.10284	2368.00000
23.11955	2308.00000
23.13626	2235.00000
23.15297	2142.00000
23.16969	2214.00000
23.18640	2092.00000
23.20311	2156.00000
23.21982	2069.00000
23.23653	2097.00000
23.25324	2177.00000
23.26995	2056.00000
23.28666	2003.00000
23.30337	1966.00000
23.32008	1896.00000
23.33680	1842.00000
23.35351	1794.00000
23.37022	1797.00000
23.38693	1786.00000
23.40364	1818.00000
23.42035	1713.00000
23.43706	1749.00000
23.45377	1701.00000
23.47048	1599.00000
23.48719	1613.00000
23.50391	1602.00000
23.52062	1624.00000
23.53733	1624.00000
23.55404	1510.00000
23.57075	1570.00000
23.58746	1458.00000
23.60417	1524.00000
23.62088	1553.00000
23.63759	1580.00000
23.65430	1525.00000
23.67102	1483.00000
23.68773	1473.00000
23.70444	1547.00000
23.72115	1608.00000
23.73786	1600.00000
23.75457	1572.00000
23.77128	1657.00000
23.78799	1663.00000
23.80470	1675.00000
23.82141	1668.00000
23.83813	1584.00000
23.85484	1554.00000
23.87155	1576.00000
23.88826	1544.00000
23.90497	1647.00000
23.92168	1629.00000
23.93839	1638.00000
23.95510	1644.00000
23.97181	1644.00000
23.98852	1715.00000
24.00524	1688.00000
24.02195	1676.00000
24.03866	1732.00000
24.05537	1699.00000
24.07208	1705.00000
24.08879	1727.00000
24.10550	1624.00000
24.12221	1663.00000
24.13892	1718.00000
24.15563	1734.00000
24.17235	1747.00000
24.18906	1685.00000
24.20577	1704.00000
24.22248	1739.00000
24.23919	1694.00000
24.25590	1744.00000
24.27261	1745.00000
24.28932	1771.00000
24.30603	1688.00000
24.32274	1696.00000
24.33946	1689.00000
24.35617	1719.00000
24.37288	1642.00000
24.38959	1607.00000
24.40630	1638.00000
24.42301	1607.00000
24.43972	1618.00000
24.45643	1602.00000
24.47314	1610.00000
24.48985	1565.00000
24.50657	1625.00000
24.52328	1546.00000
24.53999	1578.00000
24.55670	1486.00000
24.57341	1479.00000
24.59012	1557.00000
24.60683	1532.00000
24.62354	1625.00000
24.64025	1521.00000
24.65696	1551.00000
24.67368	1523.00000
24.69039	1498.00000
24.70710	1513.00000
24.72381	1537.00000
24.74052	1668.00000
24.75723	1734.00000
24.77394	1801.00000
24.79065	1819.00000
24.80736	1878.00000
24.82407	1948.00000
24.84079	1906.00000
24.85750	1939.00000
24.87421	1951.00000
24.89092	1777.00000
24.90763	1927.00000
24.92434	1808.00000
24.94105	1933.00000
24.95776	1979.00000
24.97447	1917.00000
24.99118	1872.00000
25.00790	1772.00000
25.02461	1769.00000
25.04132	1804.00000
25.05803	1780.00000
25.07474	1762.00000
25.09145	1778.00000
25.10816	1874.00000
25.12487	1943.00000
25.14158	1965.00000
25.15829	1998.00000
25.17501	2059.00000
25.19172	2094.00000
25.20843	2154.00000
25.22514	2088.00000
25.24185	2010.00000
25.25856	2039.00000
25.27527	1875.00000
25.29198	1812.00000
25.30869	1823.00000
25.32540	1805.00000
25.34212	1845.00000
25.35883	1859.00000
25.37554	1946.00000
25.39225	1980.00000
25.40896	1868.00000
25.42567	1867.00000
25.44238	1828.00000
25.45909	1847.00000
25.47580	1801.00000
25.49251	1866.00000
25.50923	1943.00000
25.52594	1906.00000
25.54265	1954.00000
25.55936	1840.00000
25.57607	1946.00000
25.59278	2015.00000
25.60949	1928.00000
25.62620	1923.00000
25.64291	1787.00000
25.65962	1806.00000
25.67634	1764.00000
25.69305	1769.00000
25.70976	1807.00000
25.72647	1733.00000
25.74318	1812.00000
25.75989	1877.00000
25.77660	1870.00000
25.79331	1834.00000
25.81002	1867.00000
25.82673	1865.00000
25.84345	1824.00000
25.86016	1768.00000
25.87687	1793.00000
25.89358	1921.00000
25.91029	1946.00000
25.92700	1988.00000
25.94371	2104.00000
25.96042	2094.00000
25.97713	2204.00000
25.99384	2178.00000
26.01056	2222.00000
26.02727	2085.00000
26.04398	2096.00000
26.06069	1977.00000
26.07740	1959.00000
26.09411	1990.00000
26.11082	1854.00000
26.12753	1796.00000
26.14424	1820.00000
26.16095	1830.00000
26.17767	1760.00000
26.19438	1783.00000
26.21109	1670.00000
26.22780	1716.00000
26.24451	1699.00000
26.26122	1766.00000
26.27793	1702.00000
26.29464	1615.00000
26.31135	1706.00000
26.32806	1620.00000
26.34478	1700.00000
26.36149	1725.00000
26.37820	1691.00000
26.39491	1716.00000
26.41162	1648.00000
26.42833	1699.00000
26.44504	1674.00000
26.46175	1786.00000
26.47846	1729.00000
26.49517	1674.00000
26.51189	1602.00000
26.52860	1561.00000
26.54531	1615.00000
26.56202	1590.00000
26.57873	1519.00000
26.59544	1549.00000
26.61215	1527.00000
26.62886	1507.00000
26.64557	1528.00000
26.66228	1438.00000
26.67900	1458.00000
26.69571	1443.00000
26.71242	1503.00000
26.72913	1467.00000
26.74584	1385.00000
26.76255	1482.00000
26.77926	1458.00000
26.79597	1477.00000
26.81268	1474.00000
26.82939	1472.00000
26.84611	1457.00000
26.86282	1518.00000
26.87953	1553.00000
26.89624	1443.00000
26.91295	1426.00000
26.92966	1518.00000
26.94637	1486.00000
26.96308	1437.00000
26.97979	1476.00000
26.99650	1400.00000
27.01322	1511.00000
27.02993	1411.00000
27.04664	1375.00000
27.06335	1396.00000
27.08006	1404.00000
27.09677	1345.00000
27.11348	1419.00000
27.13019	1369.00000
27.14690	1344.00000
27.16361	1316.00000
27.18033	1337.00000
27.19704	1309.00000
27.21375	1339.00000
27.23046	1379.00000
27.24717	1388.00000
27.26388	1461.00000
27.28059	1420.00000
27.29730	1539.00000
27.31401	1571.00000
27.33072	1678.00000
27.34744	1756.00000
27.36415	1716.00000
27.38086	1738.00000
27.39757	1744.00000
27.41428	1706.00000
27.43099	1755.00000
27.44770	1662.00000
27.46441	1702.00000
27.48112	1808.00000
27.49783	1661.00000
27.51455	1751.00000
27.53126	1662.00000
27.54797	1709.00000
27.56468	1727.00000
27.58139	1710.00000
27.59810	1636.00000
27.61481	1563.00000
27.63152	1561.00000
27.64823	1637.00000
27.66494	1508.00000
27.68166	1517.00000
27.69837	1528.00000
27.71508	1531.00000
27.73179	1410.00000
27.74850	1396.00000
27.76521	1398.00000
27.78192	1437.00000
27.79863	1446.00000
27.81534	1381.00000
27.83205	1412.00000
27.84877	1382.00000
27.86548	1373.00000
27.88219	1351.00000
27.89890	1459.00000
27.91561	1489.00000
27.93232	1551.00000
27.94903	1569.00000
27.96574	1558.00000
27.98245	1651.00000
27.99916	1508.00000
28.01588	1590.00000
28.03259	1572.00000
28.04930	1499.00000
28.06601	1473.00000
28.08272	1395.00000
28.09943	1411.00000
28.11614	1433.00000
28.13285	1361.00000
28.14956	1433.00000
28.16627	1381.00000
28.18299	1395.00000
28.19970	1460.00000
28.21641	1433.00000
28.23312	1413.00000
28.24983	1341.00000
28.26654	1314.00000
28.28325	1440.00000
28.29996	1372.00000
28.31667	1305.00000
28.33338	1317.00000
28.35010	1301.00000
28.36681	1296.00000
28.38352	1260.00000
28.40023	1305.00000
28.41694	1302.00000
28.43365	1290.00000
28.45036	1287.00000
28.46707	1298.00000
28.48378	1312.00000
28.50049	1404.00000
28.51721	1319.00000
28.53392	1330.00000
28.55063	1413.00000
28.56734	1394.00000
28.58405	1372.00000
28.60076	1397.00000
28.61747	1495.00000
28.63418	1462.00000
28.65089	1417.00000
28.66760	1440.00000
28.68432	1437.00000
28.70103	1367.00000
28.71774	1387.00000
28.73445	1328.00000
28.75116	1350.00000
28.76787	1402.00000
28.78458	1431.00000
28.80129	1435.00000
28.81800	1371.00000
28.83471	1505.00000
28.85143	1432.00000
28.86814	1427.00000
28.88485	1427.00000
28.90156	1363.00000
28.91827	1404.00000
28.93498	1517.00000
28.95169	1489.00000
28.96840	1448.00000
28.98511	1529.00000
29.00182	1565.00000
29.01854	1557.00000
29.03525	1500.00000
29.05196	1437.00000
29.06867	1534.00000
29.08538	1546.00000
29.10209	1460.00000
29.11880	1385.00000
29.13551	1477.00000
29.15222	1497.00000
29.16893	1492.00000
29.18565	1476.00000
29.20236	1483.00000
29.21907	1509.00000
29.23578	1443.00000
29.25249	1363.00000
29.26920	1373.00000
29.28591	1414.00000
29.30262	1422.00000
29.31933	1377.00000
29.33604	1457.00000
29.35276	1376.00000
29.36947	1385.00000
29.38618	1392.00000
29.40289	1383.00000
29.41960	1379.00000
29.43631	1446.00000
29.45302	1400.00000
29.46973	1330.00000
29.48644	1354.00000
29.50315	1267.00000
29.51987	1325.00000
29.53658	1356.00000
29.55329	1378.00000
29.57000	1343.00000
29.58671	1319.00000
29.60342	1290.00000
29.62013	1207.00000
29.63684	1312.00000
29.65355	1293.00000
29.67026	1316.00000
29.68698	1285.00000
29.70369	1208.00000
29.72040	1324.00000
29.73711	1329.00000
29.75382	1280.00000
29.77053	1376.00000
29.78724	1338.00000
29.80395	1319.00000
29.82066	1303.00000
29.83737	1335.00000
29.85409	1401.00000
29.87080	1323.00000
29.88751	1337.00000
29.90422	1384.00000
29.92093	1397.00000
29.93764	1322.00000
29.95435	1385.00000
29.97106	1395.00000
29.98777	1346.00000
30.00448	1380.00000
30.02120	1248.00000
30.03791	1309.00000
30.05462	1340.00000
30.07133	1390.00000
30.08804	1367.00000
30.10475	1322.00000
30.12146	1344.00000
30.13817	1320.00000
30.15488	1346.00000
30.17159	1460.00000
30.18831	1478.00000
30.20502	1427.00000
30.22173	1463.00000
30.23844	1485.00000
30.25515	1521.00000
30.27186	1612.00000
30.28857	1573.00000
30.30528	1576.00000
30.32199	1569.00000
30.33870	1467.00000
30.35542	1464.00000
30.37213	1420.00000
30.38884	1369.00000
30.40555	1435.00000
30.42226	1347.00000
30.43897	1334.00000
30.45568	1400.00000
30.47239	1295.00000
30.48910	1334.00000
30.50581	1352.00000
30.52253	1305.00000
30.53924	1269.00000
30.55595	1346.00000
30.57266	1230.00000
30.58937	1223.00000
30.60608	1269.00000
30.62279	1191.00000
30.63950	1207.00000
30.65621	1187.00000
30.67292	1252.00000
30.68964	1234.00000
30.70635	1234.00000
30.72306	1195.00000
30.73977	1296.00000
30.75648	1214.00000
30.77319	1188.00000
30.78990	1249.00000
30.80661	1214.00000
30.82332	1158.00000
30.84003	1193.00000
30.85675	1240.00000
30.87346	1231.00000
30.89017	1254.00000
30.90688	1280.00000
30.92359	1355.00000
30.94030	1293.00000
30.95701	1270.00000
30.97372	1300.00000
30.99043	1338.00000
31.00714	1356.00000
31.02386	1287.00000
31.04057	1339.00000
31.05728	1327.00000
31.07399	1415.00000
31.09070	1393.00000
31.10741	1474.00000
31.12412	1377.00000
31.14083	1345.00000
31.15754	1433.00000
31.17425	1349.00000
31.19097	1361.00000
31.20768	1396.00000
31.22439	1410.00000
31.24110	1368.00000
31.25781	1380.00000
31.27452	1332.00000
31.29123	1355.00000
31.30794	1364.00000
31.32465	1373.00000
31.34136	1394.00000
31.35808	1396.00000
31.37479	1417.00000
31.39150	1284.00000
31.40821	1308.00000
31.42492	1373.00000
31.44163	1304.00000
31.45834	1246.00000
31.47505	1239.00000
31.49176	1262.00000
31.50847	1325.00000
31.52519	1268.00000
31.54190	1305.00000
31.55861	1382.00000
31.57532	1483.00000
31.59203	1363.00000
31.60874	1369.00000
31.62545	1386.00000
31.64216	1349.00000
31.65887	1347.00000
31.67558	1327.00000
31.69230	1360.00000
31.70901	1289.00000
31.72572	1290.00000
31.74243	1272.00000
31.75914	1285.00000
31.77585	1350.00000
31.79256	1344.00000
31.80927	1369.00000
31.82598	1312.00000
31.84269	1422.00000
31.85941	1353.00000
31.87612	1349.00000
31.89283	1309.00000
31.90954	1311.00000
31.92625	1259.00000
31.94296	1246.00000
31.95967	1232.00000
31.97638	1251.00000
31.99309	1278.00000
32.00980	1258.00000
32.02652	1304.00000
32.04323	1308.00000
32.05994	1231.00000
32.07665	1271.00000
32.09336	1269.00000
32.11007	1330.00000
32.12678	1212.00000
32.14349	1300.00000
32.16020	1306.00000
32.17691	1257.00000
32.19363	1192.00000
32.21034	1272.00000
32.22705	1176.00000
32.24376	1257.00000
32.26047	1256.00000
32.27718	1248.00000
32.29389	1284.00000
32.31060	1288.00000
32.32731	1304.00000
32.34402	1306.00000
32.36074	1201.00000
32.37745	1258.00000
32.39416	1265.00000
32.41087	1302.00000
32.42758	1249.00000
32.44429	1312.00000
32.46100	1247.00000
32.47771	1296.00000
32.49442	1305.00000
32.51113	1304.00000
32.52785	1236.00000
32.54456	1312.00000
32.56127	1375.00000
32.57798	1345.00000
32.59469	1350.00000
32.61140	1381.00000
32.62811	1337.00000
32.64482	1363.00000
32.66153	1319.00000
32.67824	1339.00000
32.69496	1286.00000
32.71167	1364.00000
32.72838	1315.00000
32.74509	1302.00000
32.76180	1344.00000
32.77851	1396.00000
32.79522	1250.00000
32.81193	1254.00000
32.82864	1301.00000
32.84535	1298.00000
32.86207	1299.00000
32.87878	1225.00000
32.89549	1278.00000
32.91220	1259.00000
32.92891	1258.00000
32.94562	1273.00000
32.96233	1268.00000
32.97904	1309.00000
32.99575	1228.00000
33.01246	1214.00000
33.02918	1215.00000
33.04589	1153.00000
33.06260	1151.00000
33.07931	1206.00000
33.09602	1157.00000
33.11273	1190.00000
33.12944	1215.00000
33.14615	1147.00000
33.16286	1129.00000
33.17957	1258.00000
33.19629	1147.00000
33.21300	1225.00000
33.22971	1097.00000
33.24642	1204.00000
33.26313	1201.00000
33.27984	1228.00000
33.29655	1183.00000
33.31326	1262.00000
33.32997	1269.00000
33.34668	1267.00000
33.36340	1220.00000
33.38011	1231.00000
33.39682	1244.00000
33.41353	1280.00000
33.43024	1257.00000
33.44695	1260.00000
33.46366	1258.00000
33.48037	1248.00000
33.49708	1278.00000
33.51379	1280.00000
33.53051	1214.00000
33.54722	1228.00000
33.56393	1246.00000
33.58064	1249.00000
33.59735	1318.00000
33.61406	1269.00000
33.63077	1276.00000
33.64748	1289.00000
33.66419	1251.00000
33.68090	1314.00000
33.69762	1363.00000
33.71433	1340.00000
33.73104	1369.00000
33.74775	1302.00000
33.76446	1284.00000
33.78117	1278.00000
33.79788	1200.00000
33.81459	1246.00000
33.83130	1176.00000
33.84801	1224.00000
33.86473	1138.00000
33.88144	1222.00000
33.89815	1301.00000
33.91486	1236.00000
33.93157	1216.00000
33.94828	1227.00000
33.96499	1243.00000
33.98170	1171.00000
33.99841	1173.00000
34.01512	1215.00000
34.03184	1163.00000
34.04855	1222.00000
34.06526	1159.00000
34.08197	1156.00000
34.09868	1221.00000
34.11539	1195.00000
34.13210	1302.00000
34.14881	1226.00000
34.16552	1251.00000
34.18223	1241.00000
34.19895	1275.00000
34.21566	1251.00000
34.23237	1186.00000
34.24908	1184.00000
34.26579	1273.00000
34.28250	1202.00000
34.29921	1209.00000
34.31592	1200.00000
34.33263	1219.00000
34.34934	1202.00000
34.36606	1318.00000
34.38277	1252.00000
34.39948	1323.00000
34.41619	1327.00000
34.43290	1278.00000
34.44961	1203.00000
34.46632	1235.00000
34.48303	1194.00000
34.49974	1221.00000
34.51645	1231.00000
34.53317	1199.00000
34.54988	1175.00000
34.56659	1199.00000
34.58330	1198.00000
34.60001	1197.00000
34.61672	1233.00000
34.63343	1188.00000
34.65014	1150.00000
34.66685	1224.00000
34.68356	1256.00000
34.70028	1253.00000
34.71699	1220.00000
34.73370	1217.00000
34.75041	1214.00000
34.76712	1284.00000
34.78383	1188.00000
34.80054	1222.00000
34.81725	1253.00000
34.83396	1221.00000
34.85067	1306.00000
34.86739	1212.00000
34.88410	1266.00000
34.90081	1240.00000
34.91752	1273.00000
34.93423	1271.00000
34.95094	1250.00000
34.96765	1307.00000
34.98436	1334.00000
35.00107	1199.00000
35.01778	1320.00000
35.03450	1317.00000
35.05121	1349.00000
35.06792	1303.00000
35.08463	1403.00000
35.10134	1360.00000
35.11805	1352.00000
35.13476	1370.00000
35.15147	1344.00000
35.16818	1372.00000
35.18489	1271.00000
35.20161	1363.00000
35.21832	1270.00000
35.23503	1263.00000
35.25174	1271.00000
35.26845	1293.00000
35.28516	1187.00000
35.30187	1221.00000
35.31858	1276.00000
35.33529	1206.00000
35.35200	1252.00000
35.36872	1295.00000
35.38543	1242.00000
35.40214	1249.00000
35.41885	1231.00000
35.43556	1177.00000
35.45227	1168.00000
35.46898	1211.00000
35.48569	1215.00000
35.50240	1197.00000
35.51911	1128.00000
35.53583	1153.00000
35.55254	1145.00000
35.56925	1179.00000
35.58596	1106.00000
35.60267	1226.00000
35.61938	1147.00000
35.63609	1203.00000
35.65280	1191.00000
35.66951	1154.00000
35.68622	1181.00000
35.70294	1195.00000
35.71965	1291.00000
35.73636	1235.00000
35.75307	1228.00000
35.76978	1236.00000
35.78649	1216.00000
35.80320	1267.00000
35.81991	1234.00000
35.83662	1249.00000
35.85333	1202.00000
35.87005	1200.00000
35.88676	1249.00000
35.90347	1185.00000
35.92018	1234.00000
35.93689	1218.00000
35.95360	1174.00000
35.97031	1217.00000
35.98702	1319.00000
36.00373	1190.00000
36.02044	1289.00000
36.03716	1299.00000
36.05387	1234.00000
36.07058	1269.00000
36.08729	1259.00000
36.10400	1205.00000
36.12071	1202.00000
36.13742	1236.00000
36.15413	1152.00000
36.17084	1178.00000
36.18755	1222.00000
36.20427	1223.00000
36.22098	1203.00000
36.23769	1194.00000
36.25440	1166.00000
36.27111	1240.00000
36.28782	1152.00000
36.30453	1236.00000
36.32124	1193.00000
36.33795	1157.00000
36.35466	1144.00000
36.37138	1177.00000
36.38809	1091.00000
36.40480	1203.00000
36.42151	1139.00000
36.43822	1228.00000
36.45493	1175.00000
36.47164	1174.00000
36.48835	1157.00000
36.50506	1152.00000
36.52177	1165.00000
36.53849	1216.00000
36.55520	1188.00000
36.57191	1175.00000
36.58862	1243.00000
36.60533	1210.00000
36.62204	1225.00000
36.63875	1230.00000
36.65546	1183.00000
36.67217	1223.00000
36.68888	1217.00000
36.70560	1129.00000
36.72231	1247.00000
36.73902	1195.00000
36.75573	1156.00000
36.77244	1296.00000
36.78915	1247.00000
36.80586	1253.00000
36.82257	1255.00000
36.83928	1166.00000
36.85599	1193.00000
36.87271	1267.00000
36.88942	1183.00000
36.90613	1169.00000
36.92284	1211.00000
36.93955	1228.00000
36.95626	1193.00000
36.97297	1140.00000
36.98968	1174.00000
37.00639	1220.00000
37.02310	1200.00000
37.03982	1234.00000
37.05653	1248.00000
37.07324	1145.00000
37.08995	1182.00000
37.10666	1208.00000
37.12337	1092.00000
37.14008	1123.00000
37.15679	1173.00000
37.17350	1093.00000
37.19021	1145.00000
37.20693	1143.00000
37.22364	1140.00000
37.24035	1129.00000
37.25706	1199.00000
37.27377	1151.00000
37.29048	1214.00000
37.30719	1250.00000
37.32390	1163.00000
37.34061	1315.00000
37.35732	1209.00000
37.37404	1186.00000
37.39075	1185.00000
37.40746	1221.00000
37.42417	1151.00000
37.44088	1212.00000
37.45759	1140.00000
37.47430	1225.00000
37.49101	1208.00000
37.50772	1219.00000
37.52443	1212.00000
37.54115	1225.00000
37.55786	1197.00000
37.57457	1197.00000
37.59128	1175.00000
37.60799	1176.00000
37.62470	1255.00000
37.64141	1215.00000
37.65812	1162.00000
37.67483	1172.00000
37.69154	1214.00000
37.70826	1154.00000
37.72497	1177.00000
37.74168	1192.00000
37.75839	1199.00000
37.77510	1158.00000
37.79181	1177.00000
37.80852	1174.00000
37.82523	1171.00000
37.84194	1201.00000
37.85865	1137.00000
37.87537	1161.00000
37.89208	1167.00000
37.90879	1215.00000
37.92550	1175.00000
37.94221	1214.00000
37.95892	1129.00000
37.97563	1171.00000
37.99234	1154.00000
38.00905	1086.00000
38.02576	1176.00000
38.04248	1153.00000
38.05919	1206.00000
38.07590	1107.00000
38.09261	1138.00000
38.10932	1098.00000
38.12603	1113.00000
38.14274	1185.00000
38.15945	1172.00000
38.17616	1173.00000
38.19287	1122.00000
38.20959	1101.00000
38.22630	1117.00000
38.24301	1135.00000
38.25972	1087.00000
38.27643	1073.00000
38.29314	1135.00000
38.30985	1114.00000
38.32656	1043.00000
38.34327	1089.00000
38.35998	1097.00000
38.37670	1060.00000
38.39341	1082.00000
38.41012	1082.00000
38.42683	1091.00000
38.44354	1118.00000
38.46025	1091.00000
38.47696	1113.00000
38.49367	1157.00000
38.51038	1102.00000
38.52709	1133.00000
38.54381	1063.00000
38.56052	1082.00000
38.57723	1137.00000
38.59394	1113.00000
38.61065	1059.00000
38.62736	1119.00000
38.64407	1076.00000
38.66078	1085.00000
38.67749	1091.00000
38.69420	1055.00000
38.71092	1041.00000
38.72763	1077.00000
38.74434	1076.00000
38.76105	1085.00000
38.77776	971.00000
38.79447	1049.00000
38.81118	1068.00000
38.82789	1105.00000
38.84460	1078.00000
38.86131	1064.00000
38.87803	1023.00000
38.89474	1046.00000
38.91145	1131.00000
38.92816	1093.00000
38.94487	1043.00000
38.96158	1128.00000
38.97829	1076.00000
38.99500	1070.00000
39.01171	1153.00000
39.02842	1107.00000
39.04514	1110.00000
39.06185	1079.00000
39.07856	1133.00000
39.09527	1005.00000
39.11198	1111.00000
39.12869	1061.00000
39.14540	1053.00000
39.16211	1089.00000
39.17882	1068.00000
39.19553	1106.00000
39.21225	1050.00000
39.22896	1048.00000
39.24567	1133.00000
39.26238	1074.00000
39.27909	1103.00000
39.29580	1085.00000
39.31251	1109.00000
39.32922	1030.00000
39.34593	1161.00000
39.36264	1115.00000
39.37936	1103.00000
39.39607	1090.00000
39.41278	1129.00000
39.42949	1111.00000
39.44620	1110.00000
39.46291	1138.00000
39.47962	1147.00000
39.49633	1156.00000
39.51304	1182.00000
39.52975	1169.00000
39.54647	1143.00000
39.56318	1123.00000
39.57989	1111.00000
39.59660	1129.00000
39.61331	1128.00000
39.63002	1086.00000
39.64673	1066.00000
39.66344	1050.00000
39.68015	1069.00000
39.69686	1078.00000
39.71358	1121.00000
39.73029	1119.00000
39.74700	1137.00000
39.76371	1100.00000
39.78042	1136.00000
39.79713	1121.00000
39.81384	1159.00000
39.83055	1179.00000
39.84726	1183.00000
39.86397	1114.00000
39.88069	1144.00000
39.89740	1097.00000
39.91411	1104.00000
39.93082	1085.00000
39.94753	1113.00000
39.96424	1128.00000
39.98095	1106.00000
39.99766	1092.00000
40.01437	1093.00000
40.03108	1070.00000
40.04780	1127.00000
40.06451	1156.00000
40.08122	1161.00000
40.09793	1092.00000
40.11464	1118.00000
40.13135	1165.00000
40.14806	1097.00000
40.16477	1122.00000
40.18148	1052.00000
40.19819	1110.00000
40.21491	1133.00000
40.23162	1101.00000
40.24833	1090.00000
40.26504	995.00000
40.28175	1052.00000
40.29846	979.00000
40.31517	1060.00000
40.33188	1023.00000
40.34859	1042.00000
40.36530	1047.00000
40.38202	1011.00000
40.39873	1079.00000
40.41544	1070.00000
40.43215	1007.00000
40.44886	1006.00000
40.46557	977.00000
40.48228	1032.00000
40.49899	967.00000
40.51570	984.00000
40.53241	1045.00000
40.54913	1018.00000
40.56584	1014.00000
40.58255	981.00000
40.59926	1009.00000
40.61597	1008.00000
40.63268	1036.00000
40.64939	1059.00000
40.66610	1043.00000
40.68281	1060.00000
40.69952	1007.00000
40.71624	1034.00000
40.73295	1063.00000
40.74966	982.00000
40.76637	1056.00000
40.78308	1088.00000
40.79979	1026.00000
40.81650	1050.00000
40.83321	1006.00000
40.84992	1009.00000
40.86663	980.00000
40.88335	1025.00000
40.90006	1037.00000
40.91677	1025.00000
40.93348	1125.00000
40.95019	1100.00000
40.96690	1082.00000
40.98361	1028.00000
41.00032	1009.00000
41.01703	1031.00000
41.03374	1112.00000
41.05046	1075.00000
41.06717	1112.00000
41.08388	1093.00000
41.10059	1010.00000
41.11730	1039.00000
41.13401	1102.00000
41.15072	988.00000
41.16743	1109.00000
41.18414	1038.00000
41.20085	1018.00000
41.21757	940.00000
41.23428	1010.00000
41.25099	997.00000
41.26770	1049.00000
41.28441	1031.00000
41.30112	999.00000
41.31783	1014.00000
41.33454	1093.00000
41.35125	1004.00000
41.36796	1010.00000
41.38468	1059.00000
41.40139	1066.00000
41.41810	1048.00000
41.43481	1011.00000
41.45152	995.00000
41.46823	994.00000
41.48494	1046.00000
41.50165	943.00000
41.51836	994.00000
41.53507	1034.00000
41.55179	945.00000
41.56850	969.00000
41.58521	977.00000
41.60192	963.00000
41.61863	959.00000
41.63534	926.00000
41.65205	949.00000
41.66876	1000.00000
41.68547	1011.00000
41.70218	989.00000
41.71890	993.00000
41.73561	1013.00000
41.75232	1010.00000
41.76903	958.00000
41.78574	948.00000
41.80245	979.00000
41.81916	961.00000
41.83587	1012.00000
41.85258	949.00000
41.86929	928.00000
41.88601	923.00000
41.90272	948.00000
41.91943	964.00000
41.93614	924.00000
41.95285	1061.00000
41.96956	998.00000
41.98627	983.00000
42.00298	1012.00000
42.01969	956.00000
42.03640	1007.00000
42.05312	940.00000
42.06983	1029.00000
42.08654	915.00000
42.10325	989.00000
42.11996	943.00000
42.13667	963.00000
42.15338	1005.00000
42.17009	983.00000
42.18680	997.00000
42.20351	995.00000
42.22023	962.00000
42.23694	1028.00000
42.25365	1032.00000
42.27036	985.00000
42.28707	959.00000
42.30378	940.00000
42.32049	1012.00000
42.33720	1006.00000
42.35391	944.00000
42.37062	969.00000
42.38734	959.00000
42.40405	952.00000
42.42076	917.00000
42.43747	933.00000
42.45418	939.00000
42.47089	989.00000
42.48760	978.00000
42.50431	1017.00000
42.52102	1000.00000
42.53773	974.00000
42.55445	1026.00000
42.57116	999.00000
42.58787	1009.00000
42.60458	969.00000
42.62129	966.00000
42.63800	971.00000
42.65471	928.00000
42.67142	968.00000
42.68813	935.00000
42.70484	929.00000
42.72156	910.00000
42.73827	997.00000
42.75498	945.00000
42.77169	947.00000
42.78840	989.00000
42.80511	994.00000
42.82182	976.00000
42.83853	1000.00000
42.85524	968.00000
42.87195	1014.00000
42.88867	956.00000
42.90538	961.00000
42.92209	904.00000
42.93880	936.00000
42.95551	934.00000
42.97222	949.00000
42.98893	960.00000
43.00564	1024.00000
43.02235	978.00000
43.03906	911.00000
43.05578	949.00000
43.07249	898.00000
43.08920	943.00000
43.10591	984.00000
43.12262	925.00000
43.13933	898.00000
43.15604	944.00000
43.17275	891.00000
43.18946	967.00000
43.20617	928.00000
43.22289	971.00000
43.23960	947.00000
43.25631	946.00000
43.27302	933.00000
43.28973	960.00000
43.30644	879.00000
43.32315	973.00000
43.33986	931.00000
43.35657	955.00000
43.37328	913.00000
43.39000	941.00000
43.40671	926.00000
43.42342	944.00000
43.44013	934.00000
43.45684	964.00000
43.47355	953.00000
43.49026	916.00000
43.50697	911.00000
43.52368	948.00000
43.54039	955.00000
43.55711	896.00000
43.57382	876.00000
43.59053	955.00000
43.60724	895.00000
43.62395	865.00000
43.64066	933.00000
43.65737	972.00000
43.67408	885.00000
43.69079	942.00000
43.70750	968.00000
43.72422	955.00000
43.74093	862.00000
43.75764	907.00000
43.77435	898.00000
43.79106	932.00000
43.80777	949.00000
43.82448	937.00000
43.84119	945.00000
43.85790	941.00000
43.87461	962.00000
43.89133	915.00000
43.90804	946.00000
43.92475	881.00000
43.94146	845.00000
43.95817	916.00000
43.97488	855.00000
43.99159	895.00000
44.00830	884.00000
44.02501	890.00000
44.04172	894.00000
44.05844	898.00000
44.07515	881.00000
44.09186	826.00000
44.10857	855.00000
44.12528	843.00000
44.14199	832.00000
44.15870	888.00000
44.17541	867.00000
44.19212	884.00000
44.20883	912.00000
44.22555	943.00000
44.24226	804.00000
44.25897	826.00000
44.27568	838.00000
44.29239	895.00000
44.30910	925.00000
44.32581	909.00000
44.34252	856.00000
44.35923	865.00000
44.37594	813.00000
44.39266	855.00000
44.40937	886.00000
44.42608	827.00000
44.44279	811.00000
44.45950	899.00000
44.47621	864.00000
44.49292	859.00000
44.50963	802.00000
44.52634	843.00000
44.54305	893.00000
44.55977	904.00000
44.57648	882.00000
44.59319	911.00000
44.60990	858.00000
44.62661	850.00000
44.64332	909.00000
44.66003	874.00000
44.67674	902.00000
44.69345	878.00000
44.71016	828.00000
44.72688	860.00000
44.74359	853.00000
44.76030	899.00000
44.77701	823.00000
44.79372	919.00000
44.81043	844.00000
44.82714	861.00000
44.84385	904.00000
44.86056	885.00000
44.87727	877.00000
44.89399	887.00000
44.91070	890.00000
44.92741	811.00000
44.94412	903.00000
44.96083	879.00000
44.97754	844.00000
44.99425	838.00000
45.01096	831.00000
45.02767	851.00000
45.04438	894.00000
45.06110	835.00000
45.07781	858.00000
45.09452	819.00000
45.11123	871.00000
45.12794	839.00000
45.14465	899.00000
45.16136	885.00000
45.17807	881.00000
45.19478	882.00000
45.21149	819.00000
45.22821	868.00000
45.24492	861.00000
45.26163	837.00000
45.27834	886.00000
45.29505	801.00000
45.31176	860.00000
45.32847	817.00000
45.34518	922.00000
45.36189	883.00000
45.37860	827.00000
45.39532	867.00000
45.41203	871.00000
45.42874	891.00000
45.44545	892.00000
45.46216	888.00000
45.47887	913.00000
45.49558	886.00000
45.51229	818.00000
45.52900	877.00000
45.54571	810.00000
45.56243	845.00000
45.57914	856.00000
45.59585	855.00000
45.61256	860.00000
45.62927	886.00000
45.64598	859.00000
45.66269	816.00000
45.67940	828.00000
45.69611	833.00000
45.71282	845.00000
45.72954	806.00000
45.74625	876.00000
45.76296	822.00000
45.77967	843.00000
45.79638	806.00000
45.81309	835.00000
45.82980	816.00000
45.84651	813.00000
45.86322	851.00000
45.87993	862.00000
45.89665	800.00000
45.91336	859.00000
45.93007	797.00000
45.94678	854.00000
45.96349	830.00000
45.98020	793.00000
45.99691	820.00000
46.01362	838.00000
46.03033	867.00000
46.04704	825.00000
46.06376	778.00000
46.08047	788.00000
46.09718	817.00000
46.11389	793.00000
46.13060	842.00000
46.14731	813.00000
46.16402	819.00000
46.18073	799.00000
46.19744	784.00000
46.21415	796.00000
46.23087	788.00000
46.24758	784.00000
46.26429	837.00000
46.28100	777.00000
46.29771	831.00000
46.31442	752.00000
46.33113	803.00000
46.34784	764.00000
46.36455	846.00000
46.38126	800.00000
46.39798	802.00000
46.41469	795.00000
46.43140	817.00000
46.44811	794.00000
46.46482	811.00000
46.48153	810.00000
46.49824	819.00000
46.51495	830.00000
46.53166	750.00000
46.54837	774.00000
46.56509	796.00000
46.58180	743.00000
46.59851	854.00000
46.61522	853.00000
46.63193	807.00000
46.64864	818.00000
46.66535	741.00000
46.68206	821.00000
46.69877	833.00000
46.71548	802.00000
46.73220	809.00000
46.74891	833.00000
46.76562	810.00000
46.78233	788.00000
46.79904	797.00000
46.81575	839.00000
46.83246	802.00000
46.84917	789.00000
46.86588	803.00000
46.88259	759.00000
46.89931	844.00000
46.91602	839.00000
46.93273	783.00000
46.94944	802.00000
46.96615	831.00000
46.98286	874.00000
46.99957	786.00000
47.01628	859.00000
47.03299	789.00000
47.04970	870.00000
47.06642	861.00000
47.08313	777.00000
47.09984	800.00000
47.11655	815.00000
47.13326	826.00000
47.14997	816.00000
47.16668	754.00000
47.18339	774.00000
47.20010	796.00000
47.21681	881.00000
47.23353	878.00000
47.25024	796.00000
47.26695	828.00000
47.28366	850.00000
47.30037	810.00000
47.31708	774.00000
47.33379	821.00000
47.35050	761.00000
47.36721	773.00000
47.38392	832.00000
47.40064	856.00000
47.41735	819.00000
47.43406	807.00000
47.45077	785.00000
47.46748	786.00000
47.48419	809.00000
47.50090	780.00000
47.51761	811.00000
47.53432	803.00000
47.55103	797.00000
47.56775	766.00000
47.58446	767.00000
47.60117	811.00000
47.61788	748.00000
47.63459	815.00000
47.65130	811.00000
47.66801	817.00000
47.68472	778.00000
47.70143	787.00000
47.71814	745.00000
47.73486	822.00000
47.75157	811.00000
47.76828	812.00000
47.78499	807.00000
47.80170	814.00000
47.81841	771.00000
47.83512	787.00000
47.85183	754.00000
47.86854	818.00000
47.88525	790.00000
47.90197	822.00000
47.91868	789.00000
47.93539	780.00000
47.95210	762.00000
47.96881	800.00000
47.98552	799.00000
48.00223	761.00000
48.01894	755.00000
48.03565	732.00000
48.05236	748.00000
48.06908	747.00000
48.08579	761.00000
48.10250	747.00000
48.11921	798.00000
48.13592	746.00000
48.15263	765.00000
48.16934	750.00000
48.18605	768.00000
48.20276	703.00000
48.21947	751.00000
48.23619	773.00000
48.25290	731.00000
48.26961	758.00000
48.28632	763.00000
48.30303	790.00000
48.31974	734.00000
48.33645	762.00000
48.35316	769.00000
48.36987	741.00000
48.38658	796.00000
48.40330	783.00000
48.42001	795.00000
48.43672	732.00000
48.45343	767.00000
48.47014	778.00000
48.48685	762.00000
48.50356	806.00000
48.52027	780.00000
48.53698	737.00000
48.55369	742.00000
48.57041	778.00000
48.58712	735.00000
48.60383	747.00000
48.62054	723.00000
48.63725	813.00000
48.65396	749.00000
48.67067	749.00000
48.68738	775.00000
48.70409	780.00000
48.72080	756.00000
48.73752	795.00000
48.75423	764.00000
48.77094	749.00000
48.78765	773.00000
48.80436	801.00000
48.82107	768.00000
48.83778	748.00000
48.85449	785.00000
48.87120	757.00000
48.88791	718.00000
48.90463	730.00000
48.92134	766.00000
48.93805	732.00000
48.95476	741.00000
48.97147	795.00000
48.98818	752.00000
49.00489	770.00000
49.02160	729.00000
49.03831	782.00000
49.05502	717.00000
49.07174	746.00000
49.08845	741.00000
49.10516	693.00000
49.12187	757.00000
49.13858	761.00000
49.15529	689.00000
49.17200	699.00000
49.18871	778.00000
49.20542	746.00000
49.22213	746.00000
49.23885	753.00000
49.25556	811.00000
49.27227	718.00000
49.28898	782.00000
49.30569	766.00000
49.32240	756.00000
49.33911	812.00000
49.35582	754.00000
49.37253	729.00000
49.38924	755.00000
49.40596	763.00000
49.42267	749.00000
49.43938	725.00000
49.45609	759.00000
49.47280	765.00000
49.48951	736.00000
49.50622	734.00000
49.52293	768.00000
49.53964	773.00000
49.55635	741.00000
49.57307	756.00000
49.58978	728.00000
49.60649	791.00000
49.62320	797.00000
49.63991	759.00000
49.65662	812.00000
49.67333	748.00000
49.69004	748.00000
49.70675	773.00000
49.72346	787.00000
49.74018	743.00000
49.75689	743.00000
49.77360	699.00000
49.79031	745.00000
49.80702	733.00000
49.82373	730.00000
49.84044	749.00000
49.85715	754.00000
49.87386	728.00000
49.89057	731.00000
49.90729	785.00000
49.92400	685.00000
49.94071	767.00000
49.95742	770.00000
49.97413	783.00000
49.99084	764.00000
