8.00000	1678.00000
8.02200	1627.00000
8.04400	1603.00000
8.06600	1640.00000
8.08800	1541.00000
8.11000	1554.00000
8.13200	1480.00000
8.15400	1493.00000
8.17600	1488.00000
8.19800	1487.00000
8.22000	1414.00000
8.24200	1454.00000
8.26400	1485.00000
8.28600	1490.00000
8.30800	1458.00000
8.33000	1490.00000
8.35200	1466.00000
8.37400	1426.00000
8.39600	1378.00000
8.41800	1402.00000
8.44000	1394.00000
8.46200	1363.00000
8.48400	1414.00000
8.50600	1312.00000
8.52800	1386.00000
8.55000	1279.00000
8.57200	1326.00000
8.59400	1296.00000
8.61600	1324.00000
8.63800	1259.00000
8.66000	1250.00000
8.68200	1310.00000
8.70400	1255.00000
8.72600	1267.00000
8.74800	1203.00000
8.77000	1212.00000
8.79200	1219.00000
8.81400	1184.00000
8.83600	1233.00000
8.85800	1266.00000
8.88000	1224.00000
8.90200	1247.00000
8.92400	1190.00000
8.94600	1270.00000
8.96800	1258.00000
8.99000	1219.00000
9.01200	1228.00000
9.03400	1134.00000
9.05600	1130.00000
9.07800	1094.00000
9.10000	1153.00000
9.12200	1288.00000
9.14400	1206.00000
9.16600	1256.00000
9.18800	1242.00000
9.21000	1175.00000
9.23200	1180.00000
9.25400	1156.00000
9.27600	1157.00000
9.29800	1124.00000
9.32000	1168.00000
9.34200	1193.00000
9.36400	1127.00000
9.38600	1113.00000
9.40800	1133.00000
9.43000	1134.00000
9.45200	1105.00000
9.47400	1201.00000
9.49600	1079.00000
9.51800	1103.00000
9.54000	1254.00000
9.56200	1135.00000
9.58400	1127.00000
9.60600	1111.00000
9.62800	1109.00000
9.65000	1141.00000
9.67200	1164.00000
9.69400	1119.00000
9.71600	1183.00000
9.73800	1132.00000
9.76000	1040.00000
9.78200	1120.00000
9.80400	1163.00000
9.82600	1116.00000
9.84800	1138.00000
9.87000	1086.00000
9.89200	1141.00000
9.91400	1195.00000
9.93600	1176.00000
9.95800	1077.00000
9.98000	1070.00000
10.00200	1105.00000
10.02400	1081.00000
10.04600	1160.00000
10.06800	1146.00000
10.09000	1040.00000
10.11200	1067.00000
10.13400	1132.00000
10.15600	1120.00000
10.17800	1067.00000
10.20000	1047.00000
10.22200	1061.00000
10.24400	1100.00000
10.26600	1143.00000
10.28800	1185.00000
10.31000	1059.00000
10.33200	1148.00000
10.35400	1107.00000
10.37600	1168.00000
10.39800	1116.00000
10.42000	1170.00000
10.44200	1134.00000
10.46400	1221.00000
10.48600	1205.00000
10.50800	1200.00000
10.53000	1264.00000
10.55200	1281.00000
10.57400	1361.00000
10.59600	1460.00000
10.61800	1686.00000
10.64000	1945.00000
10.66200	2274.00000
10.68400	2947.00000
10.70600	3739.00000
10.72800	4519.00000
10.75000	5399.00000
10.77200	6100.00000
10.79400	6671.00000
10.81600	6375.00000
10.83800	4606.00000
10.86000	2768.00000
10.88200	1632.00000
10.90400	1293.00000
10.92600	1115.00000
10.94800	1023.00000
10.97000	979.00000
10.99200	1044.00000
11.01400	987.00000
11.03600	991.00000
11.05800	979.00000
11.08000	1004.00000
11.10200	967.00000
11.12400	943.00000
11.14600	963.00000
11.16800	932.00000
11.19000	932.00000
11.21200	999.00000
11.23400	880.00000
11.25600	970.00000
11.27800	941.00000
11.30000	913.00000
11.32200	952.00000
11.34400	900.00000
11.36600	934.00000
11.38800	921.00000
11.41000	917.00000
11.43200	949.00000
11.45400	894.00000
11.47600	923.00000
11.49800	902.00000
11.52000	916.00000
11.54200	954.00000
11.56400	893.00000
11.58600	856.00000
11.60800	888.00000
11.63000	902.00000
11.65200	920.00000
11.67400	900.00000
11.69600	902.00000
11.71800	861.00000
11.74000	848.00000
11.76200	823.00000
11.78400	861.00000
11.80600	860.00000
11.82800	850.00000
11.85000	866.00000
11.87200	886.00000
11.89400	858.00000
11.91600	866.00000
11.93800	842.00000
11.96000	850.00000
11.98200	836.00000
12.00400	860.00000
12.02600	870.00000
12.04800	835.00000
12.07000	897.00000
12.09200	846.00000
12.11400	840.00000
12.13600	817.00000
12.15800	875.00000
12.18000	810.00000
12.20200	838.00000
12.22400	844.00000
12.24600	865.00000
12.26800	808.00000
12.29000	841.00000
12.31200	817.00000
12.33400	844.00000
12.35600	811.00000
12.37800	805.00000
12.40000	827.00000
12.42200	836.00000
12.44400	807.00000
12.46600	789.00000
12.48800	846.00000
12.51000	807.00000
12.53200	861.00000
12.55400	822.00000
12.57600	822.00000
12.59800	774.00000
12.62000	840.00000
12.64200	797.00000
12.66400	779.00000
12.68600	794.00000
12.70800	788.00000
12.73000	819.00000
12.75200	814.00000
12.77400	805.00000
12.79600	774.00000
12.81800	806.00000
12.84000	812.00000
12.86200	811.00000
12.88400	779.00000
12.90600	797.00000
12.92800	790.00000
12.95000	770.00000
12.97200	805.00000
12.99400	826.00000
13.01600	772.00000
13.03800	798.00000
13.06000	783.00000
13.08200	797.00000
13.10400	743.00000
13.12600	725.00000
13.14800	804.00000
13.17000	739.00000
13.19200	782.00000
13.21400	742.00000
13.23600	765.00000
13.25800	783.00000
13.28000	726.00000
13.30200	808.00000
13.32400	776.00000
13.34600	726.00000
13.36800	751.00000
13.39000	753.00000
13.41200	751.00000
13.43400	754.00000
13.45600	725.00000
13.47800	755.00000
13.50000	775.00000
13.52200	801.00000
13.54400	729.00000
13.56600	716.00000
13.58800	705.00000
13.61000	768.00000
13.63200	719.00000
13.65400	729.00000
13.67600	702.00000
13.69800	709.00000
13.72000	735.00000
13.74200	701.00000
13.76400	778.00000
13.78600	725.00000
13.80800	707.00000
13.83000	725.00000
13.85200	770.00000
13.87400	708.00000
13.89600	716.00000
13.91800	731.00000
13.94000	710.00000
13.96200	718.00000
13.98400	684.00000
14.00600	690.00000
14.02800	716.00000
14.05000	708.00000
14.07200	696.00000
14.09400	707.00000
14.11600	708.00000
14.13800	675.00000
14.16000	736.00000
14.18200	698.00000
14.20400	703.00000
14.22600	718.00000
14.24800	729.00000
14.27000	706.00000
14.29200	656.00000
14.31400	711.00000
14.33600	691.00000
14.35800	658.00000
14.38000	679.00000
14.40200	696.00000
14.42400	656.00000
14.44600	686.00000
14.46800	766.00000
14.49000	679.00000
14.51200	688.00000
14.53400	729.00000
14.55600	709.00000
14.57800	694.00000
14.60000	653.00000
14.62200	719.00000
14.64400	685.00000
14.66600	675.00000
14.68800	650.00000
14.71000	730.00000
14.73200	669.00000
14.75400	709.00000
14.77600	653.00000
14.79800	696.00000
14.82000	665.00000
14.84200	670.00000
14.86400	649.00000
14.88600	670.00000
14.90800	669.00000
14.93000	698.00000
14.95200	654.00000
14.97400	643.00000
14.99600	677.00000
15.01800	667.00000
15.04000	650.00000
15.06200	659.00000
15.08400	661.00000
15.10600	674.00000
15.12800	681.00000
15.15000	690.00000
15.17200	680.00000
15.19400	643.00000
15.21600	667.00000
15.23800	606.00000
15.26000	671.00000
15.28200	652.00000
15.30400	649.00000
15.32600	654.00000
15.34800	637.00000
15.37000	653.00000
15.39200	655.00000
15.41400	623.00000
15.43600	638.00000
15.45800	651.00000
15.48000	619.00000
15.50200	653.00000
15.52400	672.00000
15.54600	690.00000
15.56800	656.00000
15.59000	627.00000
15.61200	581.00000
15.63400	596.00000
15.65600	648.00000
15.67800	685.00000
15.70000	671.00000
15.72200	620.00000
15.74400	652.00000
15.76600	672.00000
15.78800	677.00000
15.81000	607.00000
15.83200	634.00000
15.85400	618.00000
15.87600	633.00000
15.89800	668.00000
15.92000	620.00000
15.94200	655.00000
15.96400	606.00000
15.98600	624.00000
16.00800	631.00000
16.03000	634.00000
16.05200	671.00000
16.07400	645.00000
16.09600	612.00000
16.11800	660.00000
16.14000	636.00000
16.16200	639.00000
16.18400	653.00000
16.20600	621.00000
16.22800	643.00000
16.25000	664.00000
16.27200	634.00000
16.29400	608.00000
16.31600	630.00000
16.33800	640.00000
16.36000	592.00000
16.38200	630.00000
16.40400	618.00000
16.42600	632.00000
16.44800	609.00000
16.47000	657.00000
16.49200	567.00000
16.51400	634.00000
16.53600	602.00000
16.55800	613.00000
16.58000	672.00000
16.60200	617.00000
16.62400	644.00000
16.64600	626.00000
16.66800	637.00000
16.69000	652.00000
16.71200	605.00000
16.73400	669.00000
16.75600	606.00000
16.77800	569.00000
16.80000	583.00000
16.82200	647.00000
16.84400	620.00000
16.86600	596.00000
16.88800	614.00000
16.91000	633.00000
16.93200	629.00000
16.95400	666.00000
16.97600	607.00000
16.99800	605.00000
17.02000	581.00000
17.04200	628.00000
17.06400	613.00000
17.08600	632.00000
17.10800	604.00000
17.13000	652.00000
17.15200	637.00000
17.17400	635.00000
17.19600	661.00000
17.21800	597.00000
17.24000	675.00000
17.26200	646.00000
17.28400	607.00000
17.30600	617.00000
17.32800	571.00000
17.35000	612.00000
17.37200	605.00000
17.39400	620.00000
17.41600	591.00000
17.43800	602.00000
17.46000	627.00000
17.48200	608.00000
17.50400	631.00000
17.52600	600.00000
17.54800	582.00000
17.57000	635.00000
17.59200	615.00000
17.61400	600.00000
17.63600	566.00000
17.65800	614.00000
17.68000	584.00000
17.70200	625.00000
17.72400	609.00000
17.74600	604.00000
17.76800	633.00000
17.79000	617.00000
17.81200	598.00000
17.83400	609.00000
17.85600	628.00000
17.87800	614.00000
17.90000	631.00000
17.92200	594.00000
17.94400	587.00000
17.96600	626.00000
17.98800	606.00000
18.01000	564.00000
18.03200	604.00000
18.05400	613.00000
18.07600	573.00000
18.09800	546.00000
18.12000	612.00000
18.14200	637.00000
18.16400	610.00000
18.18600	649.00000
18.20800	608.00000
18.23000	661.00000
18.25200	640.00000
18.27400	632.00000
18.29600	664.00000
18.31800	674.00000
18.34000	696.00000
18.36200	695.00000
18.38400	662.00000
18.40600	620.00000
18.42800	603.00000
18.45000	636.00000
18.47200	601.00000
18.49400	592.00000
18.51600	585.00000
18.53800	638.00000
18.56000	649.00000
18.58200	602.00000
18.60400	575.00000
18.62600	613.00000
18.64800	614.00000
18.67000	605.00000
18.69200	598.00000
18.71400	615.00000
18.73600	606.00000
18.75800	651.00000
18.78000	620.00000
18.80200	615.00000
18.82400	624.00000
18.84600	596.00000
18.86800	612.00000
18.89000	592.00000
18.91200	580.00000
18.93400	608.00000
18.95600	578.00000
18.97800	637.00000
19.00000	596.00000
19.02200	601.00000
19.04400	579.00000
19.06600	626.00000
19.08800	565.00000
19.11000	577.00000
19.13200	595.00000
19.15400	572.00000
19.17600	613.00000
19.19800	595.00000
19.22000	588.00000
19.24200	620.00000
19.26400	672.00000
19.28600	583.00000
19.30800	605.00000
19.33000	602.00000
19.35200	573.00000
19.37400	629.00000
19.39600	609.00000
19.41800	610.00000
19.44000	595.00000
19.46200	661.00000
19.48400	626.00000
19.50600	693.00000
19.52800	615.00000
19.55000	694.00000
19.57200	693.00000
19.59400	676.00000
19.61600	653.00000
19.63800	655.00000
19.66000	613.00000
19.68200	660.00000
19.70400	644.00000
19.72600	605.00000
19.74800	615.00000
19.77000	640.00000
19.79200	619.00000
19.81400	643.00000
19.83600	621.00000
19.85800	613.00000
19.88000	644.00000
19.90200	615.00000
19.92400	615.00000
19.94600	609.00000
19.96800	624.00000
19.99000	586.00000
20.01200	571.00000
20.03400	614.00000
20.05600	601.00000
20.07800	614.00000
20.10000	557.00000
20.12200	597.00000
20.14400	602.00000
20.16600	625.00000
20.18800	589.00000
20.21000	627.00000
20.23200	585.00000
20.25400	624.00000
20.27600	647.00000
20.29800	613.00000
20.32000	570.00000
20.34200	612.00000
20.36400	587.00000
20.38600	597.00000
20.40800	547.00000
20.43000	598.00000
20.45200	622.00000
20.47400	612.00000
20.49600	636.00000
20.51800	576.00000
20.54000	607.00000
20.56200	583.00000
20.58400	648.00000
20.60600	619.00000
20.62800	649.00000
20.65000	586.00000
20.67200	644.00000
20.69400	641.00000
20.71600	631.00000
20.73800	688.00000
20.76000	635.00000
20.78200	665.00000
20.80400	716.00000
20.82600	685.00000
20.84800	667.00000
20.87000	667.00000
20.89200	673.00000
20.91400	735.00000
20.93600	714.00000
20.95800	696.00000
20.98000	647.00000
21.00200	716.00000
21.02400	684.00000
21.04600	667.00000
21.06800	681.00000
21.09000	737.00000
21.11200	720.00000
21.13400	644.00000
21.15600	660.00000
21.17800	657.00000
21.20000	645.00000
21.22200	715.00000
21.24400	643.00000
21.26600	672.00000
21.28800	666.00000
21.31000	643.00000
21.33200	648.00000
21.35400	688.00000
21.37600	683.00000
21.39800	685.00000
21.42000	632.00000
21.44200	659.00000
21.46400	702.00000
21.48600	718.00000
21.50800	729.00000
21.53000	823.00000
21.55200	997.00000
21.57400	1211.00000
21.59600	1389.00000
21.61800	1770.00000
21.64000	2045.00000
21.66200	2324.00000
21.68400	2280.00000
21.70600	2074.00000
21.72800	1777.00000
21.75000	1283.00000
21.77200	1059.00000
21.79400	854.00000
21.81600	725.00000
21.83800	681.00000
21.86000	742.00000
21.88200	656.00000
21.90400	666.00000
21.92600	638.00000
21.94800	663.00000
21.97000	670.00000
21.99200	671.00000
22.01400	641.00000
22.03600	642.00000
22.05800	685.00000
22.08000	668.00000
22.10200	655.00000
22.12400	673.00000
22.14600	667.00000
22.16800	694.00000
22.19000	669.00000
22.21200	699.00000
22.23400	690.00000
22.25600	672.00000
22.27800	677.00000
22.30000	719.00000
22.32200	674.00000
22.34400	663.00000
22.36600	706.00000
22.38800	690.00000
22.41000	748.00000
22.43200	713.00000
22.45400	730.00000
22.47600	656.00000
22.49800	740.00000
22.52000	708.00000
22.54200	722.00000
22.56400	719.00000
22.58600	698.00000
22.60800	705.00000
22.63000	703.00000
22.65200	731.00000
22.67400	748.00000
22.69600	770.00000
22.71800	716.00000
22.74000	763.00000
22.76200	768.00000
22.78400	754.00000
22.80600	766.00000
22.82800	837.00000
22.85000	924.00000
22.87200	1003.00000
22.89400	1213.00000
22.91600	1620.00000
22.93800	2486.00000
22.96000	3492.00000
22.98200	4963.00000
23.00400	6106.00000
23.02600	6789.00000
23.04800	6797.00000
23.07000	6011.00000
23.09200	4496.00000
23.11400	3111.00000
23.13600	2117.00000
23.15800	1384.00000
23.18000	889.00000
23.20200	784.00000
23.22400	753.00000
23.24600	714.00000
23.26800	692.00000
23.29000	695.00000
23.31200	664.00000
23.33400	651.00000
23.35600	693.00000
23.37800	660.00000
23.40000	652.00000
23.42200	641.00000
23.44400	659.00000
23.46600	679.00000
23.48800	679.00000
23.51000	661.00000
23.53200	640.00000
23.55400	650.00000
23.57600	666.00000
23.59800	627.00000
23.62000	678.00000
23.64200	683.00000
23.66400	683.00000
23.68600	714.00000
23.70800	773.00000
23.73000	803.00000
23.75200	829.00000
23.77400	790.00000
23.79600	740.00000
23.81800	721.00000
23.84000	737.00000
23.86200	765.00000
23.88400	796.00000
23.90600	761.00000
23.92800	812.00000
23.95000	771.00000
23.97200	796.00000
23.99400	773.00000
24.01600	811.00000
24.03800	794.00000
24.06000	743.00000
24.08200	742.00000
24.10400	716.00000
24.12600	675.00000
24.14800	622.00000
24.17000	665.00000
24.19200	653.00000
24.21400	675.00000
24.23600	682.00000
24.25800	667.00000
24.28000	606.00000
24.30200	620.00000
24.32400	644.00000
24.34600	609.00000
24.36800	643.00000
24.39000	637.00000
24.41200	651.00000
24.43400	614.00000
24.45600	637.00000
24.47800	659.00000
24.50000	679.00000
24.52200	707.00000
24.54400	704.00000
24.56600	692.00000
24.58800	700.00000
24.61000	770.00000
24.63200	681.00000
24.65400	701.00000
24.67600	694.00000
24.69800	650.00000
24.72000	631.00000
24.74200	693.00000
24.76400	652.00000
24.78600	684.00000
24.80800	677.00000
24.83000	638.00000
24.85200	658.00000
24.87400	677.00000
24.89600	709.00000
24.91800	719.00000
24.94000	722.00000
24.96200	719.00000
24.98400	646.00000
25.00600	657.00000
25.02800	705.00000
25.05000	687.00000
25.07200	641.00000
25.09400	777.00000
25.11600	715.00000
25.13800	694.00000
25.16000	720.00000
25.18200	751.00000
25.20400	739.00000
25.22600	699.00000
25.24800	716.00000
25.27000	735.00000
25.29200	765.00000
25.31400	730.00000
25.33600	773.00000
25.35800	728.00000
25.38000	723.00000
25.40200	757.00000
25.42400	779.00000
25.44600	773.00000
25.46800	798.00000
25.49000	772.00000
25.51200	780.00000
25.53400	766.00000
25.55600	792.00000
25.57800	808.00000
25.60000	809.00000
25.62200	800.00000
25.64400	830.00000
25.66600	743.00000
25.68800	833.00000
25.71000	776.00000
25.73200	816.00000
25.75400	808.00000
25.77600	834.00000
25.79800	814.00000
25.82000	836.00000
25.84200	804.00000
25.86400	840.00000
25.88600	857.00000
25.90800	889.00000
25.93000	905.00000
25.95200	839.00000
25.97400	942.00000
25.99600	860.00000
26.01800	889.00000
26.04000	924.00000
26.06200	933.00000
26.08400	1001.00000
26.10600	1062.00000
26.12800	1194.00000
26.15000	1463.00000
26.17200	1847.00000
26.19400	2581.00000
26.21600	4069.00000
26.23800	6222.00000
26.26000	9530.00000
26.28200	12699.00000
26.30400	15808.00000
26.32600	17174.00000
26.34800	16666.00000
26.37000	14324.00000
26.39200	10886.00000
26.41400	7411.00000
26.43600	4962.00000
26.45800	3174.00000
26.48000	1825.00000
26.50200	1254.00000
26.52400	1065.00000
26.54600	951.00000
26.56800	920.00000
26.59000	857.00000
26.61200	789.00000
26.63400	804.00000
26.65600	805.00000
26.67800	786.00000
26.70000	734.00000
26.72200	754.00000
26.74400	763.00000
26.76600	741.00000
26.78800	737.00000
26.81000	744.00000
26.83200	743.00000
26.85400	761.00000
26.87600	738.00000
26.89800	761.00000
26.92000	769.00000
26.94200	722.00000
26.96400	735.00000
26.98600	734.00000
27.00800	765.00000
27.03000	751.00000
27.05200	724.00000
27.07400	687.00000
27.09600	746.00000
27.11800	785.00000
27.14000	746.00000
27.16200	704.00000
27.18400	745.00000
27.20600	704.00000
27.22800	693.00000
27.25000	721.00000
27.27200	704.00000
27.29400	792.00000
27.31600	834.00000
27.33800	970.00000
27.36000	1252.00000
27.38200	1657.00000
27.40400	2248.00000
27.42600	2906.00000
27.44800	3583.00000
27.47000	3805.00000
27.49200	3581.00000
27.51400	3040.00000
27.53600	2279.00000
27.55800	1863.00000
27.58000	1404.00000
27.60200	1032.00000
27.62400	819.00000
27.64600	668.00000
27.66800	679.00000
27.69000	681.00000
27.71200	628.00000
27.73400	652.00000
27.75600	625.00000
27.77800	648.00000
27.80000	648.00000
27.82200	613.00000
27.84400	604.00000
27.86600	622.00000
27.88800	599.00000
27.91000	652.00000
27.93200	555.00000
27.95400	644.00000
27.97600	582.00000
27.99800	564.00000
28.02000	589.00000
28.04200	612.00000
28.06400	592.00000
28.08600	666.00000
28.10800	692.00000
28.13000	775.00000
28.15200	939.00000
28.17400	1098.00000
28.19600	1450.00000
28.21800	1724.00000
28.24000	1786.00000
28.26200	1870.00000
28.28400	1749.00000
28.30600	1445.00000
28.32800	1255.00000
28.35000	978.00000
28.37200	827.00000
28.39400	713.00000
28.41600	625.00000
28.43800	612.00000
28.46000	634.00000
28.48200	591.00000
28.50400	597.00000
28.52600	591.00000
28.54800	619.00000
28.57000	585.00000
28.59200	622.00000
28.61400	608.00000
28.63600	578.00000
28.65800	626.00000
28.68000	620.00000
28.70200	598.00000
28.72400	573.00000
28.74600	564.00000
28.76800	593.00000
28.79000	634.00000
28.81200	617.00000
28.83400	599.00000
28.85600	633.00000
28.87800	648.00000
28.90000	593.00000
28.92200	593.00000
28.94400	564.00000
28.96600	599.00000
28.98800	626.00000
29.01000	623.00000
29.03200	640.00000
29.05400	605.00000
29.07600	603.00000
29.09800	577.00000
29.12000	619.00000
29.14200	670.00000
29.16400	610.00000
29.18600	604.00000
29.20800	622.00000
29.23000	623.00000
29.25200	607.00000
29.27400	643.00000
29.29600	657.00000
29.31800	629.00000
29.34000	619.00000
29.36200	662.00000
29.38400	603.00000
29.40600	660.00000
29.42800	664.00000
29.45000	668.00000
29.47200	681.00000
29.49400	724.00000
29.51600	687.00000
29.53800	708.00000
29.56000	741.00000
29.58200	822.00000
29.60400	833.00000
29.62600	967.00000
29.64800	1129.00000
29.67000	1563.00000
29.69200	2285.00000
29.71400	3507.00000
29.73600	4911.00000
29.75800	6246.00000
29.78000	6928.00000
29.80200	7007.00000
29.82400	6467.00000
29.84600	4982.00000
29.86800	3661.00000
29.89000	2655.00000
29.91200	1970.00000
29.93400	1309.00000
29.95600	858.00000
29.97800	732.00000
30.00000	649.00000
30.02200	656.00000
30.04400	619.00000
30.06600	630.00000
30.08800	622.00000
30.11000	594.00000
30.13200	594.00000
30.15400	568.00000
30.17600	609.00000
30.19800	619.00000
30.22000	621.00000
30.24200	728.00000
30.26400	855.00000
30.28600	994.00000
30.30800	1101.00000
30.33000	1204.00000
30.35200	1203.00000
30.37400	1168.00000
30.39600	985.00000
30.41800	895.00000
30.44000	810.00000
30.46200	737.00000
30.48400	632.00000
30.50600	609.00000
30.52800	606.00000
30.55000	588.00000
30.57200	551.00000
30.59400	557.00000
30.61600	519.00000
30.63800	559.00000
30.66000	604.00000
30.68200	535.00000
30.70400	568.00000
30.72600	532.00000
30.74800	583.00000
30.77000	550.00000
30.79200	551.00000
30.81400	528.00000
30.83600	522.00000
30.85800	550.00000
30.88000	503.00000
30.90200	526.00000
30.92400	559.00000
30.94600	493.00000
30.96800	501.00000
30.99000	509.00000
31.01200	503.00000
31.03400	494.00000
31.05600	494.00000
31.07800	495.00000
31.10000	490.00000
31.12200	530.00000
31.14400	516.00000
31.16600	480.00000
31.18800	492.00000
31.21000	479.00000
31.23200	532.00000
31.25400	549.00000
31.27600	489.00000
31.29800	492.00000
31.32000	524.00000
31.34200	470.00000
31.36400	510.00000
31.38600	479.00000
31.40800	486.00000
31.43000	501.00000
31.45200	547.00000
31.47400	520.00000
31.49600	475.00000
31.51800	526.00000
31.54000	482.00000
31.56200	511.00000
31.58400	559.00000
31.60600	556.00000
31.62800	567.00000
31.65000	634.00000
31.67200	790.00000
31.69400	938.00000
31.71600	1219.00000
31.73800	1232.00000
31.76000	1262.00000
31.78200	1246.00000
31.80400	1201.00000
31.82600	1042.00000
31.84800	911.00000
31.87000	774.00000
31.89200	646.00000
31.91400	650.00000
31.93600	593.00000
31.95800	603.00000
31.98000	622.00000
32.00200	625.00000
32.02400	665.00000
32.04600	621.00000
32.06800	603.00000
32.09000	581.00000
32.11200	609.00000
32.13400	553.00000
32.15600	520.00000
32.17800	484.00000
32.20000	471.00000
32.22200	468.00000
32.24400	533.00000
32.26600	516.00000
32.28800	492.00000
32.31000	491.00000
32.33200	504.00000
32.35400	524.00000
32.37600	482.00000
32.39800	522.00000
32.42000	475.00000
32.44200	524.00000
32.46400	540.00000
32.48600	532.00000
32.50800	557.00000
32.53000	593.00000
32.55200	660.00000
32.57400	633.00000
32.59600	925.00000
32.61800	1159.00000
32.64000	1428.00000
32.66200	1684.00000
32.68400	1918.00000
32.70600	1894.00000
32.72800	1911.00000
32.75000	1852.00000
32.77200	1400.00000
32.79400	1127.00000
32.81600	1005.00000
32.83800	823.00000
32.86000	631.00000
32.88200	594.00000
32.90400	484.00000
32.92600	509.00000
32.94800	480.00000
32.97000	486.00000
32.99200	505.00000
33.01400	497.00000
33.03600	454.00000
33.05800	515.00000
33.08000	482.00000
33.10200	482.00000
33.12400	454.00000
33.14600	489.00000
33.16800	440.00000
33.19000	486.00000
33.21200	439.00000
33.23400	440.00000
33.25600	496.00000
33.27800	468.00000
33.30000	454.00000
33.32200	490.00000
33.34400	454.00000
33.36600	470.00000
33.38800	473.00000
33.41000	519.00000
33.43200	468.00000
33.45400	518.00000
33.47600	533.00000
33.49800	485.00000
33.52000	512.00000
33.54200	494.00000
33.56400	501.00000
33.58600	493.00000
33.60800	533.00000
33.63000	497.00000
33.65200	583.00000
33.67400	577.00000
33.69600	558.00000
33.71800	562.00000
33.74000	716.00000
33.76200	848.00000
33.78400	1115.00000
33.80600	1697.00000
33.82800	2391.00000
33.85000	3211.00000
33.87200	3740.00000
33.89400	3846.00000
33.91600	3832.00000
33.93800	3519.00000
33.96000	2917.00000
33.98200	2155.00000
34.00400	1745.00000
34.02600	1381.00000
34.04800	1025.00000
34.07000	653.00000
34.09200	593.00000
34.11400	491.00000
34.13600	473.00000
34.15800	466.00000
34.18000	447.00000
34.20200	460.00000
34.22400	412.00000
34.24600	481.00000
34.26800	434.00000
34.29000	435.00000
34.31200	453.00000
34.33400	425.00000
34.35600	442.00000
34.37800	424.00000
34.40000	418.00000
34.42200	441.00000
34.44400	437.00000
34.46600	422.00000
34.48800	455.00000
34.51000	454.00000
34.53200	427.00000
34.55400	392.00000
34.57600	421.00000
34.59800	435.00000
34.62000	387.00000
34.64200	349.00000
34.66400	425.00000
34.68600	382.00000
34.70800	389.00000
34.73000	391.00000
34.75200	390.00000
34.77400	404.00000
34.79600	427.00000
34.81800	433.00000
34.84000	399.00000
34.86200	384.00000
34.88400	374.00000
34.90600	368.00000
34.92800	386.00000
34.95000	349.00000
34.97200	386.00000
34.99400	381.00000
35.01600	389.00000
35.03800	410.00000
35.06000	388.00000
35.08200	376.00000
35.10400	425.00000
35.12600	350.00000
35.14800	373.00000
35.17000	379.00000
35.19200	401.00000
35.21400	363.00000
35.23600	331.00000
35.25800	403.00000
35.28000	356.00000
35.30200	381.00000
35.32400	393.00000
35.34600	368.00000
35.36800	389.00000
35.39000	362.00000
35.41200	374.00000
35.43400	344.00000
35.45600	367.00000
35.47800	356.00000
35.50000	381.00000
35.52200	343.00000
35.54400	365.00000
35.56600	413.00000
35.58800	391.00000
35.61000	348.00000
35.63200	392.00000
35.65400	388.00000
35.67600	382.00000
35.69800	350.00000
35.72000	354.00000
35.74200	389.00000
35.76400	341.00000
35.78600	355.00000
35.80800	396.00000
35.83000	384.00000
35.85200	380.00000
35.87400	387.00000
35.89600	350.00000
35.91800	368.00000
35.94000	353.00000
35.96200	407.00000
35.98400	412.00000
36.00600	385.00000
36.02800	387.00000
36.05000	403.00000
36.07200	378.00000
36.09400	403.00000
36.11600	396.00000
36.13800	352.00000
36.16000	398.00000
36.18200	390.00000
36.20400	407.00000
36.22600	367.00000
36.24800	339.00000
36.27000	346.00000
36.29200	358.00000
36.31400	356.00000
36.33600	396.00000
36.35800	379.00000
36.38000	343.00000
36.40200	391.00000
36.42400	374.00000
36.44600	380.00000
36.46800	397.00000
36.49000	384.00000
36.51200	393.00000
36.53400	364.00000
36.55600	364.00000
36.57800	382.00000
36.60000	394.00000
36.62200	387.00000
36.64400	392.00000
36.66600	387.00000
36.68800	399.00000
36.71000	377.00000
36.73200	379.00000
36.75400	365.00000
36.77600	366.00000
36.79800	392.00000
36.82000	387.00000
36.84200	382.00000
36.86400	409.00000
36.88600	422.00000
36.90800	442.00000
36.93000	430.00000
36.95200	481.00000
36.97400	509.00000
36.99600	647.00000
37.01800	860.00000
37.04000	1221.00000
37.06200	1511.00000
37.08400	1798.00000
37.10600	1996.00000
37.12800	1951.00000
37.15000	2027.00000
37.17200	1831.00000
37.19400	1458.00000
37.21600	1176.00000
37.23800	985.00000
37.26000	850.00000
37.28200	670.00000
37.30400	487.00000
37.32600	496.00000
37.34800	436.00000
37.37000	415.00000
37.39200	395.00000
37.41400	390.00000
37.43600	379.00000
37.45800	375.00000
37.48000	396.00000
37.50200	329.00000
37.52400	373.00000
37.54600	381.00000
37.56800	371.00000
37.59000	438.00000
37.61200	398.00000
37.63400	345.00000
37.65600	396.00000
37.67800	405.00000
37.70000	389.00000
37.72200	398.00000
37.74400	411.00000
37.76600	407.00000
37.78800	427.00000
37.81000	446.00000
37.83200	522.00000
37.85400	662.00000
37.87600	911.00000
37.89800	1316.00000
37.92000	1717.00000
37.94200	2106.00000
37.96400	2260.00000
37.98600	2272.00000
38.00800	2255.00000
38.03000	1789.00000
38.05200	1557.00000
38.07400	1208.00000
38.09600	1021.00000
38.11800	891.00000
38.14000	620.00000
38.16200	494.00000
38.18400	430.00000
38.20600	380.00000
38.22800	408.00000
38.25000	376.00000
38.27200	355.00000
38.29400	373.00000
38.31600	364.00000
38.33800	329.00000
38.36000	360.00000
38.38200	362.00000
38.40400	361.00000
38.42600	376.00000
38.44800	346.00000
38.47000	403.00000
38.49200	346.00000
38.51400	380.00000
38.53600	354.00000
38.55800	351.00000
38.58000	334.00000
38.60200	328.00000
38.62400	322.00000
38.64600	350.00000
38.66800	342.00000
38.69000	325.00000
38.71200	310.00000
38.73400	291.00000
38.75600	308.00000
38.77800	330.00000
38.80000	310.00000
38.82200	301.00000
38.84400	326.00000
38.86600	319.00000
38.88800	306.00000
38.91000	332.00000
38.93200	297.00000
38.95400	344.00000
38.97600	306.00000
38.99800	326.00000
39.02000	297.00000
39.04200	301.00000
39.06400	303.00000
39.08600	312.00000
39.10800	329.00000
39.13000	319.00000
39.15200	298.00000
39.17400	314.00000
39.19600	329.00000
39.21800	342.00000
39.24000	322.00000
39.26200	307.00000
39.28400	302.00000
39.30600	305.00000
39.32800	325.00000
39.35000	312.00000
39.37200	327.00000
39.39400	309.00000
39.41600	334.00000
39.43800	297.00000
39.46000	303.00000
39.48200	294.00000
39.50400	318.00000
39.52600	339.00000
39.54800	357.00000
39.57000	357.00000
39.59200	349.00000
39.61400	353.00000
39.63600	373.00000
39.65800	354.00000
39.68000	299.00000
39.70200	329.00000
39.72400	315.00000
39.74600	351.00000
39.76800	304.00000
39.79000	304.00000
39.81200	312.00000
39.83400	295.00000
39.85600	322.00000
39.87800	353.00000
39.90000	323.00000
39.92200	316.00000
39.94400	310.00000
39.96600	349.00000
39.98800	302.00000
40.01000	353.00000
40.03200	340.00000
40.05400	327.00000
40.07600	298.00000
40.09800	345.00000
40.12000	302.00000
40.14200	328.00000
40.16400	324.00000
40.18600	319.00000
40.20800	337.00000
40.23000	355.00000
40.25200	308.00000
40.27400	368.00000
40.29600	325.00000
40.31800	337.00000
40.34000	393.00000
40.36200	416.00000
40.38400	414.00000
40.40600	389.00000
40.42800	448.00000
40.45000	437.00000
40.47200	448.00000
40.49400	454.00000
40.51600	385.00000
40.53800	426.00000
40.56000	414.00000
40.58200	364.00000
40.60400	373.00000
40.62600	338.00000
40.64800	309.00000
40.67000	303.00000
40.69200	320.00000
40.71400	284.00000
40.73600	319.00000
40.75800	341.00000
40.78000	364.00000
40.80200	319.00000
40.82400	324.00000
40.84600	334.00000
40.86800	311.00000
40.89000	318.00000
40.91200	326.00000
40.93400	314.00000
40.95600	311.00000
40.97800	328.00000
41.00000	350.00000
41.02200	282.00000
41.04400	332.00000
41.06600	347.00000
41.08800	344.00000
41.11000	333.00000
41.13200	317.00000
41.15400	317.00000
41.17600	373.00000
41.19800	328.00000
41.22000	345.00000
41.24200	316.00000
41.26400	338.00000
41.28600	353.00000
41.30800	366.00000
41.33000	340.00000
41.35200	387.00000
41.37400	444.00000
41.39600	523.00000
41.41800	665.00000
41.44000	745.00000
41.46200	872.00000
41.48400	947.00000
41.50600	1003.00000
41.52800	1013.00000
41.55000	1005.00000
41.57200	807.00000
41.59400	673.00000
41.61600	624.00000
41.63800	562.00000
41.66000	489.00000
41.68200	450.00000
41.70400	401.00000
41.72600	341.00000
41.74800	350.00000
41.77000	322.00000
41.79200	364.00000
41.81400	337.00000
41.83600	347.00000
41.85800	367.00000
41.88000	407.00000
41.90200	455.00000
41.92400	510.00000
41.94600	571.00000
41.96800	566.00000
41.99000	567.00000
42.01200	656.00000
42.03400	620.00000
42.05600	566.00000
42.07800	452.00000
42.10000	469.00000
42.12200	436.00000
42.14400	418.00000
42.16600	377.00000
42.18800	367.00000
42.21000	380.00000
42.23200	376.00000
42.25400	355.00000
42.27600	377.00000
42.29800	414.00000
42.32000	366.00000
42.34200	412.00000
42.36400	456.00000
42.38600	556.00000
42.40800	693.00000
42.43000	983.00000
42.45200	1310.00000
42.47400	1603.00000
42.49600	1681.00000
42.51800	1846.00000
42.54000	1949.00000
42.56200	1922.00000
42.58400	1794.00000
42.60600	1532.00000
42.62800	1231.00000
42.65000	978.00000
42.67200	889.00000
42.69400	790.00000
42.71600	592.00000
42.73800	467.00000
42.76000	414.00000
42.78200	399.00000
42.80400	331.00000
42.82600	333.00000
42.84800	327.00000
42.87000	337.00000
42.89200	357.00000
42.91400	408.00000
42.93600	430.00000
42.95800	548.00000
42.98000	524.00000
43.00200	545.00000
43.02400	536.00000
43.04600	557.00000
43.06800	561.00000
43.09000	522.00000
43.11200	470.00000
43.13400	475.00000
43.15600	504.00000
43.17800	516.00000
43.20000	585.00000
43.22200	555.00000
43.24400	554.00000
43.26600	599.00000
43.28800	637.00000
43.31000	594.00000
43.33200	585.00000
43.35400	478.00000
43.37600	465.00000
43.39800	447.00000
43.42000	407.00000
43.44200	387.00000
43.46400	352.00000
43.48600	334.00000
43.50800	292.00000
43.53000	326.00000
43.55200	338.00000
43.57400	329.00000
43.59600	295.00000
43.61800	324.00000
43.64000	313.00000
43.66200	343.00000
43.68400	328.00000
43.70600	290.00000
43.72800	302.00000
43.75000	288.00000
43.77200	325.00000
43.79400	329.00000
43.81600	320.00000
43.83800	348.00000
43.86000	326.00000
43.88200	330.00000
43.90400	317.00000
43.92600	323.00000
43.94800	340.00000
43.97000	426.00000
43.99200	436.00000
44.01400	506.00000
44.03600	539.00000
44.05800	574.00000
44.08000	690.00000
44.10200	710.00000
44.12400	783.00000
44.14600	772.00000
44.16800	740.00000
44.19000	714.00000
44.21200	722.00000
44.23400	619.00000
44.25600	567.00000
44.27800	462.00000
44.30000	450.00000
44.32200	433.00000
44.34400	386.00000
44.36600	370.00000
44.38800	372.00000
44.41000	331.00000
44.43200	313.00000
44.45400	350.00000
44.47600	307.00000
44.49800	315.00000
44.52000	285.00000
44.54200	326.00000
44.56400	333.00000
44.58600	353.00000
44.60800	356.00000
44.63000	392.00000
44.65200	509.00000
44.67400	591.00000
44.69600	729.00000
44.71800	914.00000
44.74000	1058.00000
44.76200	1149.00000
44.78400	1267.00000
44.80600	1255.00000
44.82800	1301.00000
44.85000	1232.00000
44.87200	1021.00000
44.89400	823.00000
44.91600	744.00000
44.93800	625.00000
44.96000	641.00000
44.98200	537.00000
45.00400	426.00000
45.02600	344.00000
45.04800	335.00000
45.07000	308.00000
45.09200	289.00000
45.11400	294.00000
45.13600	274.00000
45.15800	292.00000
45.18000	320.00000
45.20200	292.00000
45.22400	309.00000
45.24600	276.00000
45.26800	261.00000
45.29000	299.00000
45.31200	273.00000
45.33400	309.00000
45.35600	298.00000
45.37800	282.00000
45.40000	262.00000
45.42200	267.00000
45.44400	268.00000
45.46600	294.00000
45.48800	302.00000
45.51000	293.00000
45.53200	291.00000
45.55400	294.00000
45.57600	290.00000
45.59800	268.00000
45.62000	266.00000
45.64200	270.00000
45.66400	279.00000
45.68600	277.00000
45.70800	295.00000
45.73000	298.00000
45.75200	266.00000
45.77400	295.00000
45.79600	288.00000
45.81800	291.00000
45.84000	307.00000
45.86200	330.00000
45.88400	269.00000
45.90600	283.00000
45.92800	259.00000
45.95000	284.00000
45.97200	264.00000
45.99400	273.00000
46.01600	276.00000
46.03800	276.00000
46.06000	253.00000
46.08200	285.00000
46.10400	276.00000
46.12600	278.00000
46.14800	271.00000
46.17000	275.00000
46.19200	249.00000
46.21400	296.00000
46.23600	270.00000
46.25800	280.00000
46.28000	271.00000
46.30200	262.00000
46.32400	294.00000
46.34600	251.00000
46.36800	307.00000
46.39000	289.00000
46.41200	286.00000
46.43400	255.00000
46.45600	289.00000
46.47800	268.00000
46.50000	299.00000
46.52200	293.00000
46.54400	294.00000
46.56600	283.00000
46.58800	280.00000
46.61000	296.00000
46.63200	328.00000
46.65400	365.00000
46.67600	413.00000
46.69800	437.00000
46.72000	435.00000
46.74200	437.00000
46.76400	471.00000
46.78600	480.00000
46.80800	405.00000
46.83000	416.00000
46.85200	344.00000
46.87400	360.00000
46.89600	360.00000
46.91800	360.00000
46.94000	307.00000
46.96200	322.00000
46.98400	281.00000
47.00600	307.00000
47.02800	330.00000
47.05000	258.00000
47.07200	297.00000
47.09400	315.00000
47.11600	279.00000
47.13800	276.00000
47.16000	306.00000
47.18200	275.00000
47.20400	293.00000
47.22600	299.00000
47.24800	291.00000
47.27000	302.00000
47.29200	265.00000
47.31400	297.00000
47.33600	281.00000
47.35800	304.00000
47.38000	313.00000
47.40200	269.00000
47.42400	274.00000
47.44600	254.00000
47.46800	268.00000
47.49000	285.00000
47.51200	252.00000
47.53400	256.00000
47.55600	288.00000
47.57800	261.00000
47.60000	281.00000
47.62200	257.00000
47.64400	299.00000
47.66600	265.00000
47.68800	252.00000
47.71000	272.00000
47.73200	273.00000
47.75400	306.00000
47.77600	255.00000
47.79800	267.00000
47.82000	265.00000
47.84200	272.00000
47.86400	279.00000
47.88600	268.00000
47.90800	276.00000
47.93000	266.00000
47.95200	252.00000
47.97400	287.00000
47.99600	306.00000
48.01800	288.00000
48.04000	321.00000
48.06200	290.00000
48.08400	296.00000
48.10600	286.00000
48.12800	318.00000
48.15000	361.00000
48.17200	423.00000
48.19400	578.00000
48.21600	723.00000
48.23800	749.00000
48.26000	812.00000
48.28200	832.00000
48.30400	935.00000
48.32600	954.00000
48.34800	833.00000
48.37000	685.00000
48.39200	598.00000
48.41400	529.00000
48.43600	506.00000
48.45800	533.00000
48.48000	430.00000
48.50200	379.00000
48.52400	320.00000
48.54600	294.00000
48.56800	289.00000
48.59000	287.00000
48.61200	285.00000
48.63400	277.00000
48.65600	284.00000
48.67800	262.00000
48.70000	299.00000
48.72200	270.00000
48.74400	253.00000
48.76600	290.00000
48.78800	303.00000
48.81000	275.00000
48.83200	262.00000
48.85400	303.00000
48.87600	287.00000
48.89800	272.00000
48.92000	280.00000
48.94200	307.00000
48.96400	273.00000
48.98600	293.00000
49.00800	253.00000
49.03000	254.00000
49.05200	281.00000
49.07400	232.00000
49.09600	260.00000
49.11800	305.00000
49.14000	297.00000
49.16200	282.00000
49.18400	275.00000
49.20600	267.00000
49.22800	265.00000
49.25000	269.00000
49.27200	255.00000
49.29400	282.00000
49.31600	276.00000
49.33800	250.00000
49.36000	280.00000
49.38200	269.00000
49.40400	268.00000
49.42600	274.00000
49.44800	270.00000
49.47000	303.00000
49.49200	288.00000
49.51400	298.00000
49.53600	274.00000
49.55800	270.00000
49.58000	312.00000
49.60200	309.00000
49.62400	313.00000
49.64600	313.00000
49.66800	311.00000
49.69000	358.00000
49.71200	340.00000
49.73400	368.00000
49.75600	402.00000
49.77800	356.00000
49.80000	343.00000
49.82200	374.00000
49.84400	408.00000
49.86600	428.00000
49.88800	475.00000
49.91000	460.00000
49.93200	537.00000
49.95400	607.00000
49.97600	616.00000
49.99800	626.00000
50.02000	685.00000
50.04200	649.00000
50.06400	525.00000
50.08600	465.00000
50.10800	385.00000
50.13000	403.00000
50.15200	428.00000
50.17400	398.00000
50.19600	342.00000
50.21800	350.00000
50.24000	321.00000
50.26200	293.00000
50.28400	326.00000
50.30600	325.00000
50.32800	343.00000
50.35000	312.00000
50.37200	353.00000
50.39400	357.00000
50.41600	314.00000
50.43800	334.00000
50.46000	334.00000
50.48200	324.00000
50.50400	319.00000
50.52600	310.00000
50.54800	395.00000
50.57000	341.00000
50.59200	355.00000
50.61400	381.00000
50.63600	391.00000
50.65800	544.00000
50.68000	759.00000
50.70200	966.00000
50.72400	1051.00000
50.74600	1109.00000
50.76800	1291.00000
50.79000	1289.00000
50.81200	1340.00000
50.83400	1186.00000
50.85600	973.00000
50.87800	826.00000
50.90000	749.00000
50.92200	760.00000
50.94400	715.00000
50.96600	655.00000
50.98800	516.00000
51.01000	475.00000
51.03200	406.00000
51.05400	373.00000
51.07600	348.00000
51.09800	353.00000
51.12000	309.00000
51.14200	316.00000
51.16400	289.00000
51.18600	289.00000
51.20800	290.00000
51.23000	305.00000
51.25200	299.00000
51.27400	308.00000
51.29600	307.00000
51.31800	324.00000
51.34000	384.00000
51.36200	399.00000
51.38400	402.00000
51.40600	464.00000
51.42800	421.00000
51.45000	428.00000
51.47200	398.00000
51.49400	413.00000
51.51600	364.00000
51.53800	370.00000
51.56000	349.00000
51.58200	296.00000
51.60400	336.00000
51.62600	319.00000
51.64800	336.00000
51.67000	285.00000
51.69200	289.00000
51.71400	286.00000
51.73600	294.00000
51.75800	281.00000
51.78000	302.00000
51.80200	226.00000
51.82400	288.00000
51.84600	270.00000
51.86800	273.00000
51.89000	248.00000
51.91200	260.00000
51.93400	275.00000
51.95600	269.00000
51.97800	287.00000
52.00000	254.00000
52.02200	262.00000
52.04400	286.00000
52.06600	268.00000
52.08800	243.00000
52.11000	282.00000
52.13200	283.00000
52.15400	254.00000
52.17600	313.00000
52.19800	322.00000
52.22000	347.00000
52.24200	396.00000
52.26400	423.00000
52.28600	371.00000
52.30800	434.00000
52.33000	482.00000
52.35200	429.00000
52.37400	428.00000
52.39600	430.00000
52.41800	377.00000
52.44000	388.00000
52.46200	378.00000
52.48400	350.00000
52.50600	309.00000
52.52800	308.00000
52.55000	318.00000
52.57200	331.00000
52.59400	291.00000
52.61600	314.00000
52.63800	358.00000
52.66000	381.00000
52.68200	413.00000
52.70400	423.00000
52.72600	440.00000
52.74800	415.00000
52.77000	440.00000
52.79200	461.00000
52.81400	432.00000
52.83600	350.00000
52.85800	366.00000
52.88000	364.00000
52.90200	321.00000
52.92400	327.00000
52.94600	346.00000
52.96800	321.00000
52.99000	319.00000
53.01200	268.00000
53.03400	275.00000
53.05600	279.00000
53.07800	267.00000
53.10000	273.00000
53.12200	294.00000
53.14400	264.00000
53.16600	266.00000
53.18800	283.00000
53.21000	282.00000
53.23200	258.00000
53.25400	288.00000
53.27600	292.00000
53.29800	263.00000
53.32000	285.00000
53.34200	268.00000
53.36400	307.00000
53.38600	278.00000
53.40800	270.00000
53.43000	272.00000
53.45200	262.00000
53.47400	256.00000
53.49600	259.00000
53.51800	246.00000
53.54000	231.00000
53.56200	281.00000
53.58400	258.00000
53.60600	272.00000
53.62800	229.00000
53.65000	314.00000
53.67200	273.00000
53.69400	270.00000
53.71600	252.00000
53.73800	282.00000
53.76000	290.00000
53.78200	294.00000
53.80400	282.00000
53.82600	282.00000
53.84800	288.00000
53.87000	293.00000
53.89200	302.00000
53.91400	298.00000
53.93600	296.00000
53.95800	293.00000
53.98000	331.00000
54.00200	377.00000
54.02400	428.00000
54.04600	521.00000
54.06800	596.00000
54.09000	578.00000
54.11200	655.00000
54.13400	694.00000
54.15600	737.00000
54.17800	615.00000
54.20000	660.00000
54.22200	635.00000
54.24400	607.00000
54.26600	547.00000
54.28800	509.00000
54.31000	473.00000
54.33200	452.00000
54.35400	384.00000
54.37600	364.00000
54.39800	349.00000
54.42000	325.00000
54.44200	315.00000
54.46400	315.00000
54.48600	283.00000
54.50800	278.00000
54.53000	299.00000
54.55200	264.00000
54.57400	294.00000
54.59600	260.00000
54.61800	258.00000
54.64000	274.00000
54.66200	305.00000
54.68400	264.00000
54.70600	311.00000
54.72800	275.00000
54.75000	273.00000
54.77200	267.00000
54.79400	269.00000
54.81600	259.00000
54.83800	263.00000
54.86000	276.00000
54.88200	284.00000
54.90400	291.00000
54.92600	247.00000
54.94800	266.00000
54.97000	252.00000
54.99200	270.00000
55.01400	286.00000
55.03600	252.00000
55.05800	254.00000
55.08000	269.00000
55.10200	268.00000
55.12400	261.00000
55.14600	262.00000
55.16800	275.00000
55.19000	255.00000
55.21200	276.00000
55.23400	282.00000
55.25600	298.00000
55.27800	274.00000
55.30000	281.00000
55.32200	312.00000
55.34400	304.00000
55.36600	354.00000
55.38800	374.00000
55.41000	428.00000
55.43200	443.00000
55.45400	497.00000
55.47600	525.00000
55.49800	524.00000
55.52000	554.00000
55.54200	601.00000
55.56400	566.00000
55.58600	554.00000
55.60800	434.00000
55.63000	379.00000
55.65200	359.00000
55.67400	411.00000
55.69600	384.00000
55.71800	396.00000
55.74000	332.00000
55.76200	320.00000
55.78400	292.00000
55.80600	259.00000
55.82800	283.00000
55.85000	258.00000
55.87200	289.00000
55.89400	280.00000
55.91600	266.00000
55.93800	302.00000
55.96000	277.00000
55.98200	255.00000
56.00400	273.00000
56.02600	265.00000
56.04800	260.00000
56.07000	276.00000
56.09200	292.00000
56.11400	255.00000
56.13600	301.00000
56.15800	282.00000
56.18000	253.00000
56.20200	280.00000
56.22400	275.00000
56.24600	281.00000
56.26800	322.00000
56.29000	291.00000
56.31200	320.00000
56.33400	331.00000
56.35600	351.00000
56.37800	353.00000
56.40000	522.00000
56.42200	622.00000
56.44400	650.00000
56.46600	724.00000
56.48800	725.00000
56.51000	769.00000
56.53200	832.00000
56.55400	805.00000
56.57600	775.00000
56.59800	638.00000
56.62000	573.00000
56.64200	530.00000
56.66400	506.00000
56.68600	524.00000
56.70800	535.00000
56.73000	477.00000
56.75200	361.00000
56.77400	323.00000
56.79600	296.00000
56.81800	323.00000
56.84000	298.00000
56.86200	288.00000
56.88400	273.00000
56.90600	287.00000
56.92800	295.00000
56.95000	295.00000
56.97200	278.00000
56.99400	267.00000
57.01600	276.00000
57.03800	279.00000
57.06000	267.00000
57.08200	269.00000
57.10400	288.00000
57.12600	283.00000
57.14800	275.00000
57.17000	279.00000
57.19200	290.00000
57.21400	278.00000
57.23600	281.00000
57.25800	246.00000
57.28000	252.00000
57.30200	263.00000
57.32400	255.00000
57.34600	250.00000
57.36800	286.00000
57.39000	262.00000
57.41200	259.00000
57.43400	268.00000
57.45600	264.00000
57.47800	244.00000
57.50000	271.00000
57.52200	269.00000
57.54400	250.00000
57.56600	270.00000
57.58800	260.00000
57.61000	264.00000
57.63200	261.00000
57.65400	267.00000
57.67600	260.00000
57.69800	289.00000
57.72000	248.00000
57.74200	276.00000
57.76400	282.00000
57.78600	293.00000
57.80800	265.00000
57.83000	268.00000
57.85200	294.00000
57.87400	279.00000
57.89600	259.00000
57.91800	266.00000
57.94000	243.00000
57.96200	257.00000
57.98400	283.00000
58.00600	273.00000
58.02800	257.00000
58.05000	303.00000
58.07200	308.00000
58.09400	394.00000
58.11600	427.00000
58.13800	395.00000
58.16000	419.00000
58.18200	412.00000
58.20400	470.00000
58.22600	488.00000
58.24800	509.00000
58.27000	497.00000
58.29200	457.00000
58.31400	483.00000
58.33600	467.00000
58.35800	451.00000
58.38000	444.00000
58.40200	435.00000
58.42400	434.00000
58.44600	381.00000
58.46800	373.00000
58.49000	358.00000
58.51200	334.00000
58.53400	315.00000
58.55600	256.00000
58.57800	304.00000
58.60000	276.00000
58.62200	300.00000
58.64400	267.00000
58.66600	280.00000
58.68800	271.00000
58.71000	284.00000
58.73200	272.00000
58.75400	266.00000
58.77600	273.00000
58.79800	267.00000
58.82000	260.00000
58.84200	268.00000
58.86400	255.00000
58.88600	268.00000
58.90800	288.00000
58.93000	273.00000
58.95200	259.00000
58.97400	285.00000
58.99600	302.00000
59.01800	286.00000
59.04000	292.00000
59.06200	280.00000
59.08400	272.00000
59.10600	294.00000
59.12800	294.00000
59.15000	335.00000
59.17200	395.00000
59.19400	425.00000
59.21600	475.00000
59.23800	484.00000
59.26000	496.00000
59.28200	497.00000
59.30400	501.00000
59.32600	472.00000
59.34800	435.00000
59.37000	404.00000
59.39200	364.00000
59.41400	356.00000
59.43600	364.00000
59.45800	371.00000
59.48000	406.00000
59.50200	308.00000
59.52400	322.00000
59.54600	284.00000
59.56800	304.00000
59.59000	303.00000
59.61200	260.00000
59.63400	275.00000
59.65600	257.00000
59.67800	307.00000
59.70000	281.00000
59.72200	291.00000
59.74400	288.00000
59.76600	283.00000
59.78800	269.00000
59.81000	276.00000
59.83200	267.00000
59.85400	293.00000
59.87600	262.00000
59.89800	267.00000
59.92000	279.00000
59.94200	290.00000
59.96400	276.00000
59.98600	282.00000
60.00800	285.00000
60.03000	282.00000
60.05200	257.00000
60.07400	244.00000
60.09600	281.00000
60.11800	273.00000
60.14000	283.00000
60.16200	268.00000
60.18400	289.00000
60.20600	266.00000
60.22800	276.00000
60.25000	242.00000
60.27200	294.00000
60.29400	308.00000
60.31600	287.00000
60.33800	300.00000
60.36000	266.00000
60.38200	285.00000
60.40400	317.00000
60.42600	341.00000
60.44800	381.00000
60.47000	436.00000
60.49200	463.00000
60.51400	516.00000
60.53600	536.00000
60.55800	562.00000
60.58000	586.00000
60.60200	583.00000
60.62400	668.00000
60.64600	559.00000
60.66800	551.00000
60.69000	478.00000
60.71200	435.00000
60.73400	420.00000
60.75600	425.00000
60.77800	425.00000
60.80000	388.00000
60.82200	382.00000
60.84400	332.00000
60.86600	312.00000
60.88800	283.00000
60.91000	276.00000
60.93200	307.00000
60.95400	285.00000
60.97600	277.00000
60.99800	252.00000
61.02000	283.00000
61.04200	278.00000
61.06400	261.00000
61.08600	264.00000
61.10800	276.00000
61.13000	284.00000
61.15200	282.00000
61.17400	275.00000
61.19600	272.00000
61.21800	281.00000
61.24000	284.00000
61.26200	273.00000
61.28400	289.00000
61.30600	300.00000
61.32800	322.00000
61.35000	323.00000
61.37200	308.00000
61.39400	304.00000
61.41600	312.00000
61.43800	307.00000
61.46000	326.00000
61.48200	328.00000
61.50400	334.00000
61.52600	331.00000
61.54800	309.00000
61.57000	335.00000
61.59200	332.00000
61.61400	364.00000
61.63600	421.00000
61.65800	463.00000
61.68000	514.00000
61.70200	577.00000
61.72400	652.00000
61.74600	728.00000
61.76800	766.00000
61.79000	835.00000
61.81200	833.00000
61.83400	791.00000
61.85600	711.00000
61.87800	648.00000
61.90000	613.00000
61.92200	541.00000
61.94400	541.00000
61.96600	504.00000
61.98800	465.00000
62.01000	409.00000
62.03200	389.00000
62.05400	362.00000
62.07600	348.00000
62.09800	251.00000
62.12000	286.00000
62.14200	294.00000
62.16400	281.00000
62.18600	274.00000
62.20800	286.00000
62.23000	304.00000
62.25200	283.00000
62.27400	252.00000
62.29600	315.00000
62.31800	285.00000
62.34000	287.00000
62.36200	310.00000
62.38400	301.00000
62.40600	281.00000
62.42800	276.00000
62.45000	274.00000
62.47200	262.00000
62.49400	264.00000
62.51600	272.00000
62.53800	319.00000
62.56000	283.00000
62.58200	280.00000
62.60400	236.00000
62.62600	262.00000
62.64800	251.00000
62.67000	277.00000
62.69200	284.00000
62.71400	265.00000
62.73600	251.00000
62.75800	241.00000
62.78000	284.00000
62.80200	253.00000
62.82400	254.00000
62.84600	279.00000
62.86800	303.00000
62.89000	305.00000
62.91200	305.00000
62.93400	305.00000
62.95600	285.00000
62.97800	353.00000
63.00000	303.00000
63.02200	331.00000
63.04400	316.00000
63.06600	322.00000
63.08800	291.00000
63.11000	299.00000
63.13200	330.00000
63.15400	306.00000
63.17600	347.00000
63.19800	320.00000
63.22000	327.00000
63.24200	368.00000
63.26400	349.00000
63.28600	358.00000
63.30800	350.00000
63.33000	340.00000
63.35200	401.00000
63.37400	349.00000
63.39600	380.00000
63.41800	366.00000
63.44000	397.00000
63.46200	407.00000
63.48400	425.00000
63.50600	378.00000
63.52800	395.00000
63.55000	359.00000
63.57200	331.00000
63.59400	299.00000
63.61600	290.00000
63.63800	279.00000
63.66000	342.00000
63.68200	291.00000
63.70400	319.00000
63.72600	288.00000
63.74800	268.00000
63.77000	239.00000
63.79200	228.00000
63.81400	257.00000
63.83600	246.00000
63.85800	273.00000
63.88000	274.00000
63.90200	269.00000
63.92400	275.00000
63.94600	284.00000
63.96800	280.00000
63.99000	273.00000
64.01200	242.00000
64.03400	250.00000
64.05600	268.00000
64.07800	262.00000
64.10000	253.00000
64.12200	255.00000
64.14400	240.00000
64.16600	251.00000
64.18800	275.00000
64.21000	254.00000
64.23200	254.00000
64.25400	233.00000
64.27600	213.00000
64.29800	276.00000
64.32000	266.00000
64.34200	225.00000
64.36400	286.00000
64.38600	242.00000
64.40800	256.00000
64.43000	271.00000
64.45200	236.00000
64.47400	278.00000
64.49600	235.00000
64.51800	264.00000
64.54000	287.00000
64.56200	243.00000
64.58400	242.00000
64.60600	260.00000
64.62800	281.00000
64.65000	232.00000
64.67200	245.00000
64.69400	241.00000
64.71600	257.00000
64.73800	254.00000
64.76000	244.00000
64.78200	266.00000
64.80400	251.00000
64.82600	264.00000
64.84800	252.00000
64.87000	232.00000
64.89200	257.00000
64.91400	229.00000
64.93600	259.00000
64.95800	244.00000
64.98000	252.00000
65.00200	283.00000
65.02400	316.00000
65.04600	330.00000
65.06800	337.00000
65.09000	335.00000
65.11200	333.00000
65.13400	368.00000
65.15600	373.00000
65.17800	359.00000
65.20000	375.00000
65.22200	370.00000
65.24400	408.00000
65.26600	389.00000
65.28800	363.00000
65.31000	359.00000
65.33200	307.00000
65.35400	318.00000
65.37600	295.00000
65.39800	295.00000
65.42000	282.00000
65.44200	296.00000
65.46400	287.00000
65.48600	292.00000
65.50800	287.00000
65.53000	302.00000
65.55200	253.00000
65.57400	239.00000
65.59600	212.00000
65.61800	257.00000
65.64000	262.00000
65.66200	255.00000
65.68400	278.00000
65.70600	267.00000
65.72800	268.00000
65.75000	265.00000
65.77200	248.00000
65.79400	275.00000
65.81600	243.00000
65.83800	232.00000
65.86000	265.00000
65.88200	235.00000
65.90400	234.00000
65.92600	269.00000
65.94800	291.00000
65.97000	305.00000
65.99200	303.00000
66.01400	328.00000
66.03600	330.00000
66.05800	376.00000
66.08000	323.00000
66.10200	386.00000
66.12400	345.00000
66.14600	333.00000
66.16800	272.00000
66.19000	321.00000
66.21200	315.00000
66.23400	305.00000
66.25600	360.00000
66.27800	321.00000
66.30000	312.00000
66.32200	304.00000
66.34400	310.00000
66.36600	321.00000
66.38800	277.00000
66.41000	286.00000
66.43200	280.00000
66.45400	282.00000
66.47600	261.00000
66.49800	270.00000
66.52000	279.00000
66.54200	295.00000
66.56400	242.00000
66.58600	254.00000
66.60800	284.00000
66.63000	250.00000
66.65200	241.00000
66.67400	256.00000
66.69600	262.00000
66.71800	282.00000
66.74000	315.00000
66.76200	349.00000
66.78400	360.00000
66.80600	410.00000
66.82800	418.00000
66.85000	428.00000
66.87200	469.00000
66.89400	498.00000
66.91600	530.00000
66.93800	484.00000
66.96000	439.00000
66.98200	397.00000
67.00400	333.00000
67.02600	329.00000
67.04800	364.00000
67.07000	349.00000
67.09200	378.00000
67.11400	369.00000
67.13600	354.00000
67.15800	273.00000
67.18000	299.00000
67.20200	282.00000
67.22400	271.00000
67.24600	305.00000
67.26800	320.00000
67.29000	297.00000
67.31200	359.00000
67.33400	346.00000
67.35600	333.00000
67.37800	355.00000
67.40000	331.00000
67.42200	341.00000
67.44400	308.00000
67.46600	308.00000
67.48800	289.00000
67.51000	294.00000
67.53200	348.00000
67.55400	325.00000
67.57600	318.00000
67.59800	300.00000
67.62000	280.00000
67.64200	269.00000
67.66400	269.00000
67.68600	277.00000
67.70800	257.00000
67.73000	251.00000
67.75200	246.00000
67.77400	249.00000
67.79600	250.00000
67.81800	255.00000
67.84000	251.00000
67.86200	232.00000
67.88400	223.00000
67.90600	241.00000
67.92800	235.00000
67.95000	247.00000
67.97200	223.00000
67.99400	247.00000
68.01600	258.00000
68.03800	203.00000
68.06000	224.00000
68.08200	225.00000
68.10400	264.00000
68.12600	250.00000
68.14800	217.00000
68.17000	231.00000
68.19200	234.00000
68.21400	263.00000
68.23600	244.00000
68.25800	235.00000
68.28000	243.00000
68.30200	243.00000
68.32400	221.00000
68.34600	248.00000
68.36800	216.00000
68.39000	216.00000
68.41200	243.00000
68.43400	247.00000
68.45600	235.00000
68.47800	257.00000
68.50000	229.00000
68.52200	254.00000
68.54400	260.00000
68.56600	239.00000
68.58800	264.00000
68.61000	254.00000
68.63200	256.00000
68.65400	253.00000
68.67600	238.00000
68.69800	286.00000
68.72000	260.00000
68.74200	249.00000
68.76400	216.00000
68.78600	233.00000
68.80800	252.00000
68.83000	230.00000
68.85200	240.00000
68.87400	220.00000
68.89600	226.00000
68.91800	226.00000
68.94000	218.00000
68.96200	254.00000
68.98400	224.00000
69.00600	268.00000
69.02800	238.00000
69.05000	261.00000
69.07200	249.00000
69.09400	256.00000
69.11600	249.00000
69.13800	272.00000
69.16000	257.00000
69.18200	250.00000
69.20400	275.00000
69.22600	269.00000
69.24800	286.00000
69.27000	296.00000
69.29200	320.00000
69.31400	291.00000
69.33600	296.00000
69.35800	314.00000
69.38000	330.00000
69.40200	290.00000
69.42400	306.00000
69.44600	256.00000
69.46800	264.00000
69.49000	272.00000
69.51200	274.00000
69.53400	288.00000
69.55600	290.00000
69.57800	288.00000
69.60000	299.00000
69.62200	294.00000
69.64400	274.00000
69.66600	301.00000
69.68800	279.00000
69.71000	280.00000
69.73200	324.00000
69.75400	290.00000
69.77600	334.00000
69.79800	304.00000
69.82000	267.00000
69.84200	281.00000
69.86400	267.00000
69.88600	253.00000
69.90800	333.00000
69.93000	278.00000
69.95200	322.00000
69.97400	292.00000
69.99600	317.00000
70.01800	309.00000
70.04000	321.00000
70.06200	334.00000
70.08400	299.00000
70.10600	280.00000
70.12800	272.00000
70.15000	238.00000
70.17200	249.00000
70.19400	254.00000
70.21600	280.00000
70.23800	276.00000
70.26000	283.00000
70.28200	285.00000
70.30400	314.00000
70.32600	336.00000
70.34800	299.00000
70.37000	307.00000
70.39200	337.00000
70.41400	343.00000
70.43600	317.00000
70.45800	294.00000
70.48000	268.00000
70.50200	287.00000
70.52400	294.00000
70.54600	320.00000
70.56800	317.00000
70.59000	332.00000
70.61200	345.00000
70.63400	301.00000
70.65600	348.00000
70.67800	342.00000
70.70000	349.00000
70.72200	303.00000
70.74400	306.00000
70.76600	265.00000
70.78800	255.00000
70.81000	222.00000
70.83200	261.00000
70.85400	279.00000
70.87600	262.00000
70.89800	265.00000
70.92000	238.00000
70.94200	243.00000
70.96400	236.00000
70.98600	245.00000
71.00800	190.00000
71.03000	246.00000
71.05200	234.00000
71.07400	240.00000
71.09600	220.00000
71.11800	240.00000
71.14000	233.00000
71.16200	225.00000
71.18400	213.00000
71.20600	225.00000
71.22800	243.00000
71.25000	242.00000
71.27200	227.00000
71.29400	252.00000
71.31600	241.00000
71.33800	244.00000
71.36000	241.00000
71.38200	246.00000
71.40400	239.00000
71.42600	219.00000
71.44800	238.00000
71.47000	238.00000
71.49200	240.00000
71.51400	255.00000
71.53600	254.00000
71.55800	246.00000
71.58000	246.00000
71.60200	281.00000
71.62400	293.00000
71.64600	334.00000
71.66800	297.00000
71.69000	308.00000
71.71200	291.00000
71.73400	341.00000
71.75600	352.00000
71.77800	325.00000
71.80000	286.00000
71.82200	283.00000
71.84400	240.00000
71.86600	251.00000
71.88800	276.00000
71.91000	251.00000
71.93200	291.00000
71.95400	291.00000
71.97600	285.00000
71.99800	256.00000
72.02000	261.00000
72.04200	272.00000
72.06400	242.00000
72.08600	230.00000
72.10800	247.00000
72.13000	238.00000
72.15200	220.00000
72.17400	259.00000
72.19600	256.00000
72.21800	253.00000
72.24000	233.00000
72.26200	222.00000
72.28400	242.00000
72.30600	242.00000
72.32800	232.00000
72.35000	238.00000
72.37200	268.00000
72.39400	242.00000
72.41600	223.00000
72.43800	264.00000
72.46000	208.00000
72.48200	257.00000
72.50400	225.00000
72.52600	240.00000
72.54800	232.00000
72.57000	239.00000
72.59200	223.00000
72.61400	208.00000
72.63600	216.00000
72.65800	241.00000
72.68000	226.00000
72.70200	232.00000
72.72400	250.00000
72.74600	224.00000
72.76800	202.00000
72.79000	256.00000
72.81200	230.00000
72.83400	234.00000
72.85600	229.00000
72.87800	245.00000
72.90000	208.00000
72.92200	250.00000
72.94400	224.00000
72.96600	232.00000
72.98800	217.00000
73.01000	252.00000
73.03200	230.00000
73.05400	241.00000
73.07600	241.00000
73.09800	218.00000
73.12000	266.00000
73.14200	288.00000
73.16400	305.00000
73.18600	297.00000
73.20800	339.00000
73.23000	363.00000
73.25200	417.00000
73.27400	413.00000
73.29600	424.00000
73.31800	391.00000
73.34000	382.00000
73.36200	325.00000
73.38400	300.00000
73.40600	335.00000
73.42800	317.00000
73.45000	323.00000
73.47200	319.00000
73.49400	338.00000
73.51600	340.00000
73.53800	345.00000
73.56000	265.00000
73.58200	266.00000
73.60400	287.00000
73.62600	234.00000
73.64800	260.00000
73.67000	229.00000
73.69200	229.00000
73.71400	243.00000
73.73600	227.00000
73.75800	225.00000
73.78000	212.00000
73.80200	229.00000
73.82400	235.00000
73.84600	237.00000
73.86800	229.00000
73.89000	219.00000
73.91200	227.00000
73.93400	253.00000
73.95600	247.00000
73.97800	227.00000
74.00000	220.00000
74.02200	217.00000
74.04400	221.00000
74.06600	231.00000
74.08800	245.00000
74.11000	239.00000
74.13200	240.00000
74.15400	225.00000
74.17600	244.00000
74.19800	206.00000
74.22000	255.00000
74.24200	251.00000
74.26400	231.00000
74.28600	258.00000
74.30800	279.00000
74.33000	283.00000
74.35200	347.00000
74.37400	315.00000
74.39600	343.00000
74.41800	259.00000
74.44000	274.00000
74.46200	253.00000
74.48400	260.00000
74.50600	255.00000
74.52800	268.00000
74.55000	265.00000
74.57200	275.00000
74.59400	291.00000
74.61600	278.00000
74.63800	290.00000
74.66000	281.00000
74.68200	270.00000
74.70400	260.00000
74.72600	279.00000
74.74800	246.00000
74.77000	287.00000
74.79200	310.00000
74.81400	264.00000
74.83600	245.00000
74.85800	231.00000
74.88000	253.00000
74.90200	267.00000
74.92400	278.00000
74.94600	233.00000
74.96800	254.00000
74.99000	267.00000
75.01200	248.00000
75.03400	237.00000
75.05600	226.00000
75.07800	247.00000
75.10000	237.00000
75.12200	230.00000
75.14400	254.00000
75.16600	256.00000
75.18800	277.00000
75.21000	310.00000
75.23200	272.00000
75.25400	298.00000
75.27600	328.00000
75.29800	369.00000
75.32000	391.00000
75.34200	352.00000
75.36400	394.00000
75.38600	371.00000
75.40800	276.00000
75.43000	303.00000
75.45200	300.00000
75.47400	336.00000
75.49600	317.00000
75.51800	349.00000
75.54000	348.00000
75.56200	368.00000
75.58400	373.00000
75.60600	400.00000
75.62800	355.00000
75.65000	321.00000
75.67200	246.00000
75.69400	263.00000
75.71600	252.00000
75.73800	233.00000
75.76000	258.00000
75.78200	268.00000
75.80400	245.00000
75.82600	258.00000
75.84800	261.00000
75.87000	271.00000
75.89200	257.00000
75.91400	266.00000
75.93600	267.00000
75.95800	264.00000
75.98000	233.00000
76.00200	265.00000
76.02400	248.00000
76.04600	231.00000
76.06800	225.00000
76.09000	208.00000
76.11200	227.00000
76.13400	223.00000
76.15600	218.00000
76.17800	233.00000
76.20000	236.00000
76.22200	233.00000
76.24400	227.00000
76.26600	238.00000
76.28800	242.00000
76.31000	219.00000
76.33200	218.00000
76.35400	251.00000
76.37600	248.00000
76.39800	211.00000
76.42000	265.00000
76.44200	249.00000
76.46400	256.00000
76.48600	237.00000
76.50800	272.00000
76.53000	266.00000
76.55200	227.00000
76.57400	232.00000
76.59600	242.00000
76.61800	244.00000
76.64000	250.00000
76.66200	252.00000
76.68400	265.00000
76.70600	262.00000
76.72800	285.00000
76.75000	274.00000
76.77200	279.00000
76.79400	290.00000
76.81600	293.00000
76.83800	309.00000
76.86000	326.00000
76.88200	332.00000
76.90400	329.00000
76.92600	302.00000
76.94800	281.00000
76.97000	268.00000
76.99200	243.00000
77.01400	254.00000
77.03600	266.00000
77.05800	230.00000
77.08000	275.00000
77.10200	241.00000
77.12400	291.00000
77.14600	282.00000
77.16800	242.00000
77.19000	211.00000
77.21200	205.00000
77.23400	231.00000
77.25600	222.00000
77.27800	221.00000
77.30000	201.00000
77.32200	220.00000
77.34400	242.00000
77.36600	248.00000
77.38800	252.00000
77.41000	206.00000
77.43200	244.00000
77.45400	262.00000
77.47600	261.00000
77.49800	252.00000
77.52000	245.00000
77.54200	242.00000
77.56400	258.00000
77.58600	245.00000
77.60800	254.00000
77.63000	231.00000
77.65200	217.00000
77.67400	235.00000
77.69600	259.00000
77.71800	232.00000
77.74000	263.00000
77.76200	211.00000
77.78400	263.00000
77.80600	258.00000
77.82800	230.00000
77.85000	204.00000
77.87200	222.00000
77.89400	224.00000
77.91600	205.00000
77.93800	223.00000
77.96000	219.00000
77.98200	212.00000
78.00400	222.00000
78.02600	209.00000
78.04800	211.00000
78.07000	210.00000
78.09200	241.00000
78.11400	245.00000
78.13600	263.00000
78.15800	257.00000
78.18000	269.00000
78.20200	239.00000
78.22400	274.00000
78.24600	283.00000
78.26800	284.00000
78.29000	281.00000
78.31200	276.00000
78.33400	241.00000
78.35600	254.00000
78.37800	255.00000
78.40000	240.00000
78.42200	237.00000
78.44400	253.00000
78.46600	259.00000
78.48800	252.00000
78.51000	218.00000
78.53200	248.00000
78.55400	248.00000
78.57600	248.00000
78.59800	201.00000
78.62000	206.00000
78.64200	257.00000
78.66400	234.00000
78.68600	219.00000
78.70800	220.00000
78.73000	224.00000
78.75200	207.00000
78.77400	207.00000
78.79600	228.00000
78.81800	233.00000
78.84000	249.00000
78.86200	259.00000
78.88400	214.00000
78.90600	210.00000
78.92800	246.00000
78.95000	265.00000
78.97200	278.00000
78.99400	289.00000
79.01600	296.00000
79.03800	310.00000
79.06000	324.00000
79.08200	277.00000
79.10400	264.00000
79.12600	275.00000
79.14800	282.00000
79.17000	263.00000
79.19200	280.00000
79.21400	265.00000
79.23600	262.00000
79.25800	241.00000
79.28000	278.00000
79.30200	285.00000
79.32400	301.00000
79.34600	277.00000
79.36800	262.00000
79.39000	231.00000
79.41200	262.00000
79.43400	251.00000
79.45600	252.00000
79.47800	270.00000
79.50000	300.00000
79.52200	259.00000
79.54400	254.00000
79.56600	232.00000
79.58800	251.00000
79.61000	213.00000
79.63200	237.00000
79.65400	238.00000
79.67600	226.00000
79.69800	227.00000
79.72000	201.00000
79.74200	233.00000
79.76400	250.00000
79.78600	224.00000
79.80800	199.00000
79.83000	218.00000
79.85200	190.00000
79.87400	219.00000
79.89600	241.00000
79.91800	217.00000
79.94000	214.00000
79.96200	231.00000
79.98400	208.00000
80.00600	202.00000
80.02800	204.00000
80.05000	206.00000
80.07200	218.00000
80.09400	218.00000
80.11600	198.00000
80.13800	220.00000
80.16000	222.00000
80.18200	182.00000
80.20400	198.00000
80.22600	218.00000
80.24800	245.00000
80.27000	250.00000
80.29200	215.00000
80.31400	207.00000
80.33600	224.00000
80.35800	190.00000
80.38000	215.00000
80.40200	195.00000
80.42400	203.00000
80.44600	214.00000
80.46800	220.00000
80.49000	238.00000
80.51200	244.00000
80.53400	231.00000
80.55600	223.00000
80.57800	229.00000
80.60000	180.00000
80.62200	214.00000
80.64400	218.00000
80.66600	231.00000
80.68800	207.00000
80.71000	227.00000
80.73200	214.00000
80.75400	221.00000
80.77600	211.00000
80.79800	253.00000
80.82000	228.00000
80.84200	213.00000
80.86400	231.00000
80.88600	232.00000
80.90800	230.00000
80.93000	260.00000
80.95200	277.00000
80.97400	259.00000
80.99600	300.00000
81.01800	277.00000
81.04000	293.00000
81.06200	311.00000
81.08400	319.00000
81.10600	308.00000
81.12800	333.00000
81.15000	301.00000
81.17200	302.00000
81.19400	311.00000
81.21600	341.00000
81.23800	296.00000
81.26000	289.00000
81.28200	269.00000
81.30400	255.00000
81.32600	277.00000
81.34800	269.00000
81.37000	231.00000
81.39200	260.00000
81.41400	245.00000
81.43600	239.00000
81.45800	231.00000
81.48000	226.00000
81.50200	230.00000
81.52400	258.00000
81.54600	239.00000
81.56800	215.00000
81.59000	207.00000
81.61200	225.00000
81.63400	217.00000
81.65600	236.00000
81.67800	223.00000
81.70000	220.00000
81.72200	209.00000
81.74400	238.00000
81.76600	217.00000
81.78800	260.00000
81.81000	293.00000
81.83200	246.00000
81.85400	282.00000
81.87600	240.00000
81.89800	237.00000
81.92000	211.00000
81.94200	245.00000
81.96400	254.00000
81.98600	242.00000
82.00800	236.00000
82.03000	260.00000
82.05200	261.00000
82.07400	273.00000
82.09600	269.00000
82.11800	253.00000
82.14000	246.00000
82.16200	229.00000
82.18400	243.00000
82.20600	205.00000
82.22800	207.00000
82.25000	252.00000
82.27200	199.00000
82.29400	219.00000
82.31600	230.00000
82.33800	239.00000
82.36000	216.00000
82.38200	230.00000
82.40400	244.00000
82.42600	212.00000
82.44800	206.00000
82.47000	204.00000
82.49200	217.00000
82.51400	205.00000
82.53600	213.00000
82.55800	211.00000
82.58000	206.00000
82.60200	243.00000
82.62400	208.00000
82.64600	209.00000
82.66800	214.00000
82.69000	216.00000
82.71200	196.00000
82.73400	214.00000
82.75600	203.00000
82.77800	242.00000
82.80000	207.00000
82.82200	242.00000
82.84400	214.00000
82.86600	231.00000
82.88800	238.00000
82.91000	217.00000
82.93200	242.00000
82.95400	215.00000
82.97600	228.00000
82.99800	234.00000
83.02000	232.00000
83.04200	232.00000
83.06400	251.00000
83.08600	233.00000
83.10800	216.00000
83.13000	216.00000
83.15200	226.00000
83.17400	255.00000
83.19600	207.00000
83.21800	230.00000
83.24000	240.00000
83.26200	233.00000
83.28400	269.00000
83.30600	291.00000
83.32800	262.00000
83.35000	297.00000
83.37200	301.00000
83.39400	331.00000
83.41600	321.00000
83.43800	334.00000
83.46000	296.00000
83.48200	258.00000
83.50400	302.00000
83.52600	249.00000
83.54800	232.00000
83.57000	253.00000
83.59200	242.00000
83.61400	251.00000
83.63600	291.00000
83.65800	263.00000
83.68000	262.00000
83.70200	290.00000
83.72400	237.00000
83.74600	223.00000
83.76800	236.00000
83.79000	213.00000
83.81200	239.00000
83.83400	203.00000
83.85600	291.00000
83.87800	294.00000
83.90000	291.00000
83.92200	300.00000
83.94400	299.00000
83.96600	332.00000
83.98800	364.00000
84.01000	341.00000
84.03200	360.00000
84.05400	311.00000
84.07600	260.00000
84.09800	259.00000
84.12000	242.00000
84.14200	229.00000
84.16400	276.00000
84.18600	249.00000
84.20800	256.00000
84.23000	269.00000
84.25200	263.00000
84.27400	252.00000
84.29600	263.00000
84.31800	243.00000
84.34000	238.00000
84.36200	208.00000
84.38400	235.00000
84.40600	218.00000
84.42800	242.00000
84.45000	235.00000
84.47200	224.00000
84.49400	225.00000
84.51600	208.00000
84.53800	219.00000
84.56000	233.00000
84.58200	232.00000
84.60400	252.00000
84.62600	247.00000
84.64800	213.00000
84.67000	235.00000
84.69200	222.00000
84.71400	212.00000
84.73600	195.00000
84.75800	206.00000
84.78000	226.00000
84.80200	220.00000
84.82400	240.00000
84.84600	201.00000
84.86800	239.00000
84.89000	231.00000
84.91200	235.00000
84.93400	209.00000
84.95600	227.00000
84.97800	212.00000
85.00000	225.00000
85.02200	220.00000
85.04400	243.00000
85.06600	212.00000
85.08800	208.00000
85.11000	212.00000
85.13200	215.00000
85.15400	218.00000
85.17600	222.00000
85.19800	211.00000
85.22000	210.00000
85.24200	222.00000
85.26400	230.00000
85.28600	247.00000
85.30800	206.00000
85.33000	238.00000
85.35200	227.00000
85.37400	229.00000
85.39600	246.00000
85.41800	247.00000
85.44000	247.00000
85.46200	240.00000
85.48400	228.00000
85.50600	262.00000
85.52800	238.00000
85.55000	230.00000
85.57200	246.00000
85.59400	259.00000
85.61600	223.00000
85.63800	265.00000
85.66000	252.00000
85.68200	230.00000
85.70400	221.00000
85.72600	207.00000
85.74800	226.00000
85.77000	221.00000
85.79200	194.00000
85.81400	221.00000
85.83600	217.00000
85.85800	202.00000
85.88000	208.00000
85.90200	211.00000
85.92400	235.00000
85.94600	185.00000
85.96800	213.00000
85.99000	229.00000
86.01200	236.00000
86.03400	223.00000
86.05600	246.00000
86.07800	223.00000
86.10000	266.00000
86.12200	268.00000
86.14400	273.00000
86.16600	229.00000
86.18800	246.00000
86.21000	238.00000
86.23200	210.00000
86.25400	222.00000
86.27600	253.00000
86.29800	230.00000
86.32000	254.00000
86.34200	227.00000
86.36400	228.00000
86.38600	237.00000
86.40800	226.00000
86.43000	212.00000
86.45200	226.00000
86.47400	230.00000
86.49600	208.00000
86.51800	231.00000
86.54000	228.00000
86.56200	209.00000
86.58400	210.00000
86.60600	229.00000
86.62800	223.00000
86.65000	207.00000
86.67200	215.00000
86.69400	197.00000
86.71600	216.00000
86.73800	234.00000
86.76000	240.00000
86.78200	219.00000
86.80400	231.00000
86.82600	223.00000
86.84800	253.00000
86.87000	216.00000
86.89200	230.00000
86.91400	237.00000
86.93600	198.00000
86.95800	197.00000
86.98000	237.00000
87.00200	253.00000
87.02400	212.00000
87.04600	225.00000
87.06800	219.00000
87.09000	252.00000
87.11200	250.00000
87.13400	241.00000
87.15600	218.00000
87.17800	230.00000
87.20000	222.00000
87.22200	217.00000
87.24400	224.00000
87.26600	224.00000
87.28800	232.00000
87.31000	237.00000
87.33200	227.00000
87.35400	231.00000
87.37600	224.00000
87.39800	248.00000
87.42000	249.00000
87.44200	207.00000
87.46400	234.00000
87.48600	241.00000
87.50800	236.00000
87.53000	227.00000
87.55200	214.00000
87.57400	212.00000
87.59600	188.00000
87.61800	222.00000
87.64000	205.00000
87.66200	223.00000
87.68400	255.00000
87.70600	224.00000
87.72800	230.00000
87.75000	238.00000
87.77200	298.00000
87.79400	296.00000
87.81600	261.00000
87.83800	270.00000
87.86000	233.00000
87.88200	225.00000
87.90400	223.00000
87.92600	175.00000
87.94800	212.00000
87.97000	222.00000
87.99200	223.00000
88.01400	233.00000
88.03600	213.00000
88.05800	243.00000
88.08000	235.00000
88.10200	237.00000
88.12400	219.00000
88.14600	247.00000
88.16800	223.00000
88.19000	209.00000
88.21200	227.00000
88.23400	205.00000
88.25600	229.00000
88.27800	231.00000
88.30000	213.00000
88.32200	230.00000
88.34400	205.00000
88.36600	228.00000
88.38800	215.00000
88.41000	243.00000
88.43200	224.00000
88.45400	225.00000
88.47600	207.00000
88.49800	222.00000
88.52000	206.00000
88.54200	199.00000
88.56400	215.00000
88.58600	225.00000
88.60800	219.00000
88.63000	215.00000
88.65200	242.00000
88.67400	222.00000
88.69600	247.00000
88.71800	213.00000
88.74000	233.00000
88.76200	200.00000
88.78400	226.00000
88.80600	211.00000
88.82800	224.00000
88.85000	220.00000
88.87200	218.00000
88.89400	221.00000
88.91600	239.00000
88.93800	239.00000
88.96000	209.00000
88.98200	210.00000
89.00400	249.00000
89.02600	187.00000
89.04800	241.00000
89.07000	231.00000
89.09200	245.00000
89.11400	221.00000
89.13600	235.00000
89.15800	236.00000
89.18000	222.00000
89.20200	253.00000
89.22400	234.00000
89.24600	276.00000
89.26800	229.00000
89.29000	290.00000
89.31200	255.00000
89.33400	247.00000
89.35600	252.00000
89.37800	251.00000
89.40000	257.00000
89.42200	253.00000
89.44400	262.00000
89.46600	231.00000
89.48800	238.00000
89.51000	262.00000
89.53200	257.00000
89.55400	260.00000
89.57600	274.00000
89.59800	305.00000
89.62000	260.00000
89.64200	298.00000
89.66400	317.00000
89.68600	307.00000
89.70800	293.00000
89.73000	280.00000
89.75200	265.00000
89.77400	243.00000
89.79600	231.00000
89.81800	221.00000
89.84000	242.00000
89.86200	239.00000
89.88400	258.00000
89.90600	274.00000
89.92800	257.00000
89.95000	248.00000
89.97200	240.00000
89.99400	252.00000
