5.00000	1199.00000
5.02000	1172.00000
5.04000	1158.00000
5.06000	1196.00000
5.08000	1200.00000
5.10000	1144.00000
5.12000	1174.00000
5.14000	1125.00000
5.16000	1202.00000
5.18000	1223.00000
5.20000	1217.00000
5.22000	1220.00000
5.24000	1170.00000
5.26000	1222.00000
5.28000	1222.00000
5.30000	1241.00000
5.32000	1257.00000
5.34000	1210.00000
5.36000	1230.00000
5.38000	1217.00000
5.40000	1205.00000
5.42000	1209.00000
5.44000	1205.00000
5.46000	1250.00000
5.48000	1191.00000
5.50000	1223.00000
5.52000	1251.00000
5.54000	1292.00000
5.56000	1295.00000
5.58000	1179.00000
5.60000	1206.00000
5.62000	1228.00000
5.64000	1284.00000
5.66000	1277.00000
5.68000	1248.00000
5.70000	1216.00000
5.72000	1209.00000
5.74000	1277.00000
5.76000	1249.00000
5.78000	1260.00000
5.80000	1223.00000
5.82000	1276.00000
5.84000	1222.00000
5.86000	1262.00000
5.88000	1216.00000
5.90000	1255.00000
5.92000	1230.00000
5.94000	1228.00000
5.96000	1212.00000
5.98000	1223.00000
6.00000	1199.00000
6.02000	1205.00000
6.04000	1240.00000
6.06000	1260.00000
6.08000	1230.00000
6.10000	1263.00000
6.12000	1226.00000
6.14000	1222.00000
6.16000	1252.00000
6.18000	1251.00000
6.20000	1275.00000
6.22000	1237.00000
6.24000	1259.00000
6.26000	1339.00000
6.28000	1242.00000
6.30000	1233.00000
6.32000	1282.00000
6.34000	1257.00000
6.36000	1262.00000
6.38000	1226.00000
6.40000	1196.00000
6.42000	1218.00000
6.44000	1253.00000
6.46000	1216.00000
6.48000	1204.00000
6.50000	1270.00000
6.52000	1284.00000
6.54000	1265.00000
6.56000	1224.00000
6.58000	1226.00000
6.60000	1198.00000
6.62000	1212.00000
6.64000	1226.00000
6.66000	1198.00000
6.68000	1238.00000
6.70000	1261.00000
6.72000	1237.00000
6.74000	1214.00000
6.76000	1230.00000
6.78000	1236.00000
6.80000	1271.00000
6.82000	1237.00000
6.84000	1237.00000
6.86000	1279.00000
6.88000	1262.00000
6.90000	1249.00000
6.92000	1268.00000
6.94000	1336.00000
6.96000	1267.00000
6.98000	1376.00000
7.00000	1350.00000
7.02000	1370.00000
7.04000	1341.00000
7.06000	1382.00000
7.08000	1449.00000
7.10000	1382.00000
7.12000	1441.00000
7.14000	1515.00000
7.16000	1575.00000
7.18000	1696.00000
7.20000	1756.00000
7.22000	1833.00000
7.24000	1905.00000
7.26000	2051.00000
7.28000	2086.00000
7.30000	2307.00000
7.32000	2395.00000
7.34000	2608.00000
7.36000	2687.00000
7.38000	2926.00000
7.40000	3216.00000
7.42000	3516.00000
7.44000	3813.00000
7.46000	4186.00000
7.48000	4664.00000
7.50000	5185.00000
7.52000	5891.00000
7.54000	6629.00000
7.56000	7640.00000
7.58000	8916.00000
7.60000	10476.00000
7.62000	12450.00000
7.64000	14360.00000
7.66000	15598.00000
7.68000	15090.00000
7.70000	12899.00000
7.72000	9711.00000
7.74000	6349.00000
7.76000	4061.00000
7.78000	2720.00000
7.80000	2004.00000
7.82000	1644.00000
7.84000	1555.00000
7.86000	1366.00000
7.88000	1364.00000
7.90000	1390.00000
7.92000	1309.00000
7.94000	1274.00000
7.96000	1197.00000
7.98000	1156.00000
8.00000	1180.00000
8.02000	1193.00000
8.04000	1124.00000
8.06000	1195.00000
8.08000	1210.00000
8.10000	1162.00000
8.12000	1161.00000
8.14000	1113.00000
8.16000	1191.00000
8.18000	1125.00000
8.20000	1142.00000
8.22000	1145.00000
8.24000	1150.00000
8.26000	1132.00000
8.28000	1143.00000
8.30000	1162.00000
8.32000	1120.00000
8.34000	1133.00000
8.36000	1132.00000
8.38000	1055.00000
8.40000	1143.00000
8.42000	1137.00000
8.44000	1186.00000
8.46000	1151.00000
8.48000	1163.00000
8.50000	1190.00000
8.52000	1118.00000
8.54000	1128.00000
8.56000	1074.00000
8.58000	1131.00000
8.60000	1094.00000
8.62000	1129.00000
8.64000	1125.00000
8.66000	1087.00000
8.68000	1099.00000
8.70000	1175.00000
8.72000	1111.00000
8.74000	1123.00000
8.76000	1102.00000
8.78000	1105.00000
8.80000	1070.00000
8.82000	1110.00000
8.84000	1062.00000
8.86000	1061.00000
8.88000	1080.00000
8.90000	1100.00000
8.92000	1095.00000
8.94000	1038.00000
8.96000	1099.00000
8.98000	1115.00000
9.00000	1090.00000
9.02000	1067.00000
9.04000	1141.00000
9.06000	1148.00000
9.08000	1106.00000
9.10000	1138.00000
9.12000	1144.00000
9.14000	1217.00000
9.16000	1158.00000
9.18000	1170.00000
9.20000	1224.00000
9.22000	1257.00000
9.24000	1211.00000
9.26000	1226.00000
9.28000	1241.00000
9.30000	1176.00000
9.32000	1183.00000
9.34000	1086.00000
9.36000	1059.00000
9.38000	1115.00000
9.40000	1054.00000
9.42000	1039.00000
9.44000	1029.00000
9.46000	1094.00000
9.48000	1088.00000
9.50000	1095.00000
9.52000	1045.00000
9.54000	1093.00000
9.56000	1041.00000
9.58000	1081.00000
9.60000	1107.00000
9.62000	1087.00000
9.64000	1125.00000
9.66000	1130.00000
9.68000	1136.00000
9.70000	1234.00000
9.72000	1232.00000
9.74000	1199.00000
9.76000	1327.00000
9.78000	1342.00000
9.80000	1337.00000
9.82000	1445.00000
9.84000	1514.00000
9.86000	1579.00000
9.88000	1678.00000
9.90000	1843.00000
9.92000	1971.00000
9.94000	2197.00000
9.96000	2292.00000
9.98000	2617.00000
10.00000	3015.00000
10.02000	3447.00000
10.04000	4116.00000
10.06000	4708.00000
10.08000	5224.00000
10.10000	5365.00000
10.12000	5072.00000
10.14000	4165.00000
10.16000	3109.00000
10.18000	2248.00000
10.20000	1715.00000
10.22000	1414.00000
10.24000	1319.00000
10.26000	1191.00000
10.28000	1123.00000
10.30000	1084.00000
10.32000	1030.00000
10.34000	1060.00000
10.36000	1051.00000
10.38000	1072.00000
10.40000	1032.00000
10.42000	1036.00000
10.44000	1037.00000
10.46000	1065.00000
10.48000	1050.00000
10.50000	1063.00000
10.52000	981.00000
10.54000	1030.00000
10.56000	1052.00000
10.58000	1024.00000
10.60000	1066.00000
10.62000	1030.00000
10.64000	1043.00000
10.66000	1108.00000
10.68000	1125.00000
10.70000	1170.00000
10.72000	1142.00000
10.74000	1237.00000
10.76000	1287.00000
10.78000	1308.00000
10.80000	1302.00000
10.82000	1366.00000
10.84000	1343.00000
10.86000	1250.00000
10.88000	1120.00000
10.90000	1031.00000
10.92000	1047.00000
10.94000	1063.00000
10.96000	1021.00000
10.98000	1064.00000
11.00000	1076.00000
11.02000	1014.00000
11.04000	1016.00000
11.06000	993.00000
11.08000	1035.00000
11.10000	1005.00000
11.12000	1000.00000
11.14000	1047.00000
11.16000	1045.00000
11.18000	973.00000
11.20000	1008.00000
11.22000	1007.00000
11.24000	1016.00000
11.26000	1006.00000
11.28000	1021.00000
11.30000	985.00000
11.32000	1013.00000
11.34000	1051.00000
11.36000	1049.00000
11.38000	1045.00000
11.40000	951.00000
11.42000	987.00000
11.44000	1023.00000
11.46000	1003.00000
11.48000	1026.00000
11.50000	997.00000
11.52000	1049.00000
11.54000	1094.00000
11.56000	1047.00000
11.58000	1109.00000
11.60000	1082.00000
11.62000	1045.00000
11.64000	1091.00000
11.66000	1070.00000
11.68000	1112.00000
11.70000	1140.00000
11.72000	1096.00000
11.74000	1219.00000
11.76000	1277.00000
11.78000	1364.00000
11.80000	1374.00000
11.82000	1350.00000
11.84000	1326.00000
11.86000	1302.00000
11.88000	1177.00000
11.90000	1140.00000
11.92000	1022.00000
11.94000	1029.00000
11.96000	1036.00000
11.98000	1036.00000
12.00000	1028.00000
12.02000	997.00000
12.04000	1036.00000
12.06000	1037.00000
12.08000	1026.00000
12.10000	1022.00000
12.12000	1038.00000
12.14000	1014.00000
12.16000	1034.00000
12.18000	1017.00000
12.20000	1004.00000
12.22000	1035.00000
12.24000	1052.00000
12.26000	1069.00000
12.28000	1046.00000
12.30000	1005.00000
12.32000	1049.00000
12.34000	1076.00000
12.36000	1070.00000
12.38000	1092.00000
12.40000	1135.00000
12.42000	1175.00000
12.44000	1167.00000
12.46000	1238.00000
12.48000	1364.00000
12.50000	1351.00000
12.52000	1425.00000
12.54000	1500.00000
12.56000	1656.00000
12.58000	1915.00000
12.60000	2061.00000
12.62000	2370.00000
12.64000	2745.00000
12.66000	3220.00000
12.68000	3573.00000
12.70000	3907.00000
12.72000	3903.00000
12.74000	3541.00000
12.76000	2994.00000
12.78000	2275.00000
12.80000	1768.00000
12.82000	1474.00000
12.84000	1310.00000
12.86000	1224.00000
12.88000	1159.00000
12.90000	1113.00000
12.92000	1080.00000
12.94000	1079.00000
12.96000	1039.00000
12.98000	1054.00000
13.00000	1064.00000
13.02000	1054.00000
13.04000	1008.00000
13.06000	1073.00000
13.08000	1066.00000
13.10000	1036.00000
13.12000	1050.00000
13.14000	1019.00000
13.16000	1003.00000
13.18000	1022.00000
13.20000	1062.00000
13.22000	1037.00000
13.24000	1058.00000
13.26000	1130.00000
13.28000	1042.00000
13.30000	1058.00000
13.32000	1088.00000
13.34000	1078.00000
13.36000	1032.00000
13.38000	1062.00000
13.40000	1150.00000
13.42000	1148.00000
13.44000	1130.00000
13.46000	1184.00000
13.48000	1162.00000
13.50000	1200.00000
13.52000	1323.00000
13.54000	1263.00000
13.56000	1266.00000
13.58000	1114.00000
13.60000	1179.00000
13.62000	1092.00000
13.64000	1081.00000
13.66000	1114.00000
13.68000	1080.00000
13.70000	1082.00000
13.72000	1064.00000
13.74000	1064.00000
13.76000	1087.00000
13.78000	1110.00000
13.80000	1071.00000
13.82000	1101.00000
13.84000	1083.00000
13.86000	1143.00000
13.88000	1101.00000
13.90000	1108.00000
13.92000	1182.00000
13.94000	1121.00000
13.96000	1143.00000
13.98000	1164.00000
14.00000	1197.00000
14.02000	1216.00000
14.04000	1264.00000
14.06000	1290.00000
14.08000	1267.00000
14.10000	1278.00000
14.12000	1263.00000
14.14000	1222.00000
14.16000	1113.00000
14.18000	1103.00000
14.20000	1178.00000
14.22000	1136.00000
14.24000	1103.00000
14.26000	1116.00000
14.28000	1091.00000
14.30000	1024.00000
14.32000	1082.00000
14.34000	1009.00000
14.36000	1095.00000
14.38000	1158.00000
14.40000	1025.00000
14.42000	1102.00000
14.44000	1080.00000
14.46000	1073.00000
14.48000	1105.00000
14.50000	1093.00000
14.52000	1086.00000
14.54000	1144.00000
14.56000	1124.00000
14.58000	1143.00000
14.60000	1183.00000
14.62000	1173.00000
14.64000	1171.00000
14.66000	1157.00000
14.68000	1100.00000
14.70000	1150.00000
14.72000	1053.00000
14.74000	1075.00000
14.76000	1166.00000
14.78000	1133.00000
14.80000	1122.00000
14.82000	1148.00000
14.84000	1139.00000
14.86000	1084.00000
14.88000	1090.00000
14.90000	1173.00000
14.92000	1157.00000
14.94000	1166.00000
14.96000	1067.00000
14.98000	1129.00000
15.00000	1091.00000
15.02000	1133.00000
15.04000	1136.00000
15.06000	1101.00000
15.08000	1100.00000
15.10000	1134.00000
15.12000	1169.00000
15.14000	1123.00000
15.16000	1143.00000
15.18000	1196.00000
15.20000	1178.00000
15.22000	1124.00000
15.24000	1203.00000
15.26000	1224.00000
15.28000	1186.00000
15.30000	1249.00000
15.32000	1265.00000
15.34000	1243.00000
15.36000	1362.00000
15.38000	1397.00000
15.40000	1436.00000
15.42000	1587.00000
15.44000	1570.00000
15.46000	1622.00000
15.48000	1690.00000
15.50000	1901.00000
15.52000	1998.00000
15.54000	2145.00000
15.56000	2311.00000
15.58000	2352.00000
15.60000	2404.00000
15.62000	2160.00000
15.64000	1954.00000
15.66000	1653.00000
15.68000	1454.00000
15.70000	1347.00000
15.72000	1323.00000
15.74000	1276.00000
15.76000	1233.00000
15.78000	1171.00000
15.80000	1287.00000
15.82000	1243.00000
15.84000	1209.00000
15.86000	1226.00000
15.88000	1234.00000
15.90000	1261.00000
15.92000	1196.00000
15.94000	1264.00000
15.96000	1214.00000
15.98000	1213.00000
16.00000	1245.00000
16.02000	1179.00000
16.04000	1233.00000
16.06000	1174.00000
16.08000	1266.00000
16.10000	1221.00000
16.12000	1209.00000
16.14000	1202.00000
16.16000	1289.00000
16.18000	1220.00000
16.20000	1245.00000
16.22000	1249.00000
16.24000	1212.00000
16.26000	1224.00000
16.28000	1245.00000
16.30000	1183.00000
16.32000	1213.00000
16.34000	1233.00000
16.36000	1264.00000
16.38000	1273.00000
16.40000	1294.00000
16.42000	1207.00000
16.44000	1189.00000
16.46000	1306.00000
16.48000	1264.00000
16.50000	1308.00000
16.52000	1254.00000
16.54000	1243.00000
16.56000	1327.00000
16.58000	1269.00000
16.60000	1255.00000
16.62000	1230.00000
16.64000	1301.00000
16.66000	1272.00000
16.68000	1280.00000
16.70000	1242.00000
16.72000	1276.00000
16.74000	1322.00000
16.76000	1285.00000
16.78000	1272.00000
16.80000	1280.00000
16.82000	1239.00000
16.84000	1328.00000
16.86000	1326.00000
16.88000	1269.00000
16.90000	1294.00000
16.92000	1337.00000
16.94000	1300.00000
16.96000	1360.00000
16.98000	1311.00000
17.00000	1311.00000
17.02000	1330.00000
17.04000	1319.00000
17.06000	1273.00000
17.08000	1341.00000
17.10000	1324.00000
17.12000	1374.00000
17.14000	1331.00000
17.16000	1315.00000
17.18000	1330.00000
17.20000	1305.00000
17.22000	1299.00000
17.24000	1329.00000
17.26000	1328.00000
17.28000	1367.00000
17.30000	1365.00000
17.32000	1314.00000
17.34000	1350.00000
17.36000	1375.00000
17.38000	1315.00000
17.40000	1332.00000
17.42000	1347.00000
17.44000	1354.00000
17.46000	1358.00000
17.48000	1382.00000
17.50000	1361.00000
17.52000	1391.00000
17.54000	1348.00000
17.56000	1417.00000
17.58000	1404.00000
17.60000	1422.00000
17.62000	1376.00000
17.64000	1383.00000
17.66000	1395.00000
17.68000	1501.00000
17.70000	1539.00000
17.72000	1479.00000
17.74000	1550.00000
17.76000	1622.00000
17.78000	1683.00000
17.80000	1696.00000
17.82000	1894.00000
17.84000	1943.00000
17.86000	2024.00000
17.88000	1900.00000
17.90000	1825.00000
17.92000	1826.00000
17.94000	1711.00000
17.96000	1777.00000
17.98000	1728.00000
18.00000	1656.00000
18.02000	1599.00000
18.04000	1614.00000
18.06000	1637.00000
18.08000	1512.00000
18.10000	1463.00000
18.12000	1504.00000
18.14000	1460.00000
18.16000	1525.00000
18.18000	1597.00000
18.20000	1583.00000
18.22000	1647.00000
18.24000	1689.00000
18.26000	1909.00000
18.28000	1925.00000
18.30000	2165.00000
18.32000	2354.00000
18.34000	2738.00000
18.36000	3160.00000
18.38000	3597.00000
18.40000	4025.00000
18.42000	4165.00000
18.44000	4114.00000
18.46000	3858.00000
18.48000	3491.00000
18.50000	3119.00000
18.52000	2784.00000
18.54000	2374.00000
18.56000	2117.00000
18.58000	1845.00000
18.60000	1714.00000
18.62000	1720.00000
18.64000	1587.00000
18.66000	1570.00000
18.68000	1610.00000
18.70000	1556.00000
18.72000	1505.00000
18.74000	1575.00000
18.76000	1597.00000
18.78000	1485.00000
18.80000	1483.00000
18.82000	1536.00000
18.84000	1562.00000
18.86000	1523.00000
18.88000	1477.00000
18.90000	1481.00000
18.92000	1477.00000
18.94000	1580.00000
18.96000	1589.00000
18.98000	1560.00000
19.00000	1575.00000
19.02000	1605.00000
19.04000	1566.00000
19.06000	1536.00000
19.08000	1600.00000
19.10000	1598.00000
19.12000	1637.00000
19.14000	1614.00000
19.16000	1495.00000
19.18000	1531.00000
19.20000	1602.00000
19.22000	1531.00000
19.24000	1695.00000
19.26000	1574.00000
19.28000	1579.00000
19.30000	1606.00000
19.32000	1585.00000
19.34000	1610.00000
19.36000	1548.00000
19.38000	1637.00000
19.40000	1571.00000
19.42000	1624.00000
19.44000	1638.00000
19.46000	1656.00000
19.48000	1746.00000
19.50000	1743.00000
19.52000	1862.00000
19.54000	1868.00000
19.56000	1991.00000
19.58000	2028.00000
19.60000	2099.00000
19.62000	2122.00000
19.64000	2065.00000
19.66000	1919.00000
19.68000	1849.00000
19.70000	1732.00000
19.72000	1616.00000
19.74000	1569.00000
19.76000	1708.00000
19.78000	1603.00000
19.80000	1673.00000
19.82000	1666.00000
19.84000	1662.00000
19.86000	1644.00000
19.88000	1692.00000
19.90000	1627.00000
19.92000	1631.00000
19.94000	1651.00000
19.96000	1641.00000
19.98000	1629.00000
20.00000	1668.00000
20.02000	1678.00000
20.04000	1679.00000
20.06000	1653.00000
20.08000	1645.00000
20.10000	1658.00000
20.12000	1721.00000
20.14000	1674.00000
20.16000	1701.00000
20.18000	1771.00000
20.20000	1778.00000
20.22000	1824.00000
20.24000	1861.00000
20.26000	1969.00000
20.28000	1993.00000
20.30000	2043.00000
20.32000	2104.00000
20.34000	2177.00000
20.36000	2083.00000
20.38000	2145.00000
20.40000	1966.00000
20.42000	2128.00000
20.44000	2109.00000
20.46000	2157.00000
20.48000	2425.00000
20.50000	2662.00000
20.52000	2806.00000
20.54000	3213.00000
20.56000	3583.00000
20.58000	3967.00000
20.60000	4092.00000
20.62000	4006.00000
20.64000	3710.00000
20.66000	3388.00000
20.68000	3165.00000
20.70000	2832.00000
20.72000	2750.00000
20.74000	2458.00000
20.76000	2307.00000
20.78000	2130.00000
20.80000	2080.00000
20.82000	1912.00000
20.84000	1887.00000
20.86000	1959.00000
20.88000	2086.00000
20.90000	2161.00000
20.92000	2263.00000
20.94000	2493.00000
20.96000	2802.00000
20.98000	3096.00000
21.00000	3492.00000
21.02000	4074.00000
21.04000	4496.00000
21.06000	4648.00000
21.08000	4559.00000
21.10000	4106.00000
21.12000	3480.00000
21.14000	2950.00000
21.16000	2611.00000
21.18000	2433.00000
21.20000	2365.00000
21.22000	2365.00000
21.24000	2392.00000
21.26000	2622.00000
21.28000	2896.00000
21.30000	3330.00000
21.32000	3714.00000
21.34000	4043.00000
21.36000	4534.00000
21.38000	4899.00000
21.40000	5162.00000
21.42000	5391.00000
21.44000	5528.00000
21.46000	5538.00000
21.48000	4944.00000
21.50000	4255.00000
21.52000	3469.00000
21.54000	2743.00000
21.56000	2414.00000
21.58000	2210.00000
21.60000	2129.00000
21.62000	1937.00000
21.64000	1976.00000
21.66000	1934.00000
21.68000	1946.00000
21.70000	1921.00000
21.72000	2011.00000
21.74000	2021.00000
21.76000	2049.00000
21.78000	1994.00000
21.80000	1986.00000
21.82000	2056.00000
21.84000	1972.00000
21.86000	1950.00000
21.88000	1917.00000
21.90000	2032.00000
21.92000	1928.00000
21.94000	1948.00000
21.96000	1956.00000
21.98000	1991.00000
22.00000	2071.00000
22.02000	2042.00000
22.04000	2129.00000
22.06000	2127.00000
22.08000	2102.00000
22.10000	2078.00000
22.12000	2031.00000
22.14000	2038.00000
22.16000	2067.00000
22.18000	2099.00000
22.20000	2003.00000
22.22000	2101.00000
22.24000	2097.00000
22.26000	2121.00000
22.28000	2137.00000
22.30000	2052.00000
22.32000	1997.00000
22.34000	1934.00000
22.36000	2025.00000
22.38000	2108.00000
22.40000	2014.00000
22.42000	2067.00000
22.44000	2121.00000
22.46000	2118.00000
22.48000	2356.00000
22.50000	2586.00000
22.52000	2851.00000
22.54000	3107.00000
22.56000	3521.00000
22.58000	3687.00000
22.60000	3843.00000
22.62000	3765.00000
22.64000	3442.00000
22.66000	3104.00000
22.68000	2682.00000
22.70000	2354.00000
22.72000	2213.00000
22.74000	2057.00000
22.76000	2031.00000
22.78000	1908.00000
22.80000	1966.00000
22.82000	1936.00000
22.84000	1986.00000
22.86000	1928.00000
22.88000	1924.00000
22.90000	1920.00000
22.92000	1917.00000
22.94000	1907.00000
22.96000	2035.00000
22.98000	1977.00000
23.00000	1925.00000
23.02000	1927.00000
23.04000	1959.00000
23.06000	1966.00000
23.08000	1974.00000
23.10000	1934.00000
23.12000	1944.00000
23.14000	1990.00000
23.16000	1976.00000
23.18000	1907.00000
23.20000	1950.00000
23.22000	1939.00000
23.24000	1966.00000
23.26000	1983.00000
23.28000	1995.00000
23.30000	1988.00000
23.32000	1983.00000
23.34000	1996.00000
23.36000	2047.00000
23.38000	2046.00000
23.40000	2097.00000
23.42000	2167.00000
23.44000	2238.00000
23.46000	2356.00000
23.48000	2486.00000
23.50000	2535.00000
23.52000	2621.00000
23.54000	2954.00000
23.56000	3170.00000
23.58000	3503.00000
23.60000	3656.00000
23.62000	3640.00000
23.64000	3732.00000
23.66000	3748.00000
23.68000	3970.00000
23.70000	4275.00000
23.72000	4836.00000
23.74000	5242.00000
23.76000	5735.00000
23.78000	5818.00000
23.80000	5477.00000
23.82000	5076.00000
23.84000	4137.00000
23.86000	3389.00000
23.88000	2916.00000
23.90000	2526.00000
23.92000	2346.00000
23.94000	2258.00000
23.96000	2190.00000
23.98000	2116.00000
24.00000	2114.00000
24.02000	2087.00000
24.04000	2020.00000
24.06000	2078.00000
24.08000	2054.00000
24.10000	2078.00000
24.12000	1928.00000
24.14000	1930.00000
24.16000	2061.00000
24.18000	1984.00000
24.20000	1974.00000
24.22000	1982.00000
24.24000	1932.00000
24.26000	1942.00000
24.28000	1983.00000
24.30000	1951.00000
24.32000	1973.00000
24.34000	1997.00000
24.36000	1967.00000
24.38000	1979.00000
24.40000	2012.00000
24.42000	1975.00000
24.44000	1983.00000
24.46000	1908.00000
24.48000	1947.00000
24.50000	1891.00000
24.52000	1906.00000
24.54000	1912.00000
24.56000	1950.00000
24.58000	1949.00000
24.60000	1970.00000
24.62000	1945.00000
24.64000	1893.00000
24.66000	1997.00000
24.68000	1998.00000
24.70000	1931.00000
24.72000	1839.00000
24.74000	1963.00000
24.76000	1968.00000
24.78000	1977.00000
24.80000	2004.00000
24.82000	2098.00000
24.84000	2083.00000
24.86000	2158.00000
24.88000	2304.00000
24.90000	2387.00000
24.92000	2477.00000
24.94000	2653.00000
24.96000	2775.00000
24.98000	2827.00000
25.00000	2798.00000
25.02000	2810.00000
25.04000	2803.00000
25.06000	2848.00000
25.08000	2970.00000
25.10000	3243.00000
25.12000	3659.00000
25.14000	3891.00000
25.16000	4014.00000
25.18000	4007.00000
25.20000	3748.00000
25.22000	3392.00000
25.24000	2978.00000
25.26000	2659.00000
25.28000	2409.00000
25.30000	2312.00000
25.32000	2283.00000
25.34000	2430.00000
25.36000	2433.00000
25.38000	2651.00000
25.40000	2722.00000
25.42000	2764.00000
25.44000	2768.00000
25.46000	2673.00000
25.48000	2533.00000
25.50000	2276.00000
25.52000	2067.00000
25.54000	2066.00000
25.56000	2056.00000
25.58000	1980.00000
25.60000	1981.00000
25.62000	1953.00000
25.64000	1974.00000
25.66000	1923.00000
25.68000	1966.00000
25.70000	1908.00000
25.72000	1947.00000
25.74000	1961.00000
25.76000	2001.00000
25.78000	1955.00000
25.80000	1962.00000
25.82000	2003.00000
25.84000	2055.00000
25.86000	2119.00000
25.88000	2149.00000
25.90000	2167.00000
25.92000	2189.00000
25.94000	2235.00000
25.96000	2224.00000
25.98000	2183.00000
26.00000	2076.00000
26.02000	2083.00000
26.04000	1972.00000
26.06000	1962.00000
26.08000	1965.00000
26.10000	1919.00000
26.12000	1934.00000
26.14000	1985.00000
26.16000	1890.00000
26.18000	1928.00000
26.20000	1843.00000
26.22000	1876.00000
26.24000	1938.00000
26.26000	1925.00000
26.28000	2004.00000
26.30000	1992.00000
26.32000	2031.00000
26.34000	1973.00000
26.36000	1997.00000
26.38000	2078.00000
26.40000	2184.00000
26.42000	2234.00000
26.44000	2343.00000
26.46000	2444.00000
26.48000	2606.00000
26.50000	2932.00000
26.52000	3297.00000
26.54000	3427.00000
26.56000	3390.00000
26.58000	3275.00000
26.60000	2993.00000
26.62000	2630.00000
26.64000	2344.00000
26.66000	2151.00000
26.68000	1977.00000
26.70000	2021.00000
26.72000	1987.00000
26.74000	1938.00000
26.76000	1970.00000
26.78000	1940.00000
26.80000	1896.00000
26.82000	1934.00000
26.84000	2018.00000
26.86000	1938.00000
26.88000	2054.00000
26.90000	2031.00000
26.92000	2054.00000
26.94000	2076.00000
26.96000	2303.00000
26.98000	2343.00000
27.00000	2416.00000
27.02000	2529.00000
27.04000	2513.00000
27.06000	2465.00000
27.08000	2332.00000
27.10000	2267.00000
27.12000	2270.00000
27.14000	2361.00000
27.16000	2384.00000
27.18000	2492.00000
27.20000	2520.00000
27.22000	2545.00000
27.24000	2589.00000
27.26000	2473.00000
27.28000	2384.00000
27.30000	2184.00000
27.32000	2171.00000
27.34000	2098.00000
27.36000	2148.00000
27.38000	2103.00000
27.40000	2219.00000
27.42000	2378.00000
27.44000	2393.00000
27.46000	2492.00000
27.48000	2717.00000
27.50000	2836.00000
27.52000	3064.00000
27.54000	3402.00000
27.56000	3619.00000
27.58000	3697.00000
27.60000	3623.00000
27.62000	3378.00000
27.64000	2934.00000
27.66000	2633.00000
27.68000	2350.00000
27.70000	2169.00000
27.72000	2082.00000
27.74000	1986.00000
27.76000	1940.00000
27.78000	2025.00000
27.80000	1844.00000
27.82000	1895.00000
27.84000	1838.00000
27.86000	1855.00000
27.88000	1881.00000
27.90000	1879.00000
27.92000	1870.00000
27.94000	1822.00000
27.96000	1825.00000
27.98000	1888.00000
28.00000	1808.00000
28.02000	1883.00000
28.04000	1861.00000
28.06000	1904.00000
28.08000	1747.00000
28.10000	1809.00000
28.12000	1890.00000
28.14000	1856.00000
28.16000	1801.00000
28.18000	1776.00000
28.20000	1791.00000
28.22000	1926.00000
28.24000	1916.00000
28.26000	1880.00000
28.28000	1920.00000
28.30000	2004.00000
28.32000	2020.00000
28.34000	2180.00000
28.36000	2263.00000
28.38000	2353.00000
28.40000	2588.00000
28.42000	2886.00000
28.44000	3140.00000
28.46000	3359.00000
28.48000	3497.00000
28.50000	3463.00000
28.52000	3368.00000
28.54000	2936.00000
28.56000	2659.00000
28.58000	2330.00000
28.60000	2251.00000
28.62000	2188.00000
28.64000	2179.00000
28.66000	2300.00000
28.68000	2410.00000
28.70000	2368.00000
28.72000	2422.00000
28.74000	2398.00000
28.76000	2238.00000
28.78000	2126.00000
28.80000	1949.00000
28.82000	1991.00000
28.84000	1750.00000
28.86000	1817.00000
28.88000	1770.00000
28.90000	1780.00000
28.92000	1846.00000
28.94000	1816.00000
28.96000	1838.00000
28.98000	1943.00000
29.00000	1952.00000
29.02000	2152.00000
29.04000	2181.00000
29.06000	2225.00000
29.08000	2260.00000
29.10000	2212.00000
29.12000	2205.00000
29.14000	2107.00000
29.16000	2086.00000
29.18000	1931.00000
29.20000	1889.00000
29.22000	1866.00000
29.24000	1767.00000
29.26000	1721.00000
29.28000	1827.00000
29.30000	1789.00000
29.32000	1839.00000
29.34000	1856.00000
29.36000	1793.00000
29.38000	1801.00000
29.40000	1798.00000
29.42000	1820.00000
29.44000	1822.00000
29.46000	1839.00000
29.48000	1831.00000
29.50000	1898.00000
29.52000	1968.00000
29.54000	2111.00000
29.56000	2224.00000
29.58000	2318.00000
29.60000	2374.00000
29.62000	2434.00000
29.64000	2544.00000
29.66000	2579.00000
29.68000	2733.00000
29.70000	3027.00000
29.72000	3079.00000
29.74000	3120.00000
29.76000	3072.00000
29.78000	2911.00000
29.80000	2659.00000
29.82000	2279.00000
29.84000	2110.00000
29.86000	1881.00000
29.88000	1764.00000
29.90000	1775.00000
29.92000	1832.00000
29.94000	1811.00000
29.96000	1754.00000
29.98000	1788.00000
30.00000	1844.00000
30.02000	1962.00000
30.04000	2023.00000
30.06000	2108.00000
30.08000	2169.00000
30.10000	2308.00000
30.12000	2308.00000
30.14000	2251.00000
30.16000	2127.00000
30.18000	1995.00000
30.20000	1917.00000
30.22000	1796.00000
30.24000	1679.00000
30.26000	1628.00000
30.28000	1665.00000
30.30000	1620.00000
30.32000	1644.00000
30.34000	1698.00000
30.36000	1629.00000
30.38000	1584.00000
30.40000	1581.00000
30.42000	1669.00000
30.44000	1680.00000
30.46000	1671.00000
30.48000	1716.00000
30.50000	1740.00000
30.52000	1734.00000
30.54000	1689.00000
30.56000	1680.00000
30.58000	1620.00000
30.60000	1608.00000
30.62000	1688.00000
30.64000	1663.00000
30.66000	1565.00000
30.68000	1690.00000
30.70000	1710.00000
30.72000	1726.00000
30.74000	1746.00000
30.76000	1730.00000
30.78000	1675.00000
30.80000	1618.00000
30.82000	1623.00000
30.84000	1643.00000
30.86000	1558.00000
30.88000	1543.00000
30.90000	1596.00000
30.92000	1534.00000
30.94000	1548.00000
30.96000	1542.00000
30.98000	1584.00000
31.00000	1562.00000
31.02000	1573.00000
31.04000	1544.00000
31.06000	1572.00000
31.08000	1624.00000
31.10000	1537.00000
31.12000	1665.00000
31.14000	1665.00000
31.16000	1713.00000
31.18000	1698.00000
31.20000	1706.00000
31.22000	1709.00000
31.24000	1697.00000
31.26000	1786.00000
31.28000	1719.00000
31.30000	1684.00000
31.32000	1862.00000
31.34000	1775.00000
31.36000	1776.00000
31.38000	1771.00000
31.40000	1782.00000
31.42000	1708.00000
31.44000	1599.00000
31.46000	1614.00000
31.48000	1616.00000
31.50000	1544.00000
31.52000	1494.00000
31.54000	1465.00000
31.56000	1530.00000
31.58000	1637.00000
31.60000	1656.00000
31.62000	1715.00000
31.64000	1751.00000
31.66000	1835.00000
31.68000	1855.00000
31.70000	2066.00000
31.72000	2046.00000
31.74000	2028.00000
31.76000	2044.00000
31.78000	1838.00000
31.80000	1651.00000
31.82000	1603.00000
31.84000	1505.00000
31.86000	1462.00000
31.88000	1493.00000
31.90000	1451.00000
31.92000	1398.00000
31.94000	1379.00000
31.96000	1435.00000
31.98000	1384.00000
32.00000	1394.00000
32.02000	1425.00000
32.04000	1489.00000
32.06000	1457.00000
32.08000	1455.00000
32.10000	1446.00000
32.12000	1463.00000
32.14000	1450.00000
32.16000	1497.00000
32.18000	1492.00000
32.20000	1498.00000
32.22000	1435.00000
32.24000	1529.00000
32.26000	1525.00000
32.28000	1632.00000
32.30000	1589.00000
32.32000	1683.00000
32.34000	1568.00000
32.36000	1653.00000
32.38000	1769.00000
32.40000	1726.00000
32.42000	1802.00000
32.44000	1695.00000
32.46000	1694.00000
32.48000	1634.00000
32.50000	1567.00000
32.52000	1475.00000
32.54000	1416.00000
32.56000	1468.00000
32.58000	1422.00000
32.60000	1376.00000
32.62000	1413.00000
32.64000	1372.00000
32.66000	1354.00000
32.68000	1373.00000
32.70000	1426.00000
32.72000	1407.00000
32.74000	1441.00000
32.76000	1491.00000
32.78000	1567.00000
32.80000	1662.00000
32.82000	1731.00000
32.84000	1759.00000
32.86000	1766.00000
32.88000	1761.00000
32.90000	1664.00000
32.92000	1518.00000
32.94000	1554.00000
32.96000	1515.00000
32.98000	1548.00000
33.00000	1634.00000
33.02000	1671.00000
33.04000	1658.00000
33.06000	1638.00000
33.08000	1597.00000
33.10000	1501.00000
33.12000	1404.00000
33.14000	1465.00000
33.16000	1387.00000
33.18000	1366.00000
33.20000	1343.00000
33.22000	1305.00000
33.24000	1297.00000
33.26000	1288.00000
33.28000	1307.00000
33.30000	1351.00000
33.32000	1269.00000
33.34000	1288.00000
33.36000	1306.00000
33.38000	1270.00000
33.40000	1320.00000
33.42000	1329.00000
33.44000	1430.00000
33.46000	1341.00000
33.48000	1467.00000
33.50000	1416.00000
33.52000	1477.00000
33.54000	1601.00000
33.56000	1647.00000
33.58000	1676.00000
33.60000	1789.00000
33.62000	1971.00000
33.64000	2100.00000
33.66000	2174.00000
33.68000	2226.00000
33.70000	2213.00000
33.72000	2202.00000
33.74000	2005.00000
33.76000	1847.00000
33.78000	1645.00000
33.80000	1456.00000
33.82000	1365.00000
33.84000	1347.00000
33.86000	1332.00000
33.88000	1281.00000
33.90000	1303.00000
33.92000	1298.00000
33.94000	1252.00000
33.96000	1309.00000
33.98000	1255.00000
34.00000	1257.00000
34.02000	1325.00000
34.04000	1390.00000
34.06000	1454.00000
34.08000	1474.00000
34.10000	1633.00000
34.12000	1780.00000
34.14000	1849.00000
34.16000	1936.00000
34.18000	1957.00000
34.20000	1914.00000
34.22000	1812.00000
34.24000	1680.00000
34.26000	1568.00000
34.28000	1438.00000
34.30000	1413.00000
34.32000	1381.00000
34.34000	1382.00000
34.36000	1390.00000
34.38000	1369.00000
34.40000	1439.00000
34.42000	1465.00000
34.44000	1515.00000
34.46000	1501.00000
34.48000	1501.00000
34.50000	1404.00000
34.52000	1304.00000
34.54000	1283.00000
34.56000	1266.00000
34.58000	1211.00000
34.60000	1160.00000
34.62000	1156.00000
34.64000	1129.00000
34.66000	1086.00000
34.68000	1139.00000
34.70000	1088.00000
34.72000	1131.00000
34.74000	1201.00000
34.76000	1170.00000
34.78000	1136.00000
34.80000	1134.00000
34.82000	1071.00000
34.84000	1136.00000
34.86000	1031.00000
34.88000	1097.00000
34.90000	1105.00000
34.92000	1169.00000
34.94000	1110.00000
34.96000	1131.00000
34.98000	1143.00000
35.00000	1116.00000
35.02000	1130.00000
35.04000	1167.00000
35.06000	1145.00000
35.08000	1182.00000
35.10000	1185.00000
35.12000	1120.00000
35.14000	1132.00000
35.16000	1144.00000
35.18000	1077.00000
35.20000	1099.00000
35.22000	1155.00000
35.24000	1190.00000
35.26000	1137.00000
35.28000	1066.00000
35.30000	1053.00000
35.32000	1083.00000
35.34000	1068.00000
35.36000	1092.00000
35.38000	1103.00000
35.40000	1148.00000
35.42000	1106.00000
35.44000	1112.00000
35.46000	1086.00000
35.48000	1089.00000
35.50000	1048.00000
35.52000	1062.00000
35.54000	1081.00000
35.56000	1036.00000
35.58000	1064.00000
35.60000	1096.00000
35.62000	1067.00000
35.64000	1007.00000
35.66000	1038.00000
35.68000	1071.00000
35.70000	1090.00000
35.72000	1034.00000
35.74000	1071.00000
35.76000	1108.00000
35.78000	1041.00000
35.80000	1085.00000
35.82000	1052.00000
35.84000	1089.00000
35.86000	1074.00000
35.88000	1068.00000
35.90000	1007.00000
35.92000	1021.00000
35.94000	1082.00000
35.96000	1058.00000
35.98000	1054.00000
36.00000	1077.00000
36.02000	1161.00000
36.04000	1209.00000
36.06000	1161.00000
36.08000	1240.00000
36.10000	1222.00000
36.12000	1284.00000
36.14000	1227.00000
36.16000	1294.00000
36.18000	1268.00000
36.20000	1312.00000
36.22000	1251.00000
36.24000	1268.00000
36.26000	1248.00000
36.28000	1202.00000
36.30000	1173.00000
36.32000	1102.00000
36.34000	1087.00000
36.36000	1025.00000
36.38000	1076.00000
36.40000	1051.00000
36.42000	1112.00000
36.44000	1046.00000
36.46000	1114.00000
36.48000	1104.00000
36.50000	1118.00000
36.52000	1167.00000
36.54000	1123.00000
36.56000	1102.00000
36.58000	1087.00000
36.60000	1086.00000
36.62000	1075.00000
36.64000	1053.00000
36.66000	1129.00000
36.68000	1138.00000
36.70000	1206.00000
36.72000	1211.00000
36.74000	1115.00000
36.76000	1200.00000
36.78000	1104.00000
36.80000	1133.00000
36.82000	1076.00000
36.84000	1061.00000
36.86000	1062.00000
36.88000	991.00000
36.90000	992.00000
36.92000	1020.00000
36.94000	1023.00000
36.96000	985.00000
36.98000	988.00000
37.00000	998.00000
37.02000	1015.00000
37.04000	995.00000
37.06000	987.00000
37.08000	991.00000
37.10000	1008.00000
37.12000	1031.00000
37.14000	964.00000
37.16000	1012.00000
37.18000	996.00000
37.20000	1007.00000
37.22000	976.00000
37.24000	1013.00000
37.26000	1002.00000
37.28000	1041.00000
37.30000	1026.00000
37.32000	1037.00000
37.34000	1107.00000
37.36000	1037.00000
37.38000	1119.00000
37.40000	1131.00000
37.42000	1110.00000
37.44000	1129.00000
37.46000	1190.00000
37.48000	1247.00000
37.50000	1299.00000
37.52000	1327.00000
37.54000	1360.00000
37.56000	1411.00000
37.58000	1371.00000
37.60000	1354.00000
37.62000	1271.00000
37.64000	1310.00000
37.66000	1372.00000
37.68000	1452.00000
37.70000	1577.00000
37.72000	1675.00000
37.74000	1755.00000
37.76000	1833.00000
37.78000	1738.00000
37.80000	1740.00000
37.82000	1516.00000
37.84000	1443.00000
37.86000	1348.00000
37.88000	1296.00000
37.90000	1258.00000
37.92000	1242.00000
37.94000	1252.00000
37.96000	1262.00000
37.98000	1326.00000
38.00000	1314.00000
38.02000	1327.00000
38.04000	1169.00000
38.06000	1183.00000
38.08000	1088.00000
38.10000	1078.00000
38.12000	1104.00000
38.14000	1091.00000
38.16000	1061.00000
38.18000	1104.00000
38.20000	1098.00000
38.22000	1087.00000
38.24000	1050.00000
38.26000	1006.00000
38.28000	1010.00000
38.30000	969.00000
38.32000	985.00000
38.34000	932.00000
38.36000	944.00000
38.38000	920.00000
38.40000	916.00000
38.42000	884.00000
38.44000	971.00000
38.46000	939.00000
38.48000	919.00000
38.50000	859.00000
38.52000	909.00000
38.54000	941.00000
38.56000	988.00000
38.58000	983.00000
38.60000	1115.00000
38.62000	1153.00000
38.64000	1215.00000
38.66000	1324.00000
38.68000	1374.00000
38.70000	1322.00000
38.72000	1309.00000
38.74000	1271.00000
38.76000	1182.00000
38.78000	1100.00000
38.80000	1084.00000
38.82000	1093.00000
38.84000	1119.00000
38.86000	1099.00000
38.88000	1086.00000
38.90000	1091.00000
38.92000	1102.00000
38.94000	1135.00000
38.96000	1150.00000
38.98000	1090.00000
39.00000	1037.00000
39.02000	1008.00000
39.04000	944.00000
39.06000	936.00000
39.08000	923.00000
39.10000	894.00000
39.12000	955.00000
39.14000	921.00000
39.16000	871.00000
39.18000	926.00000
39.20000	942.00000
39.22000	1022.00000
39.24000	1021.00000
39.26000	1020.00000
39.28000	1024.00000
39.30000	994.00000
39.32000	1054.00000
39.34000	973.00000
39.36000	927.00000
39.38000	941.00000
39.40000	932.00000
39.42000	922.00000
39.44000	867.00000
39.46000	926.00000
39.48000	844.00000
39.50000	951.00000
39.52000	947.00000
39.54000	983.00000
39.56000	986.00000
39.58000	1025.00000
39.60000	990.00000
39.62000	968.00000
39.64000	952.00000
39.66000	996.00000
39.68000	977.00000
39.70000	922.00000
39.72000	912.00000
39.74000	917.00000
39.76000	952.00000
39.78000	1045.00000
39.80000	1095.00000
39.82000	1169.00000
39.84000	1145.00000
39.86000	1177.00000
39.88000	1151.00000
39.90000	1126.00000
39.92000	1042.00000
39.94000	1054.00000
39.96000	1000.00000
39.98000	944.00000
40.00000	976.00000
40.02000	923.00000
40.04000	969.00000
40.06000	891.00000
40.08000	921.00000
40.10000	904.00000
40.12000	944.00000
40.14000	880.00000
40.16000	912.00000
40.18000	895.00000
40.20000	873.00000
40.22000	910.00000
40.24000	933.00000
40.26000	923.00000
40.28000	910.00000
40.30000	948.00000
40.32000	897.00000
40.34000	866.00000
40.36000	912.00000
40.38000	859.00000
40.40000	835.00000
40.42000	847.00000
40.44000	877.00000
40.46000	848.00000
40.48000	870.00000
40.50000	883.00000
40.52000	915.00000
40.54000	910.00000
40.56000	873.00000
40.58000	935.00000
40.60000	963.00000
40.62000	980.00000
40.64000	953.00000
40.66000	981.00000
40.68000	1030.00000
40.70000	1024.00000
40.72000	1067.00000
40.74000	995.00000
40.76000	998.00000
40.78000	925.00000
40.80000	902.00000
40.82000	978.00000
40.84000	926.00000
40.86000	901.00000
40.88000	903.00000
40.90000	916.00000
40.92000	924.00000
40.94000	1047.00000
40.96000	936.00000
40.98000	1027.00000
41.00000	1078.00000
41.02000	1182.00000
41.04000	1198.00000
41.06000	1260.00000
41.08000	1301.00000
41.10000	1313.00000
41.12000	1243.00000
41.14000	1266.00000
41.16000	1271.00000
41.18000	1340.00000
41.20000	1331.00000
41.22000	1365.00000
41.24000	1392.00000
41.26000	1356.00000
41.28000	1243.00000
41.30000	1225.00000
41.32000	1069.00000
41.34000	1004.00000
41.36000	1058.00000
41.38000	1051.00000
41.40000	1072.00000
41.42000	1121.00000
41.44000	1122.00000
41.46000	1188.00000
41.48000	1212.00000
41.50000	1223.00000
41.52000	1261.00000
41.54000	1188.00000
41.56000	1117.00000
41.58000	1102.00000
41.60000	1122.00000
41.62000	1055.00000
41.64000	1032.00000
41.66000	1039.00000
41.68000	1090.00000
41.70000	1116.00000
41.72000	1160.00000
41.74000	1247.00000
41.76000	1306.00000
41.78000	1334.00000
41.80000	1356.00000
41.82000	1353.00000
41.84000	1258.00000
41.86000	1293.00000
41.88000	1251.00000
41.90000	1188.00000
41.92000	1178.00000
41.94000	1075.00000
41.96000	1125.00000
41.98000	1101.00000
42.00000	1106.00000
42.02000	1064.00000
42.04000	1002.00000
42.06000	1036.00000
42.08000	1058.00000
42.10000	1082.00000
42.12000	1140.00000
42.14000	1154.00000
42.16000	1188.00000
42.18000	1206.00000
42.20000	1249.00000
42.22000	1298.00000
42.24000	1256.00000
42.26000	1240.00000
42.28000	1203.00000
42.30000	1169.00000
42.32000	1216.00000
42.34000	1110.00000
42.36000	1034.00000
42.38000	969.00000
42.40000	1011.00000
42.42000	948.00000
42.44000	977.00000
42.46000	970.00000
42.48000	970.00000
42.50000	1052.00000
42.52000	1173.00000
42.54000	1193.00000
42.56000	1199.00000
42.58000	1225.00000
42.60000	1265.00000
42.62000	1260.00000
42.64000	1304.00000
42.66000	1200.00000
42.68000	1112.00000
42.70000	1090.00000
42.72000	1005.00000
42.74000	941.00000
42.76000	932.00000
42.78000	902.00000
42.80000	930.00000
42.82000	906.00000
42.84000	941.00000
42.86000	1028.00000
42.88000	1018.00000
42.90000	1067.00000
42.92000	1024.00000
42.94000	1037.00000
42.96000	1021.00000
42.98000	1091.00000
43.00000	1054.00000
43.02000	1018.00000
43.04000	1063.00000
43.06000	1132.00000
43.08000	1216.00000
43.10000	1275.00000
43.12000	1328.00000
43.14000	1347.00000
43.16000	1416.00000
43.18000	1446.00000
43.20000	1381.00000
43.22000	1354.00000
43.24000	1229.00000
43.26000	1181.00000
43.28000	1065.00000
43.30000	1028.00000
43.32000	934.00000
43.34000	897.00000
43.36000	915.00000
43.38000	906.00000
43.40000	867.00000
43.42000	873.00000
43.44000	882.00000
43.46000	887.00000
43.48000	873.00000
43.50000	839.00000
43.52000	846.00000
43.54000	868.00000
43.56000	858.00000
43.58000	868.00000
43.60000	900.00000
43.62000	923.00000
43.64000	859.00000
43.66000	895.00000
43.68000	961.00000
43.70000	976.00000
43.72000	1064.00000
43.74000	1025.00000
43.76000	1036.00000
43.78000	1048.00000
43.80000	1016.00000
43.82000	1042.00000
43.84000	984.00000
43.86000	957.00000
43.88000	939.00000
43.90000	917.00000
43.92000	962.00000
43.94000	921.00000
43.96000	927.00000
43.98000	908.00000
44.00000	890.00000
44.02000	932.00000
44.04000	883.00000
44.06000	873.00000
44.08000	934.00000
44.10000	889.00000
44.12000	951.00000
44.14000	910.00000
44.16000	890.00000
44.18000	888.00000
44.20000	846.00000
44.22000	971.00000
44.24000	808.00000
44.26000	873.00000
44.28000	892.00000
44.30000	958.00000
44.32000	954.00000
44.34000	1036.00000
44.36000	1114.00000
44.38000	1147.00000
44.40000	1189.00000
44.42000	1194.00000
44.44000	1217.00000
44.46000	1144.00000
44.48000	1173.00000
44.50000	1116.00000
44.52000	1062.00000
44.54000	1086.00000
44.56000	1074.00000
44.58000	1082.00000
44.60000	1075.00000
44.62000	1149.00000
44.64000	1197.00000
44.66000	1261.00000
44.68000	1144.00000
44.70000	1165.00000
44.72000	1091.00000
44.74000	1060.00000
44.76000	1017.00000
44.78000	978.00000
44.80000	933.00000
44.82000	969.00000
44.84000	982.00000
44.86000	974.00000
44.88000	980.00000
44.90000	967.00000
44.92000	888.00000
44.94000	967.00000
44.96000	1009.00000
44.98000	1035.00000
45.00000	1142.00000
45.02000	1159.00000
45.04000	1275.00000
45.06000	1301.00000
45.08000	1289.00000
45.10000	1252.00000
45.12000	1173.00000
45.14000	1203.00000
45.16000	1133.00000
45.18000	1175.00000
45.20000	1149.00000
45.22000	1131.00000
45.24000	1025.00000
45.26000	962.00000
45.28000	1014.00000
45.30000	972.00000
45.32000	907.00000
45.34000	962.00000
45.36000	939.00000
45.38000	1022.00000
45.40000	1045.00000
45.42000	1093.00000
45.44000	1111.00000
45.46000	1110.00000
45.48000	1059.00000
45.50000	1010.00000
45.52000	979.00000
45.54000	966.00000
45.56000	970.00000
45.58000	1041.00000
45.60000	1094.00000
45.62000	1051.00000
45.64000	1123.00000
45.66000	1054.00000
45.68000	1052.00000
45.70000	1050.00000
45.72000	999.00000
45.74000	961.00000
45.76000	901.00000
45.78000	893.00000
45.80000	932.00000
45.82000	855.00000
45.84000	882.00000
45.86000	857.00000
45.88000	857.00000
45.90000	827.00000
45.92000	847.00000
45.94000	813.00000
45.96000	808.00000
45.98000	834.00000
46.00000	842.00000
46.02000	859.00000
46.04000	859.00000
46.06000	880.00000
46.08000	936.00000
46.10000	954.00000
46.12000	1017.00000
46.14000	1034.00000
46.16000	1042.00000
46.18000	1029.00000
46.20000	1007.00000
46.22000	970.00000
46.24000	1038.00000
46.26000	1006.00000
46.28000	964.00000
46.30000	978.00000
46.32000	920.00000
46.34000	906.00000
46.36000	905.00000
46.38000	841.00000
46.40000	873.00000
46.42000	816.00000
46.44000	840.00000
46.46000	828.00000
46.48000	813.00000
46.50000	807.00000
46.52000	794.00000
46.54000	860.00000
46.56000	829.00000
46.58000	881.00000
46.60000	804.00000
46.62000	841.00000
46.64000	798.00000
46.66000	830.00000
46.68000	854.00000
46.70000	853.00000
46.72000	776.00000
46.74000	826.00000
46.76000	833.00000
46.78000	841.00000
46.80000	854.00000
46.82000	837.00000
46.84000	826.00000
46.86000	861.00000
46.88000	798.00000
46.90000	857.00000
46.92000	842.00000
46.94000	884.00000
46.96000	830.00000
46.98000	855.00000
47.00000	846.00000
47.02000	837.00000
47.04000	851.00000
47.06000	864.00000
47.08000	888.00000
47.10000	852.00000
47.12000	835.00000
47.14000	810.00000
47.16000	795.00000
47.18000	806.00000
47.20000	808.00000
47.22000	825.00000
47.24000	778.00000
47.26000	800.00000
47.28000	841.00000
47.30000	856.00000
47.32000	922.00000
47.34000	939.00000
47.36000	1001.00000
47.38000	982.00000
47.40000	973.00000
47.42000	975.00000
47.44000	938.00000
47.46000	974.00000
47.48000	926.00000
47.50000	947.00000
47.52000	942.00000
47.54000	887.00000
47.56000	956.00000
47.58000	956.00000
47.60000	937.00000
47.62000	930.00000
47.64000	913.00000
47.66000	874.00000
47.68000	793.00000
47.70000	776.00000
47.72000	799.00000
47.74000	788.00000
47.76000	836.00000
47.78000	797.00000
47.80000	778.00000
47.82000	767.00000
47.84000	766.00000
47.86000	767.00000
47.88000	771.00000
47.90000	783.00000
47.92000	777.00000
47.94000	781.00000
47.96000	772.00000
47.98000	825.00000
48.00000	774.00000
48.02000	793.00000
48.04000	788.00000
48.06000	793.00000
48.08000	822.00000
48.10000	848.00000
48.12000	844.00000
48.14000	823.00000
48.16000	829.00000
48.18000	886.00000
48.20000	870.00000
48.22000	832.00000
48.24000	928.00000
48.26000	919.00000
48.28000	994.00000
48.30000	998.00000
48.32000	985.00000
48.34000	1030.00000
48.36000	1054.00000
48.38000	1071.00000
48.40000	1127.00000
48.42000	1138.00000
48.44000	1133.00000
48.46000	1108.00000
48.48000	1050.00000
48.50000	1093.00000
48.52000	1110.00000
48.54000	1107.00000
48.56000	1198.00000
48.58000	1120.00000
48.60000	1113.00000
48.62000	1125.00000
48.64000	1129.00000
48.66000	1130.00000
48.68000	1118.00000
48.70000	1154.00000
48.72000	1177.00000
48.74000	1273.00000
48.76000	1197.00000
48.78000	1187.00000
48.80000	1191.00000
48.82000	1060.00000
48.84000	1073.00000
48.86000	1010.00000
48.88000	982.00000
48.90000	988.00000
48.92000	1007.00000
48.94000	882.00000
48.96000	947.00000
48.98000	938.00000
49.00000	958.00000
49.02000	930.00000
49.04000	930.00000
49.06000	931.00000
49.08000	958.00000
49.10000	926.00000
49.12000	934.00000
49.14000	939.00000
49.16000	966.00000
49.18000	991.00000
49.20000	879.00000
49.22000	933.00000
49.24000	832.00000
49.26000	908.00000
49.28000	869.00000
49.30000	858.00000
49.32000	873.00000
49.34000	873.00000
49.36000	890.00000
49.38000	877.00000
49.40000	819.00000
49.42000	861.00000
49.44000	802.00000
49.46000	783.00000
49.48000	819.00000
49.50000	835.00000
49.52000	824.00000
49.54000	858.00000
49.56000	911.00000
49.58000	927.00000
49.60000	977.00000
49.62000	999.00000
49.64000	1035.00000
49.66000	1007.00000
49.68000	1031.00000
49.70000	944.00000
49.72000	917.00000
49.74000	917.00000
49.76000	837.00000
49.78000	855.00000
49.80000	918.00000
49.82000	890.00000
49.84000	882.00000
49.86000	986.00000
49.88000	1087.00000
49.90000	1154.00000
49.92000	1273.00000
49.94000	1297.00000
49.96000	1375.00000
49.98000	1358.00000
50.00000	1359.00000
50.02000	1229.00000
50.04000	1155.00000
50.06000	1008.00000
50.08000	998.00000
50.10000	942.00000
50.12000	873.00000
50.14000	893.00000
50.16000	822.00000
50.18000	827.00000
50.20000	881.00000
50.22000	872.00000
50.24000	881.00000
50.26000	885.00000
50.28000	911.00000
50.30000	901.00000
50.32000	883.00000
50.34000	884.00000
50.36000	907.00000
50.38000	837.00000
50.40000	843.00000
50.42000	867.00000
50.44000	810.00000
50.46000	810.00000
50.48000	797.00000
50.50000	770.00000
50.52000	793.00000
50.54000	766.00000
50.56000	773.00000
50.58000	790.00000
50.60000	768.00000
50.62000	775.00000
50.64000	852.00000
50.66000	854.00000
50.68000	905.00000
50.70000	865.00000
50.72000	904.00000
50.74000	891.00000
50.76000	913.00000
50.78000	868.00000
50.80000	862.00000
50.82000	930.00000
50.84000	944.00000
50.86000	984.00000
50.88000	1023.00000
50.90000	1000.00000
50.92000	1023.00000
50.94000	1004.00000
50.96000	1038.00000
50.98000	992.00000
51.00000	1005.00000
51.02000	1021.00000
51.04000	1041.00000
51.06000	1106.00000
51.08000	1139.00000
51.10000	1158.00000
51.12000	1110.00000
51.14000	1196.00000
51.16000	1194.00000
51.18000	1195.00000
51.20000	1126.00000
51.22000	1054.00000
51.24000	1018.00000
51.26000	946.00000
51.28000	889.00000
51.30000	836.00000
51.32000	860.00000
51.34000	828.00000
51.36000	797.00000
51.38000	811.00000
51.40000	799.00000
51.42000	792.00000
51.44000	732.00000
51.46000	793.00000
51.48000	806.00000
51.50000	809.00000
51.52000	821.00000
51.54000	816.00000
51.56000	809.00000
51.58000	791.00000
51.60000	846.00000
51.62000	853.00000
51.64000	849.00000
51.66000	836.00000
51.68000	859.00000
51.70000	818.00000
51.72000	831.00000
51.74000	745.00000
51.76000	762.00000
51.78000	722.00000
51.80000	720.00000
51.82000	763.00000
51.84000	718.00000
51.86000	717.00000
51.88000	740.00000
51.90000	778.00000
51.92000	806.00000
51.94000	757.00000
51.96000	763.00000
51.98000	794.00000
52.00000	826.00000
52.02000	834.00000
52.04000	846.00000
52.06000	845.00000
52.08000	909.00000
52.10000	864.00000
52.12000	858.00000
52.14000	828.00000
52.16000	817.00000
52.18000	755.00000
52.20000	784.00000
52.22000	751.00000
52.24000	773.00000
52.26000	793.00000
52.28000	797.00000
52.30000	794.00000
52.32000	809.00000
52.34000	799.00000
52.36000	827.00000
52.38000	854.00000
52.40000	908.00000
52.42000	882.00000
52.44000	861.00000
52.46000	890.00000
52.48000	812.00000
52.50000	839.00000
52.52000	792.00000
52.54000	796.00000
52.56000	778.00000
52.58000	781.00000
52.60000	744.00000
52.62000	786.00000
52.64000	742.00000
52.66000	780.00000
52.68000	787.00000
52.70000	853.00000
52.72000	803.00000
52.74000	915.00000
52.76000	918.00000
52.78000	942.00000
52.80000	992.00000
52.82000	950.00000
52.84000	974.00000
52.86000	929.00000
52.88000	974.00000
52.90000	933.00000
52.92000	923.00000
52.94000	908.00000
52.96000	858.00000
52.98000	816.00000
53.00000	849.00000
53.02000	879.00000
53.04000	815.00000
53.06000	820.00000
53.08000	866.00000
53.10000	875.00000
53.12000	830.00000
53.14000	919.00000
53.16000	908.00000
53.18000	937.00000
53.20000	885.00000
53.22000	912.00000
53.24000	833.00000
53.26000	889.00000
53.28000	933.00000
53.30000	911.00000
53.32000	963.00000
53.34000	976.00000
53.36000	1035.00000
53.38000	1049.00000
53.40000	1121.00000
53.42000	1097.00000
53.44000	1080.00000
53.46000	1029.00000
53.48000	987.00000
53.50000	967.00000
53.52000	979.00000
53.54000	877.00000
53.56000	896.00000
53.58000	885.00000
53.60000	841.00000
53.62000	837.00000
53.64000	803.00000
53.66000	841.00000
53.68000	777.00000
53.70000	798.00000
53.72000	782.00000
53.74000	782.00000
53.76000	756.00000
53.78000	745.00000
53.80000	812.00000
53.82000	795.00000
53.84000	836.00000
53.86000	791.00000
53.88000	821.00000
53.90000	848.00000
53.92000	823.00000
53.94000	830.00000
53.96000	844.00000
53.98000	814.00000
54.00000	777.00000
54.02000	797.00000
54.04000	766.00000
54.06000	775.00000
54.08000	777.00000
54.10000	741.00000
54.12000	706.00000
54.14000	707.00000
54.16000	711.00000
54.18000	729.00000
54.20000	798.00000
54.22000	752.00000
54.24000	761.00000
54.26000	778.00000
54.28000	775.00000
54.30000	846.00000
54.32000	802.00000
54.34000	802.00000
54.36000	822.00000
54.38000	844.00000
54.40000	850.00000
54.42000	838.00000
54.44000	874.00000
54.46000	839.00000
54.48000	850.00000
54.50000	841.00000
54.52000	822.00000
54.54000	803.00000
54.56000	715.00000
54.58000	739.00000
54.60000	750.00000
54.62000	768.00000
54.64000	760.00000
54.66000	780.00000
54.68000	807.00000
54.70000	853.00000
54.72000	848.00000
54.74000	945.00000
54.76000	971.00000
54.78000	906.00000
54.80000	917.00000
54.82000	847.00000
54.84000	896.00000
54.86000	813.00000
54.88000	823.00000
54.90000	792.00000
54.92000	823.00000
54.94000	804.00000
54.96000	792.00000
54.98000	780.00000
55.00000	808.00000
55.02000	815.00000
55.04000	774.00000
55.06000	801.00000
55.08000	726.00000
55.10000	764.00000
55.12000	754.00000
55.14000	712.00000
55.16000	730.00000
55.18000	704.00000
55.20000	731.00000
55.22000	717.00000
55.24000	738.00000
55.26000	763.00000
55.28000	713.00000
55.30000	747.00000
55.32000	772.00000
55.34000	758.00000
55.36000	744.00000
55.38000	765.00000
55.40000	706.00000
55.42000	731.00000
55.44000	773.00000
55.46000	708.00000
55.48000	805.00000
55.50000	735.00000
55.52000	748.00000
55.54000	734.00000
55.56000	748.00000
55.58000	731.00000
55.60000	731.00000
55.62000	718.00000
55.64000	752.00000
55.66000	760.00000
55.68000	759.00000
55.70000	738.00000
55.72000	785.00000
55.74000	808.00000
55.76000	823.00000
55.78000	857.00000
55.80000	874.00000
55.82000	884.00000
55.84000	922.00000
55.86000	895.00000
55.88000	897.00000
55.90000	875.00000
55.92000	847.00000
55.94000	803.00000
55.96000	790.00000
55.98000	803.00000
56.00000	775.00000
56.02000	789.00000
56.04000	845.00000
56.06000	793.00000
56.08000	887.00000
56.10000	850.00000
56.12000	848.00000
56.14000	817.00000
56.16000	805.00000
56.18000	811.00000
56.20000	789.00000
56.22000	859.00000
56.24000	899.00000
56.26000	823.00000
56.28000	904.00000
56.30000	892.00000
56.32000	940.00000
56.34000	934.00000
56.36000	980.00000
56.38000	993.00000
56.40000	981.00000
56.42000	1006.00000
56.44000	972.00000
56.46000	950.00000
56.48000	1003.00000
56.50000	1000.00000
56.52000	931.00000
56.54000	876.00000
56.56000	838.00000
56.58000	815.00000
56.60000	866.00000
56.62000	855.00000
56.64000	837.00000
56.66000	877.00000
56.68000	798.00000
56.70000	823.00000
56.72000	786.00000
56.74000	806.00000
56.76000	780.00000
56.78000	741.00000
56.80000	785.00000
56.82000	778.00000
56.84000	766.00000
56.86000	759.00000
56.88000	742.00000
56.90000	791.00000
56.92000	740.00000
56.94000	774.00000
56.96000	747.00000
56.98000	792.00000
57.00000	818.00000
57.02000	840.00000
57.04000	781.00000
57.06000	796.00000
57.08000	781.00000
57.10000	774.00000
57.12000	768.00000
57.14000	788.00000
57.16000	803.00000
57.18000	776.00000
57.20000	778.00000
57.22000	823.00000
57.24000	824.00000
57.26000	892.00000
57.28000	837.00000
57.30000	847.00000
57.32000	878.00000
57.34000	795.00000
57.36000	801.00000
57.38000	795.00000
57.40000	812.00000
57.42000	788.00000
57.44000	773.00000
57.46000	790.00000
57.48000	812.00000
57.50000	831.00000
57.52000	820.00000
57.54000	789.00000
57.56000	785.00000
57.58000	762.00000
57.60000	799.00000
57.62000	794.00000
57.64000	764.00000
57.66000	757.00000
57.68000	773.00000
57.70000	767.00000
57.72000	813.00000
57.74000	869.00000
57.76000	823.00000
57.78000	836.00000
57.80000	877.00000
57.82000	884.00000
57.84000	849.00000
57.86000	897.00000
57.88000	835.00000
57.90000	841.00000
57.92000	786.00000
57.94000	803.00000
57.96000	752.00000
57.98000	803.00000
58.00000	795.00000
58.02000	804.00000
58.04000	776.00000
58.06000	807.00000
58.08000	786.00000
58.10000	750.00000
58.12000	776.00000
58.14000	766.00000
58.16000	760.00000
58.18000	722.00000
58.20000	780.00000
58.22000	738.00000
58.24000	713.00000
58.26000	727.00000
58.28000	721.00000
58.30000	705.00000
58.32000	692.00000
58.34000	735.00000
58.36000	784.00000
58.38000	799.00000
58.40000	795.00000
58.42000	836.00000
58.44000	845.00000
58.46000	932.00000
58.48000	907.00000
58.50000	956.00000
58.52000	997.00000
58.54000	1073.00000
58.56000	1038.00000
58.58000	1021.00000
58.60000	1007.00000
58.62000	1008.00000
58.64000	958.00000
58.66000	906.00000
58.68000	870.00000
58.70000	841.00000
58.72000	892.00000
58.74000	871.00000
58.76000	862.00000
58.78000	882.00000
58.80000	867.00000
58.82000	876.00000
58.84000	843.00000
58.86000	868.00000
58.88000	833.00000
58.90000	880.00000
58.92000	782.00000
58.94000	848.00000
58.96000	894.00000
58.98000	901.00000
59.00000	837.00000
59.02000	801.00000
59.04000	798.00000
59.06000	785.00000
59.08000	788.00000
59.10000	747.00000
59.12000	807.00000
59.14000	714.00000
59.16000	713.00000
59.18000	736.00000
59.20000	720.00000
59.22000	744.00000
59.24000	747.00000
59.26000	728.00000
59.28000	730.00000
59.30000	686.00000
59.32000	696.00000
59.34000	727.00000
59.36000	741.00000
59.38000	738.00000
59.40000	677.00000
59.42000	723.00000
59.44000	765.00000
59.46000	773.00000
59.48000	752.00000
59.50000	798.00000
59.52000	825.00000
59.54000	849.00000
59.56000	863.00000
59.58000	920.00000
59.60000	921.00000
59.62000	907.00000
59.64000	917.00000
59.66000	927.00000
59.68000	852.00000
59.70000	849.00000
59.72000	877.00000
59.74000	925.00000
59.76000	903.00000
59.78000	843.00000
59.80000	848.00000
59.82000	805.00000
59.84000	842.00000
59.86000	852.00000
59.88000	840.00000
59.90000	804.00000
59.92000	781.00000
59.94000	801.00000
59.96000	801.00000
59.98000	728.00000
60.00000	759.00000
60.02000	727.00000
60.04000	788.00000
60.06000	779.00000
60.08000	718.00000
60.10000	793.00000
60.12000	752.00000
60.14000	787.00000
60.16000	846.00000
60.18000	825.00000
60.20000	776.00000
60.22000	839.00000
60.24000	895.00000
60.26000	906.00000
60.28000	875.00000
60.30000	886.00000
60.32000	950.00000
60.34000	925.00000
60.36000	964.00000
60.38000	931.00000
60.40000	897.00000
60.42000	900.00000
60.44000	877.00000
60.46000	836.00000
60.48000	821.00000
60.50000	840.00000
60.52000	783.00000
60.54000	784.00000
60.56000	795.00000
60.58000	770.00000
60.60000	780.00000
60.62000	794.00000
60.64000	814.00000
60.66000	725.00000
60.68000	733.00000
60.70000	726.00000
60.72000	762.00000
60.74000	717.00000
60.76000	699.00000
60.78000	730.00000
60.80000	699.00000
60.82000	794.00000
60.84000	790.00000
60.86000	826.00000
60.88000	760.00000
60.90000	811.00000
60.92000	855.00000
60.94000	896.00000
60.96000	876.00000
60.98000	860.00000
61.00000	855.00000
61.02000	807.00000
61.04000	809.00000
61.06000	743.00000
61.08000	732.00000
61.10000	747.00000
61.12000	759.00000
61.14000	804.00000
61.16000	724.00000
61.18000	763.00000
61.20000	713.00000
61.22000	699.00000
61.24000	756.00000
61.26000	729.00000
61.28000	708.00000
61.30000	746.00000
61.32000	788.00000
61.34000	759.00000
61.36000	721.00000
61.38000	761.00000
61.40000	810.00000
61.42000	786.00000
61.44000	793.00000
61.46000	775.00000
61.48000	738.00000
61.50000	764.00000
61.52000	755.00000
61.54000	745.00000
61.56000	716.00000
61.58000	763.00000
61.60000	784.00000
61.62000	758.00000
61.64000	759.00000
61.66000	798.00000
61.68000	744.00000
61.70000	769.00000
61.72000	745.00000
61.74000	738.00000
61.76000	766.00000
61.78000	734.00000
61.80000	714.00000
61.82000	721.00000
61.84000	750.00000
61.86000	740.00000
61.88000	690.00000
61.90000	671.00000
61.92000	728.00000
61.94000	671.00000
61.96000	671.00000
61.98000	660.00000
62.00000	701.00000
62.02000	666.00000
62.04000	696.00000
62.06000	713.00000
62.08000	667.00000
62.10000	697.00000
62.12000	655.00000
62.14000	694.00000
62.16000	691.00000
62.18000	679.00000
62.20000	734.00000
62.22000	712.00000
62.24000	708.00000
62.26000	705.00000
62.28000	746.00000
62.30000	776.00000
62.32000	756.00000
62.34000	800.00000
62.36000	752.00000
62.38000	850.00000
62.40000	836.00000
62.42000	841.00000
62.44000	816.00000
62.46000	830.00000
62.48000	817.00000
62.50000	814.00000
62.52000	775.00000
62.54000	794.00000
62.56000	757.00000
62.58000	762.00000
62.60000	751.00000
62.62000	759.00000
62.64000	721.00000
62.66000	671.00000
62.68000	680.00000
62.70000	736.00000
62.72000	684.00000
62.74000	724.00000
62.76000	721.00000
62.78000	706.00000
62.80000	671.00000
62.82000	685.00000
62.84000	692.00000
62.86000	655.00000
62.88000	669.00000
62.90000	663.00000
62.92000	645.00000
62.94000	670.00000
62.96000	655.00000
62.98000	679.00000
63.00000	661.00000
63.02000	664.00000
63.04000	676.00000
63.06000	674.00000
63.08000	690.00000
63.10000	709.00000
63.12000	690.00000
63.14000	739.00000
63.16000	674.00000
63.18000	719.00000
63.20000	720.00000
63.22000	709.00000
63.24000	715.00000
63.26000	730.00000
63.28000	772.00000
63.30000	765.00000
63.32000	754.00000
63.34000	769.00000
63.36000	757.00000
63.38000	753.00000
63.40000	731.00000
63.42000	726.00000
63.44000	699.00000
63.46000	751.00000
63.48000	770.00000
63.50000	753.00000
63.52000	718.00000
63.54000	757.00000
63.56000	699.00000
63.58000	745.00000
63.60000	726.00000
63.62000	719.00000
63.64000	759.00000
63.66000	715.00000
63.68000	719.00000
63.70000	724.00000
63.72000	838.00000
63.74000	859.00000
63.76000	821.00000
63.78000	863.00000
63.80000	852.00000
63.82000	841.00000
63.84000	891.00000
63.86000	806.00000
63.88000	781.00000
63.90000	825.00000
63.92000	755.00000
63.94000	790.00000
63.96000	782.00000
63.98000	750.00000
64.00000	758.00000
64.02000	751.00000
64.04000	708.00000
64.06000	723.00000
64.08000	736.00000
64.10000	706.00000
64.12000	756.00000
64.14000	750.00000
64.16000	740.00000
64.18000	689.00000
64.20000	674.00000
64.22000	735.00000
64.24000	741.00000
64.26000	693.00000
64.28000	677.00000
64.30000	723.00000
64.32000	699.00000
64.34000	676.00000
64.36000	696.00000
64.38000	690.00000
64.40000	690.00000
64.42000	732.00000
64.44000	662.00000
64.46000	658.00000
64.48000	687.00000
64.50000	689.00000
64.52000	655.00000
64.54000	747.00000
64.56000	672.00000
64.58000	676.00000
64.60000	681.00000
64.62000	749.00000
64.64000	780.00000
64.66000	765.00000
64.68000	759.00000
64.70000	783.00000
64.72000	755.00000
64.74000	802.00000
64.76000	741.00000
64.78000	745.00000
64.80000	752.00000
64.82000	744.00000
64.84000	752.00000
64.86000	738.00000
64.88000	806.00000
64.90000	870.00000
64.92000	840.00000
64.94000	852.00000
64.96000	913.00000
64.98000	897.00000
65.00000	881.00000
65.02000	922.00000
65.04000	878.00000
65.06000	805.00000
65.08000	772.00000
65.10000	750.00000
65.12000	663.00000
65.14000	650.00000
65.16000	686.00000
65.18000	674.00000
65.20000	718.00000
65.22000	688.00000
65.24000	706.00000
65.26000	688.00000
65.28000	682.00000
65.30000	719.00000
65.32000	724.00000
65.34000	708.00000
65.36000	723.00000
65.38000	727.00000
65.40000	717.00000
65.42000	720.00000
65.44000	750.00000
65.46000	728.00000
65.48000	770.00000
65.50000	749.00000
65.52000	760.00000
65.54000	740.00000
65.56000	757.00000
65.58000	750.00000
65.60000	721.00000
65.62000	761.00000
65.64000	777.00000
65.66000	749.00000
65.68000	758.00000
65.70000	744.00000
65.72000	742.00000
65.74000	656.00000
65.76000	695.00000
65.78000	658.00000
65.80000	689.00000
65.82000	668.00000
65.84000	720.00000
65.86000	705.00000
65.88000	703.00000
65.90000	698.00000
65.92000	714.00000
65.94000	756.00000
65.96000	728.00000
65.98000	673.00000
66.00000	697.00000
66.02000	703.00000
66.04000	785.00000
66.06000	807.00000
66.08000	828.00000
66.10000	844.00000
66.12000	869.00000
66.14000	809.00000
66.16000	831.00000
66.18000	821.00000
66.20000	802.00000
66.22000	800.00000
66.24000	789.00000
66.26000	748.00000
66.28000	681.00000
66.30000	678.00000
66.32000	634.00000
66.34000	698.00000
66.36000	681.00000
66.38000	628.00000
66.40000	603.00000
66.42000	657.00000
66.44000	633.00000
66.46000	616.00000
66.48000	665.00000
66.50000	649.00000
66.52000	668.00000
66.54000	655.00000
66.56000	669.00000
66.58000	679.00000
66.60000	690.00000
66.62000	649.00000
66.64000	664.00000
66.66000	705.00000
66.68000	679.00000
66.70000	628.00000
66.72000	655.00000
66.74000	614.00000
66.76000	625.00000
66.78000	636.00000
66.80000	601.00000
66.82000	625.00000
66.84000	618.00000
66.86000	634.00000
66.88000	649.00000
66.90000	639.00000
66.92000	603.00000
66.94000	607.00000
66.96000	621.00000
66.98000	675.00000
67.00000	690.00000
67.02000	672.00000
67.04000	675.00000
67.06000	702.00000
67.08000	708.00000
67.10000	724.00000
67.12000	739.00000
67.14000	738.00000
67.16000	765.00000
67.18000	719.00000
67.20000	722.00000
67.22000	717.00000
67.24000	708.00000
67.26000	670.00000
67.28000	673.00000
67.30000	685.00000
67.32000	697.00000
67.34000	707.00000
67.36000	647.00000
67.38000	693.00000
67.40000	753.00000
67.42000	712.00000
67.44000	751.00000
67.46000	723.00000
67.48000	701.00000
67.50000	746.00000
67.52000	729.00000
67.54000	694.00000
67.56000	723.00000
67.58000	722.00000
67.60000	672.00000
67.62000	721.00000
67.64000	710.00000
67.66000	693.00000
67.68000	685.00000
67.70000	679.00000
67.72000	699.00000
67.74000	656.00000
67.76000	653.00000
67.78000	666.00000
67.80000	657.00000
67.82000	654.00000
67.84000	684.00000
67.86000	667.00000
67.88000	638.00000
67.90000	647.00000
67.92000	660.00000
67.94000	658.00000
67.96000	663.00000
67.98000	641.00000
68.00000	620.00000
68.02000	664.00000
68.04000	631.00000
68.06000	610.00000
68.08000	638.00000
68.10000	712.00000
68.12000	691.00000
68.14000	652.00000
68.16000	651.00000
68.18000	662.00000
68.20000	696.00000
68.22000	740.00000
68.24000	711.00000
68.26000	711.00000
68.28000	734.00000
68.30000	732.00000
68.32000	704.00000
68.34000	675.00000
68.36000	691.00000
68.38000	709.00000
68.40000	708.00000
68.42000	685.00000
68.44000	656.00000
68.46000	672.00000
68.48000	694.00000
68.50000	645.00000
68.52000	642.00000
68.54000	658.00000
68.56000	666.00000
68.58000	690.00000
68.60000	671.00000
68.62000	654.00000
68.64000	615.00000
68.66000	650.00000
68.68000	628.00000
68.70000	636.00000
68.72000	674.00000
68.74000	639.00000
68.76000	604.00000
68.78000	589.00000
68.80000	643.00000
68.82000	674.00000
68.84000	647.00000
68.86000	632.00000
68.88000	620.00000
68.90000	666.00000
68.92000	661.00000
68.94000	703.00000
68.96000	682.00000
68.98000	706.00000
69.00000	709.00000
69.02000	724.00000
69.04000	702.00000
69.06000	755.00000
69.08000	723.00000
69.10000	678.00000
69.12000	700.00000
69.14000	673.00000
69.16000	694.00000
69.18000	695.00000
69.20000	707.00000
69.22000	694.00000
69.24000	706.00000
69.26000	679.00000
69.28000	673.00000
69.30000	668.00000
69.32000	640.00000
69.34000	709.00000
69.36000	687.00000
69.38000	663.00000
69.40000	659.00000
69.42000	650.00000
69.44000	655.00000
69.46000	671.00000
69.48000	618.00000
69.50000	607.00000
69.52000	645.00000
69.54000	635.00000
69.56000	605.00000
69.58000	602.00000
69.60000	594.00000
69.62000	630.00000
69.64000	582.00000
69.66000	578.00000
69.68000	595.00000
69.70000	598.00000
69.72000	625.00000
69.74000	644.00000
69.76000	618.00000
69.78000	604.00000
69.80000	638.00000
69.82000	639.00000
69.84000	654.00000
69.86000	643.00000
69.88000	703.00000
69.90000	634.00000
69.92000	651.00000
69.94000	652.00000
69.96000	618.00000
69.98000	686.00000
70.00000	622.00000
70.02000	620.00000
70.04000	632.00000
70.06000	596.00000
70.08000	567.00000
70.10000	599.00000
70.12000	595.00000
70.14000	636.00000
70.16000	603.00000
70.18000	603.00000
70.20000	640.00000
70.22000	598.00000
70.24000	613.00000
70.26000	618.00000
70.28000	605.00000
70.30000	597.00000
70.32000	584.00000
70.34000	641.00000
70.36000	626.00000
70.38000	633.00000
70.40000	623.00000
70.42000	655.00000
70.44000	662.00000
70.46000	661.00000
70.48000	626.00000
70.50000	602.00000
70.52000	656.00000
70.54000	615.00000
70.56000	679.00000
70.58000	622.00000
70.60000	661.00000
70.62000	644.00000
70.64000	643.00000
70.66000	629.00000
70.68000	614.00000
70.70000	590.00000
70.72000	611.00000
70.74000	588.00000
70.76000	646.00000
70.78000	650.00000
70.80000	620.00000
70.82000	637.00000
70.84000	640.00000
70.86000	646.00000
70.88000	656.00000
70.90000	631.00000
70.92000	703.00000
70.94000	649.00000
70.96000	693.00000
70.98000	654.00000
71.00000	673.00000
71.02000	663.00000
71.04000	679.00000
71.06000	661.00000
71.08000	686.00000
71.10000	683.00000
71.12000	693.00000
71.14000	634.00000
71.16000	659.00000
71.18000	725.00000
71.20000	648.00000
71.22000	652.00000
71.24000	587.00000
71.26000	629.00000
71.28000	611.00000
71.30000	661.00000
71.32000	615.00000
71.34000	637.00000
71.36000	669.00000
71.38000	685.00000
71.40000	659.00000
71.42000	675.00000
71.44000	695.00000
71.46000	679.00000
71.48000	693.00000
71.50000	722.00000
71.52000	651.00000
71.54000	709.00000
71.56000	684.00000
71.58000	698.00000
71.60000	718.00000
71.62000	729.00000
71.64000	699.00000
71.66000	685.00000
71.68000	740.00000
71.70000	713.00000
71.72000	675.00000
71.74000	697.00000
71.76000	672.00000
71.78000	644.00000
71.80000	666.00000
71.82000	650.00000
71.84000	645.00000
71.86000	637.00000
71.88000	653.00000
71.90000	622.00000
71.92000	642.00000
71.94000	588.00000
71.96000	617.00000
71.98000	633.00000
72.00000	637.00000
72.02000	596.00000
72.04000	632.00000
72.06000	617.00000
72.08000	647.00000
72.10000	604.00000
72.12000	641.00000
72.14000	615.00000
72.16000	681.00000
72.18000	712.00000
72.20000	663.00000
72.22000	662.00000
72.24000	678.00000
72.26000	676.00000
72.28000	652.00000
72.30000	621.00000
72.32000	626.00000
72.34000	623.00000
72.36000	637.00000
72.38000	640.00000
72.40000	625.00000
72.42000	622.00000
72.44000	705.00000
72.46000	671.00000
72.48000	656.00000
72.50000	668.00000
72.52000	643.00000
72.54000	665.00000
72.56000	694.00000
72.58000	675.00000
72.60000	658.00000
72.62000	644.00000
72.64000	678.00000
72.66000	652.00000
72.68000	663.00000
72.70000	627.00000
72.72000	600.00000
72.74000	654.00000
72.76000	653.00000
72.78000	694.00000
72.80000	667.00000
72.82000	676.00000
72.84000	626.00000
72.86000	621.00000
72.88000	640.00000
72.90000	651.00000
72.92000	638.00000
72.94000	566.00000
72.96000	606.00000
72.98000	611.00000
73.00000	572.00000
73.02000	584.00000
73.04000	598.00000
73.06000	612.00000
73.08000	586.00000
73.10000	585.00000
73.12000	557.00000
73.14000	558.00000
73.16000	604.00000
73.18000	585.00000
73.20000	592.00000
73.22000	562.00000
73.24000	608.00000
73.26000	598.00000
73.28000	573.00000
73.30000	608.00000
73.32000	610.00000
73.34000	605.00000
73.36000	577.00000
73.38000	603.00000
73.40000	564.00000
73.42000	551.00000
73.44000	598.00000
73.46000	577.00000
73.48000	560.00000
73.50000	565.00000
73.52000	611.00000
73.54000	635.00000
73.56000	592.00000
73.58000	605.00000
73.60000	579.00000
73.62000	580.00000
73.64000	620.00000
73.66000	630.00000
73.68000	614.00000
73.70000	581.00000
73.72000	599.00000
73.74000	644.00000
73.76000	614.00000
73.78000	611.00000
73.80000	588.00000
73.82000	607.00000
73.84000	588.00000
73.86000	601.00000
73.88000	595.00000
73.90000	603.00000
73.92000	574.00000
73.94000	573.00000
73.96000	545.00000
73.98000	547.00000
74.00000	553.00000
74.02000	594.00000
74.04000	625.00000
74.06000	605.00000
74.08000	599.00000
74.10000	629.00000
74.12000	562.00000
74.14000	625.00000
74.16000	673.00000
74.18000	628.00000
74.20000	625.00000
74.22000	617.00000
74.24000	646.00000
74.26000	646.00000
74.28000	668.00000
74.30000	694.00000
74.32000	677.00000
74.34000	624.00000
74.36000	638.00000
74.38000	650.00000
74.40000	646.00000
74.42000	613.00000
74.44000	627.00000
74.46000	634.00000
74.48000	615.00000
74.50000	602.00000
74.52000	635.00000
74.54000	625.00000
74.56000	636.00000
74.58000	589.00000
74.60000	595.00000
74.62000	577.00000
74.64000	571.00000
74.66000	577.00000
74.68000	576.00000
74.70000	526.00000
74.72000	576.00000
74.74000	572.00000
74.76000	566.00000
74.78000	525.00000
74.80000	545.00000
74.82000	538.00000
74.84000	559.00000
74.86000	558.00000
74.88000	535.00000
74.90000	584.00000
74.92000	580.00000
74.94000	543.00000
74.96000	545.00000
74.98000	562.00000
75.00000	537.00000
75.02000	572.00000
75.04000	554.00000
75.06000	570.00000
75.08000	595.00000
75.10000	563.00000
75.12000	581.00000
75.14000	537.00000
75.16000	583.00000
75.18000	547.00000
75.20000	573.00000
75.22000	604.00000
75.24000	578.00000
75.26000	591.00000
75.28000	598.00000
75.30000	575.00000
75.32000	539.00000
75.34000	567.00000
75.36000	631.00000
75.38000	578.00000
75.40000	569.00000
75.42000	601.00000
75.44000	587.00000
75.46000	604.00000
75.48000	599.00000
75.50000	586.00000
75.52000	627.00000
75.54000	593.00000
75.56000	604.00000
75.58000	623.00000
75.60000	637.00000
75.62000	622.00000
75.64000	628.00000
75.66000	624.00000
75.68000	598.00000
75.70000	606.00000
75.72000	614.00000
75.74000	616.00000
75.76000	629.00000
75.78000	614.00000
75.80000	556.00000
75.82000	542.00000
75.84000	567.00000
75.86000	596.00000
75.88000	601.00000
75.90000	577.00000
75.92000	573.00000
75.94000	567.00000
75.96000	595.00000
75.98000	598.00000
76.00000	569.00000
76.02000	591.00000
76.04000	616.00000
76.06000	575.00000
76.08000	609.00000
76.10000	612.00000
76.12000	588.00000
76.14000	656.00000
76.16000	587.00000
76.18000	563.00000
76.20000	556.00000
76.22000	574.00000
76.24000	608.00000
76.26000	544.00000
76.28000	550.00000
76.30000	568.00000
76.32000	545.00000
76.34000	579.00000
76.36000	543.00000
76.38000	554.00000
76.40000	576.00000
76.42000	583.00000
76.44000	589.00000
76.46000	581.00000
76.48000	585.00000
76.50000	540.00000
76.52000	567.00000
76.54000	568.00000
76.56000	585.00000
76.58000	605.00000
76.60000	585.00000
76.62000	604.00000
76.64000	570.00000
76.66000	627.00000
76.68000	620.00000
76.70000	636.00000
76.72000	613.00000
76.74000	649.00000
76.76000	660.00000
76.78000	638.00000
76.80000	682.00000
76.82000	660.00000
76.84000	632.00000
76.86000	631.00000
76.88000	630.00000
76.90000	647.00000
76.92000	652.00000
76.94000	625.00000
76.96000	637.00000
76.98000	596.00000
77.00000	616.00000
77.02000	580.00000
77.04000	585.00000
77.06000	595.00000
77.08000	606.00000
77.10000	580.00000
77.12000	604.00000
77.14000	554.00000
77.16000	608.00000
77.18000	647.00000
77.20000	624.00000
77.22000	609.00000
77.24000	624.00000
77.26000	668.00000
77.28000	659.00000
77.30000	679.00000
77.32000	645.00000
77.34000	625.00000
77.36000	637.00000
77.38000	648.00000
77.40000	629.00000
77.42000	585.00000
77.44000	545.00000
77.46000	601.00000
77.48000	600.00000
77.50000	600.00000
77.52000	622.00000
77.54000	568.00000
77.56000	562.00000
77.58000	613.00000
77.60000	621.00000
77.62000	622.00000
77.64000	644.00000
77.66000	652.00000
77.68000	639.00000
77.70000	655.00000
77.72000	601.00000
77.74000	636.00000
77.76000	681.00000
77.78000	615.00000
77.80000	641.00000
77.82000	632.00000
77.84000	647.00000
77.86000	630.00000
77.88000	599.00000
77.90000	620.00000
77.92000	586.00000
77.94000	558.00000
77.96000	563.00000
77.98000	614.00000
78.00000	630.00000
78.02000	615.00000
78.04000	612.00000
78.06000	615.00000
78.08000	607.00000
78.10000	627.00000
78.12000	613.00000
78.14000	602.00000
78.16000	611.00000
78.18000	603.00000
78.20000	593.00000
78.22000	614.00000
78.24000	651.00000
78.26000	663.00000
78.28000	625.00000
78.30000	627.00000
78.32000	625.00000
78.34000	590.00000
78.36000	603.00000
78.38000	615.00000
78.40000	618.00000
78.42000	579.00000
78.44000	582.00000
78.46000	626.00000
78.48000	594.00000
78.50000	591.00000
78.52000	582.00000
78.54000	622.00000
78.56000	572.00000
78.58000	572.00000
78.60000	631.00000
78.62000	599.00000
78.64000	589.00000
78.66000	612.00000
78.68000	624.00000
78.70000	641.00000
78.72000	605.00000
78.74000	605.00000
78.76000	585.00000
78.78000	611.00000
78.80000	595.00000
78.82000	590.00000
78.84000	561.00000
78.86000	580.00000
78.88000	597.00000
78.90000	645.00000
78.92000	600.00000
78.94000	666.00000
78.96000	610.00000
78.98000	636.00000
79.00000	641.00000
79.02000	653.00000
79.04000	632.00000
79.06000	588.00000
79.08000	583.00000
79.10000	610.00000
79.12000	601.00000
79.14000	574.00000
79.16000	605.00000
79.18000	609.00000
79.20000	613.00000
79.22000	580.00000
79.24000	627.00000
79.26000	590.00000
79.28000	603.00000
79.30000	637.00000
79.32000	622.00000
79.34000	615.00000
79.36000	576.00000
79.38000	553.00000
79.40000	609.00000
79.42000	564.00000
79.44000	535.00000
79.46000	585.00000
79.48000	571.00000
79.50000	567.00000
79.52000	539.00000
79.54000	528.00000
79.56000	572.00000
79.58000	545.00000
79.60000	572.00000
79.62000	546.00000
79.64000	550.00000
79.66000	568.00000
79.68000	536.00000
79.70000	562.00000
79.72000	534.00000
79.74000	551.00000
79.76000	525.00000
79.78000	529.00000
79.80000	599.00000
79.82000	590.00000
79.84000	588.00000
79.86000	544.00000
79.88000	557.00000
79.90000	543.00000
79.92000	576.00000
79.94000	567.00000
79.96000	609.00000
79.98000	574.00000
80.00000	600.00000
80.02000	588.00000
80.04000	585.00000
80.06000	584.00000
80.08000	592.00000
80.10000	575.00000
80.12000	622.00000
80.14000	613.00000
80.16000	592.00000
80.18000	641.00000
80.20000	600.00000
80.22000	630.00000
80.24000	638.00000
80.26000	616.00000
80.28000	647.00000
80.30000	623.00000
80.32000	604.00000
80.34000	615.00000
80.36000	603.00000
80.38000	587.00000
80.40000	577.00000
80.42000	583.00000
80.44000	597.00000
80.46000	591.00000
80.48000	556.00000
80.50000	565.00000
80.52000	582.00000
80.54000	555.00000
80.56000	528.00000
80.58000	597.00000
80.60000	541.00000
80.62000	557.00000
80.64000	590.00000
80.66000	570.00000
80.68000	573.00000
80.70000	602.00000
80.72000	584.00000
80.74000	610.00000
80.76000	615.00000
80.78000	593.00000
80.80000	583.00000
80.82000	563.00000
80.84000	560.00000
80.86000	557.00000
80.88000	554.00000
80.90000	539.00000
80.92000	512.00000
80.94000	531.00000
80.96000	553.00000
80.98000	539.00000
81.00000	529.00000
81.02000	523.00000
81.04000	542.00000
81.06000	555.00000
81.08000	555.00000
81.10000	533.00000
81.12000	533.00000
81.14000	548.00000
81.16000	532.00000
81.18000	533.00000
81.20000	531.00000
81.22000	520.00000
81.24000	518.00000
81.26000	526.00000
81.28000	541.00000
81.30000	567.00000
81.32000	581.00000
81.34000	584.00000
81.36000	544.00000
81.38000	544.00000
81.40000	541.00000
81.42000	548.00000
81.44000	581.00000
81.46000	582.00000
81.48000	565.00000
81.50000	557.00000
81.52000	525.00000
81.54000	529.00000
81.56000	549.00000
81.58000	517.00000
81.60000	563.00000
81.62000	490.00000
81.64000	526.00000
81.66000	562.00000
81.68000	576.00000
81.70000	556.00000
81.72000	549.00000
81.74000	553.00000
81.76000	540.00000
81.78000	523.00000
81.80000	542.00000
81.82000	581.00000
81.84000	554.00000
81.86000	552.00000
81.88000	562.00000
81.90000	571.00000
81.92000	583.00000
81.94000	588.00000
81.96000	591.00000
81.98000	568.00000
82.00000	559.00000
82.02000	522.00000
82.04000	564.00000
82.06000	589.00000
82.08000	550.00000
82.10000	556.00000
82.12000	548.00000
82.14000	546.00000
82.16000	515.00000
82.18000	522.00000
82.20000	536.00000
82.22000	529.00000
82.24000	575.00000
82.26000	555.00000
82.28000	537.00000
82.30000	567.00000
82.32000	545.00000
82.34000	577.00000
82.36000	526.00000
82.38000	578.00000
82.40000	569.00000
82.42000	507.00000
82.44000	525.00000
82.46000	538.00000
82.48000	526.00000
82.50000	511.00000
82.52000	530.00000
82.54000	536.00000
82.56000	514.00000
82.58000	541.00000
82.60000	543.00000
82.62000	625.00000
82.64000	569.00000
82.66000	558.00000
82.68000	533.00000
82.70000	507.00000
82.72000	551.00000
82.74000	539.00000
82.76000	535.00000
82.78000	494.00000
82.80000	535.00000
82.82000	514.00000
82.84000	489.00000
82.86000	540.00000
82.88000	530.00000
82.90000	551.00000
82.92000	508.00000
82.94000	550.00000
82.96000	517.00000
82.98000	511.00000
83.00000	541.00000
83.02000	570.00000
83.04000	561.00000
83.06000	558.00000
83.08000	581.00000
83.10000	582.00000
83.12000	523.00000
83.14000	567.00000
83.16000	572.00000
83.18000	519.00000
83.20000	580.00000
83.22000	608.00000
83.24000	560.00000
83.26000	563.00000
83.28000	578.00000
83.30000	575.00000
83.32000	593.00000
83.34000	537.00000
83.36000	578.00000
83.38000	569.00000
83.40000	612.00000
83.42000	576.00000
83.44000	631.00000
83.46000	575.00000
83.48000	613.00000
83.50000	559.00000
83.52000	612.00000
83.54000	580.00000
83.56000	591.00000
83.58000	584.00000
83.60000	625.00000
83.62000	598.00000
83.64000	611.00000
83.66000	610.00000
83.68000	627.00000
83.70000	574.00000
83.72000	568.00000
83.74000	604.00000
83.76000	581.00000
83.78000	571.00000
83.80000	599.00000
83.82000	524.00000
83.84000	530.00000
83.86000	552.00000
83.88000	547.00000
83.90000	490.00000
83.92000	487.00000
83.94000	512.00000
83.96000	553.00000
83.98000	513.00000
84.00000	508.00000
84.02000	504.00000
84.04000	502.00000
84.06000	514.00000
84.08000	525.00000
84.10000	505.00000
84.12000	518.00000
84.14000	552.00000
84.16000	538.00000
84.18000	534.00000
84.20000	543.00000
84.22000	557.00000
84.24000	548.00000
84.26000	579.00000
84.28000	562.00000
84.30000	556.00000
84.32000	556.00000
84.34000	538.00000
84.36000	560.00000
84.38000	562.00000
84.40000	573.00000
84.42000	558.00000
84.44000	554.00000
84.46000	548.00000
84.48000	540.00000
84.50000	583.00000
84.52000	544.00000
84.54000	542.00000
84.56000	530.00000
84.58000	551.00000
84.60000	504.00000
84.62000	556.00000
84.64000	551.00000
84.66000	531.00000
84.68000	541.00000
84.70000	514.00000
84.72000	511.00000
84.74000	540.00000
84.76000	545.00000
84.78000	524.00000
84.80000	561.00000
84.82000	556.00000
84.84000	531.00000
84.86000	580.00000
84.88000	540.00000
84.90000	568.00000
84.92000	567.00000
84.94000	537.00000
84.96000	591.00000
84.98000	570.00000
85.00000	557.00000
85.02000	601.00000
85.04000	596.00000
85.06000	562.00000
85.08000	574.00000
85.10000	578.00000
85.12000	571.00000
85.14000	507.00000
85.16000	546.00000
85.18000	508.00000
85.20000	534.00000
85.22000	546.00000
85.24000	547.00000
85.26000	519.00000
85.28000	499.00000
85.30000	465.00000
85.32000	500.00000
85.34000	525.00000
85.36000	520.00000
85.38000	501.00000
85.40000	517.00000
85.42000	545.00000
85.44000	494.00000
85.46000	528.00000
85.48000	490.00000
85.50000	523.00000
85.52000	521.00000
85.54000	507.00000
85.56000	487.00000
85.58000	539.00000
85.60000	488.00000
85.62000	509.00000
85.64000	477.00000
85.66000	507.00000
85.68000	558.00000
85.70000	561.00000
85.72000	532.00000
85.74000	581.00000
85.76000	584.00000
85.78000	560.00000
85.80000	551.00000
85.82000	575.00000
85.84000	555.00000
85.86000	578.00000
85.88000	561.00000
85.90000	561.00000
85.92000	547.00000
85.94000	545.00000
85.96000	545.00000
85.98000	520.00000
86.00000	515.00000
86.02000	521.00000
86.04000	463.00000
86.06000	541.00000
86.08000	506.00000
86.10000	511.00000
86.12000	516.00000
86.14000	537.00000
86.16000	548.00000
86.18000	542.00000
86.20000	532.00000
86.22000	517.00000
86.24000	558.00000
86.26000	547.00000
86.28000	545.00000
86.30000	518.00000
86.32000	505.00000
86.34000	501.00000
86.36000	512.00000
86.38000	527.00000
86.40000	526.00000
86.42000	527.00000
86.44000	531.00000
86.46000	541.00000
86.48000	489.00000
86.50000	505.00000
86.52000	502.00000
86.54000	518.00000
86.56000	484.00000
86.58000	491.00000
86.60000	518.00000
86.62000	523.00000
86.64000	509.00000
86.66000	522.00000
86.68000	560.00000
86.70000	499.00000
86.72000	518.00000
86.74000	517.00000
86.76000	557.00000
86.78000	523.00000
86.80000	585.00000
86.82000	540.00000
86.84000	564.00000
86.86000	538.00000
86.88000	522.00000
86.90000	531.00000
86.92000	555.00000
86.94000	542.00000
86.96000	541.00000
86.98000	537.00000
87.00000	528.00000
87.02000	539.00000
87.04000	557.00000
87.06000	554.00000
87.08000	529.00000
87.10000	534.00000
87.12000	487.00000
87.14000	484.00000
87.16000	543.00000
87.18000	499.00000
87.20000	503.00000
87.22000	492.00000
87.24000	519.00000
87.26000	508.00000
87.28000	509.00000
87.30000	478.00000
87.32000	503.00000
87.34000	502.00000
87.36000	517.00000
87.38000	493.00000
87.40000	488.00000
87.42000	519.00000
87.44000	506.00000
87.46000	509.00000
87.48000	527.00000
87.50000	541.00000
87.52000	532.00000
87.54000	534.00000
87.56000	524.00000
87.58000	570.00000
87.60000	527.00000
87.62000	489.00000
87.64000	548.00000
87.66000	534.00000
87.68000	530.00000
87.70000	510.00000
87.72000	520.00000
87.74000	512.00000
87.76000	515.00000
87.78000	492.00000
87.80000	510.00000
87.82000	550.00000
87.84000	558.00000
87.86000	569.00000
87.88000	553.00000
87.90000	513.00000
87.92000	512.00000
87.94000	520.00000
87.96000	513.00000
87.98000	539.00000
88.00000	540.00000
88.02000	544.00000
88.04000	548.00000
88.06000	527.00000
88.08000	582.00000
88.10000	549.00000
88.12000	527.00000
88.14000	532.00000
88.16000	555.00000
88.18000	559.00000
88.20000	548.00000
88.22000	519.00000
88.24000	525.00000
88.26000	521.00000
88.28000	503.00000
88.30000	546.00000
88.32000	531.00000
88.34000	527.00000
88.36000	526.00000
88.38000	553.00000
88.40000	507.00000
88.42000	525.00000
88.44000	528.00000
88.46000	524.00000
88.48000	537.00000
88.50000	490.00000
88.52000	505.00000
88.54000	529.00000
88.56000	498.00000
88.58000	469.00000
88.60000	511.00000
88.62000	485.00000
88.64000	547.00000
88.66000	479.00000
88.68000	489.00000
88.70000	483.00000
88.72000	542.00000
88.74000	474.00000
88.76000	474.00000
88.78000	482.00000
88.80000	532.00000
88.82000	452.00000
88.84000	478.00000
88.86000	527.00000
88.88000	497.00000
88.90000	494.00000
88.92000	510.00000
88.94000	484.00000
88.96000	465.00000
88.98000	508.00000
89.00000	484.00000
89.02000	497.00000
89.04000	487.00000
89.06000	512.00000
89.08000	509.00000
89.10000	528.00000
89.12000	514.00000
89.14000	532.00000
89.16000	557.00000
89.18000	490.00000
89.20000	505.00000
89.22000	539.00000
89.24000	518.00000
89.26000	539.00000
89.28000	509.00000
89.30000	501.00000
89.32000	510.00000
89.34000	483.00000
89.36000	462.00000
89.38000	505.00000
89.40000	515.00000
89.42000	527.00000
89.44000	505.00000
89.46000	519.00000
89.48000	543.00000
89.50000	510.00000
89.52000	534.00000
89.54000	545.00000
89.56000	528.00000
89.58000	537.00000
89.60000	552.00000
89.62000	535.00000
89.64000	518.00000
89.66000	518.00000
89.68000	526.00000
89.70000	514.00000
89.72000	486.00000
89.74000	521.00000
89.76000	572.00000
89.78000	537.00000
89.80000	490.00000
89.82000	528.00000
89.84000	481.00000
89.86000	530.00000
89.88000	509.00000
89.90000	553.00000
89.92000	553.00000
89.94000	549.00000
89.96000	516.00000
89.98000	524.00000
