4.02000	3123.00000
4.03000	3079.00000
4.04000	3098.00000
4.05000	3126.00000
4.06000	3125.00000
4.07000	3083.00000
4.08000	3127.00000
4.09000	3111.00000
4.10000	3117.00000
4.11000	3138.00000
4.12000	3154.00000
4.13000	3123.00000
4.14000	3131.00000
4.15000	3118.00000
4.16000	3149.00000
4.17000	3164.00000
4.18000	3160.00000
4.19000	3146.00000
4.20000	3169.00000
4.21000	3116.00000
4.22000	3151.00000
4.23000	3132.00000
4.24000	3140.00000
4.25000	3147.00000
4.26000	3143.00000
4.27000	3137.00000
4.28000	3158.00000
4.29000	3182.00000
4.30000	3144.00000
4.31000	3124.00000
4.32000	3183.00000
4.33000	3132.00000
4.34000	3167.00000
4.35000	3177.00000
4.36000	3193.00000
4.37000	3165.00000
4.38000	3196.00000
4.39000	3150.00000
4.40000	3185.00000
4.41000	3186.00000
4.42000	3206.00000
4.43000	3189.00000
4.44000	3205.00000
4.45000	3180.00000
4.46000	3206.00000
4.47000	3209.00000
4.48000	3191.00000
4.49000	3205.00000
4.50000	3215.00000
4.51000	3177.00000
4.52000	3221.00000
4.53000	3231.00000
4.54000	3236.00000
4.55000	3207.00000
4.56000	3227.00000
4.57000	3220.00000
4.58000	3251.00000
4.59000	3266.00000
4.60000	3267.00000
4.61000	3272.00000
4.62000	3319.00000
4.63000	3303.00000
4.64000	3328.00000
4.65000	3377.00000
4.66000	3351.00000
4.67000	3308.00000
4.68000	3296.00000
4.69000	3282.00000
4.70000	3288.00000
4.71000	3259.00000
4.72000	3255.00000
4.73000	3259.00000
4.74000	3285.00000
4.75000	3240.00000
4.76000	3265.00000
4.77000	3273.00000
4.78000	3277.00000
4.79000	3226.00000
4.80000	3272.00000
4.81000	3262.00000
4.82000	3271.00000
4.83000	3272.00000
4.84000	3302.00000
4.85000	3262.00000
4.86000	3288.00000
4.87000	3339.00000
4.88000	3391.00000
4.89000	3453.00000
4.90000	3532.00000
4.91000	3711.00000
4.92000	4155.00000
4.93000	4865.00000
4.94000	5761.00000
4.95000	6145.00000
4.96000	5598.00000
4.97000	4651.00000
4.98000	3851.00000
4.99000	3437.00000
5.00000	3291.00000
5.01000	3225.00000
5.02000	3225.00000
5.03000	3169.00000
5.04000	3157.00000
5.05000	3168.00000
5.06000	3186.00000
5.07000	3202.00000
5.08000	3180.00000
5.09000	3172.00000
5.10000	3192.00000
5.11000	3173.00000
5.12000	3166.00000
5.13000	3176.00000
5.14000	3171.00000
5.15000	3144.00000
5.16000	3159.00000
5.17000	3148.00000
5.18000	3186.00000
5.19000	3180.00000
5.20000	3162.00000
5.21000	3153.00000
5.22000	3187.00000
5.23000	3147.00000
5.24000	3168.00000
5.25000	3199.00000
5.26000	3170.00000
5.27000	3151.00000
5.28000	3195.00000
5.29000	3161.00000
5.30000	3193.00000
5.31000	3202.00000
5.32000	3196.00000
5.33000	3160.00000
5.34000	3196.00000
5.35000	3167.00000
5.36000	3192.00000
5.37000	3190.00000
5.38000	3206.00000
5.39000	3163.00000
5.40000	3173.00000
5.41000	3164.00000
5.42000	3201.00000
5.43000	3191.00000
5.44000	3193.00000
5.45000	3168.00000
5.46000	3180.00000
5.47000	3204.00000
5.48000	3191.00000
5.49000	3221.00000
5.50000	3218.00000
5.51000	3201.00000
5.52000	3210.00000
5.53000	3192.00000
5.54000	3173.00000
5.55000	3227.00000
5.56000	3210.00000
5.57000	3215.00000
5.58000	3224.00000
5.59000	3201.00000
5.60000	3204.00000
5.61000	3219.00000
5.62000	3209.00000
5.63000	3173.00000
5.64000	3177.00000
5.65000	3166.00000
5.66000	3217.00000
5.67000	3189.00000
5.68000	3216.00000
5.69000	3181.00000
5.70000	3209.00000
5.71000	3180.00000
5.72000	3216.00000
5.73000	3212.00000
5.74000	3207.00000
5.75000	3212.00000
5.76000	3233.00000
5.77000	3208.00000
5.78000	3206.00000
5.79000	3232.00000
5.80000	3221.00000
5.81000	3210.00000
5.82000	3212.00000
5.83000	3205.00000
5.84000	3222.00000
5.85000	3233.00000
5.86000	3214.00000
5.87000	3221.00000
5.88000	3210.00000
5.89000	3218.00000
5.90000	3234.00000
5.91000	3231.00000
5.92000	3222.00000
5.93000	3222.00000
5.94000	3243.00000
5.95000	3210.00000
5.96000	3229.00000
5.97000	3252.00000
5.98000	3217.00000
5.99000	3208.00000
6.00000	3226.00000
6.01000	3247.00000
6.02000	3242.00000
6.03000	3223.00000
6.04000	3215.00000
6.05000	3245.00000
6.06000	3245.00000
6.07000	3248.00000
6.08000	3260.00000
6.09000	3255.00000
6.10000	3253.00000
6.11000	3237.00000
6.12000	3250.00000
6.13000	3226.00000
6.14000	3222.00000
6.15000	3266.00000
6.16000	3254.00000
6.17000	3235.00000
6.18000	3266.00000
6.19000	3237.00000
6.20000	3250.00000
6.21000	3263.00000
6.22000	3267.00000
6.23000	3234.00000
6.24000	3287.00000
6.25000	3241.00000
6.26000	3253.00000
6.27000	3252.00000
6.28000	3262.00000
6.29000	3253.00000
6.30000	3262.00000
6.31000	3234.00000
6.32000	3253.00000
6.33000	3293.00000
6.34000	3278.00000
6.35000	3272.00000
6.36000	3306.00000
6.37000	3286.00000
6.38000	3297.00000
6.39000	3317.00000
6.40000	3281.00000
6.41000	3247.00000
6.42000	3279.00000
6.43000	3313.00000
6.44000	3283.00000
6.45000	3318.00000
6.46000	3307.00000
6.47000	3305.00000
6.48000	3337.00000
6.49000	3307.00000
6.50000	3309.00000
6.51000	3318.00000
6.52000	3325.00000
6.53000	3304.00000
6.54000	3338.00000
6.55000	3305.00000
6.56000	3323.00000
6.57000	3315.00000
6.58000	3324.00000
6.59000	3294.00000
6.60000	3338.00000
6.61000	3305.00000
6.62000	3346.00000
6.63000	3338.00000
6.64000	3365.00000
6.65000	3330.00000
6.66000	3356.00000
6.67000	3303.00000
6.68000	3353.00000
6.69000	3320.00000
6.70000	3359.00000
6.71000	3321.00000
6.72000	3372.00000
6.73000	3373.00000
6.74000	3352.00000
6.75000	3375.00000
6.76000	3382.00000
6.77000	3372.00000
6.78000	3416.00000
6.79000	3379.00000
6.80000	3386.00000
6.81000	3400.00000
6.82000	3409.00000
6.83000	3402.00000
6.84000	3421.00000
6.85000	3457.00000
6.86000	3482.00000
6.87000	3549.00000
6.88000	3612.00000
6.89000	3692.00000
6.90000	3876.00000
6.91000	4117.00000
6.92000	4587.00000
6.93000	5200.00000
6.94000	6010.00000
6.95000	6746.00000
6.96000	7224.00000
6.97000	7071.00000
6.98000	6437.00000
6.99000	5643.00000
7.00000	4973.00000
7.01000	4436.00000
7.02000	4092.00000
7.03000	3856.00000
7.04000	3747.00000
7.05000	3657.00000
7.06000	3605.00000
7.07000	3517.00000
7.08000	3514.00000
7.09000	3457.00000
7.10000	3492.00000
7.11000	3493.00000
7.12000	3452.00000
7.13000	3422.00000
7.14000	3430.00000
7.15000	3405.00000
7.16000	3429.00000
7.17000	3447.00000
7.18000	3449.00000
7.19000	3421.00000
7.20000	3469.00000
7.21000	3425.00000
7.22000	3436.00000
7.23000	3459.00000
7.24000	3422.00000
7.25000	3407.00000
7.26000	3466.00000
7.27000	3440.00000
7.28000	3465.00000
7.29000	3459.00000
7.30000	3463.00000
7.31000	3433.00000
7.32000	3443.00000
7.33000	3423.00000
7.34000	3416.00000
7.35000	3441.00000
7.36000	3471.00000
7.37000	3452.00000
7.38000	3463.00000
7.39000	3469.00000
7.40000	3501.00000
7.41000	3470.00000
7.42000	3470.00000
7.43000	3430.00000
7.44000	3477.00000
7.45000	3438.00000
7.46000	3442.00000
7.47000	3459.00000
7.48000	3457.00000
7.49000	3441.00000
7.50000	3492.00000
7.51000	3475.00000
7.52000	3475.00000
7.53000	3480.00000
7.54000	3498.00000
7.55000	3473.00000
7.56000	3511.00000
7.57000	3479.00000
7.58000	3504.00000
7.59000	3532.00000
7.60000	3517.00000
7.61000	3512.00000
7.62000	3538.00000
7.63000	3487.00000
7.64000	3519.00000
7.65000	3529.00000
7.66000	3564.00000
7.67000	3496.00000
7.68000	3518.00000
7.69000	3510.00000
7.70000	3529.00000
7.71000	3573.00000
7.72000	3517.00000
7.73000	3518.00000
7.74000	3538.00000
7.75000	3544.00000
7.76000	3561.00000
7.77000	3581.00000
7.78000	3529.00000
7.79000	3538.00000
7.80000	3557.00000
7.81000	3567.00000
7.82000	3579.00000
7.83000	3584.00000
7.84000	3571.00000
7.85000	3560.00000
7.86000	3572.00000
7.87000	3579.00000
7.88000	3607.00000
7.89000	3607.00000
7.90000	3618.00000
7.91000	3606.00000
7.92000	3650.00000
7.93000	3632.00000
7.94000	3671.00000
7.95000	3678.00000
7.96000	3686.00000
7.97000	3676.00000
7.98000	3729.00000
7.99000	3733.00000
8.00000	3781.00000
8.01000	3819.00000
8.02000	3830.00000
8.03000	3849.00000
8.04000	3931.00000
8.05000	4005.00000
8.06000	4108.00000
8.07000	4251.00000
8.08000	4438.00000
8.09000	4655.00000
8.10000	5095.00000
8.11000	5686.00000
8.12000	6708.00000
8.13000	8340.00000
8.14000	10708.00000
8.15000	14058.00000
8.16000	18303.00000
8.17000	21818.00000
8.18000	23186.00000
8.19000	21237.00000
8.20000	17084.00000
8.21000	12816.00000
8.22000	9670.00000
8.23000	7373.00000
8.24000	6116.00000
8.25000	5297.00000
8.26000	4813.00000
8.27000	4522.00000
8.28000	4326.00000
8.29000	4193.00000
8.30000	4114.00000
8.31000	4047.00000
8.32000	4071.00000
8.33000	4017.00000
8.34000	4116.00000
8.35000	4141.00000
8.36000	4276.00000
8.37000	4475.00000
8.38000	4728.00000
8.39000	5141.00000
8.40000	5933.00000
8.41000	6977.00000
8.42000	8578.00000
8.43000	10235.00000
8.44000	11241.00000
8.45000	11076.00000
8.46000	9859.00000
8.47000	8105.00000
8.48000	6565.00000
8.49000	5478.00000
8.50000	4828.00000
8.51000	4383.00000
8.52000	4173.00000
8.53000	4017.00000
8.54000	3944.00000
8.55000	3903.00000
8.56000	3840.00000
8.57000	3775.00000
8.58000	3810.00000
8.59000	3759.00000
8.60000	3779.00000
8.61000	3793.00000
8.62000	3743.00000
8.63000	3716.00000
8.64000	3744.00000
8.65000	3738.00000
8.66000	3770.00000
8.67000	3760.00000
8.68000	3779.00000
8.69000	3782.00000
8.70000	3755.00000
8.71000	3757.00000
8.72000	3748.00000
8.73000	3801.00000
8.74000	3785.00000
8.75000	3775.00000
8.76000	3797.00000
8.77000	3745.00000
8.78000	3781.00000
8.79000	3781.00000
8.80000	3781.00000
8.81000	3764.00000
8.82000	3784.00000
8.83000	3751.00000
8.84000	3754.00000
8.85000	3791.00000
8.86000	3803.00000
8.87000	3782.00000
8.88000	3796.00000
8.89000	3765.00000
8.90000	3792.00000
8.91000	3826.00000
8.92000	3804.00000
8.93000	3800.00000
8.94000	3836.00000
8.95000	3819.00000
8.96000	3831.00000
8.97000	3894.00000
8.98000	3866.00000
8.99000	3843.00000
9.00000	3876.00000
9.01000	3867.00000
9.02000	3891.00000
9.03000	3892.00000
9.04000	3889.00000
9.05000	3895.00000
9.06000	3929.00000
9.07000	3901.00000
9.08000	3926.00000
9.09000	3975.00000
9.10000	3937.00000
9.11000	3947.00000
9.12000	3969.00000
9.13000	3956.00000
9.14000	3985.00000
9.15000	4015.00000
9.16000	4011.00000
9.17000	3995.00000
9.18000	4031.00000
9.19000	4048.00000
9.20000	4080.00000
9.21000	4096.00000
9.22000	4137.00000
9.23000	4089.00000
9.24000	4155.00000
9.25000	4164.00000
9.26000	4197.00000
9.27000	4286.00000
9.28000	4275.00000
9.29000	4300.00000
9.30000	4385.00000
9.31000	4427.00000
9.32000	4505.00000
9.33000	4605.00000
9.34000	4737.00000
9.35000	4897.00000
9.36000	5252.00000
9.37000	5690.00000
9.38000	6572.00000
9.39000	8130.00000
9.40000	10776.00000
9.41000	15146.00000
9.42000	22010.00000
9.43000	29321.00000
9.44000	33522.00000
9.45000	31328.00000
9.46000	24223.00000
9.47000	16768.00000
9.48000	11629.00000
9.49000	8536.00000
9.50000	7004.00000
9.51000	6209.00000
9.52000	5775.00000
9.53000	5537.00000
9.54000	5499.00000
9.55000	5474.00000
9.56000	5513.00000
9.57000	5562.00000
9.58000	5644.00000
9.59000	5712.00000
9.60000	5888.00000
9.61000	6110.00000
9.62000	6395.00000
9.63000	6730.00000
9.64000	7184.00000
9.65000	7709.00000
9.66000	8582.00000
9.67000	9723.00000
9.68000	11720.00000
9.69000	14780.00000
9.70000	19947.00000
9.71000	28827.00000
9.72000	45016.00000
9.73000	71155.00000
9.74000	111213.00000
9.75000	155325.00000
9.76000	179609.00000
9.77000	167498.00000
9.78000	128610.00000
9.79000	84231.00000
9.80000	52155.00000
9.81000	33178.00000
9.82000	22898.00000
9.83000	17661.00000
9.84000	15598.00000
9.85000	15642.00000
9.86000	18191.00000
9.87000	24429.00000
9.88000	36299.00000
9.89000	56683.00000
9.90000	84482.00000
9.91000	102359.00000
9.92000	98258.00000
9.93000	73634.00000
9.94000	44782.00000
9.95000	25226.00000
9.96000	15330.00000
9.97000	10629.00000
9.98000	8279.00000
9.99000	7072.00000
10.00000	6318.00000
10.01000	5829.00000
10.02000	5567.00000
10.03000	5335.00000
10.04000	5197.00000
10.05000	5076.00000
10.06000	4941.00000
10.07000	4792.00000
10.08000	4762.00000
10.09000	4667.00000
10.10000	4618.00000
10.11000	4574.00000
10.12000	4519.00000
10.13000	4434.00000
10.14000	4437.00000
10.15000	4352.00000
10.16000	4373.00000
10.17000	4370.00000
10.18000	4308.00000
10.19000	4264.00000
10.20000	4264.00000
10.21000	4219.00000
10.22000	4227.00000
10.23000	4225.00000
10.24000	4151.00000
10.25000	4151.00000
10.26000	4143.00000
10.27000	4108.00000
10.28000	4119.00000
10.29000	4112.00000
10.30000	4080.00000
10.31000	4058.00000
10.32000	4089.00000
10.33000	4044.00000
10.34000	4058.00000
10.35000	4060.00000
10.36000	4034.00000
10.37000	3993.00000
10.38000	4030.00000
10.39000	4016.00000
10.40000	3987.00000
10.41000	4013.00000
10.42000	4040.00000
10.43000	3979.00000
10.44000	4002.00000
10.45000	3955.00000
10.46000	3973.00000
10.47000	3987.00000
10.48000	3952.00000
10.49000	3947.00000
10.50000	3954.00000
10.51000	3933.00000
10.52000	3953.00000
10.53000	3936.00000
10.54000	3928.00000
10.55000	3927.00000
10.56000	3923.00000
10.57000	3867.00000
10.58000	3930.00000
10.59000	3902.00000
10.60000	3903.00000
10.61000	3884.00000
10.62000	3912.00000
10.63000	3906.00000
10.64000	3881.00000
10.65000	3924.00000
10.66000	3939.00000
10.67000	3947.00000
10.68000	3931.00000
10.69000	3918.00000
10.70000	3916.00000
10.71000	3920.00000
10.72000	3901.00000
10.73000	3860.00000
10.74000	3866.00000
10.75000	3856.00000
10.76000	3862.00000
10.77000	3892.00000
10.78000	3882.00000
10.79000	3809.00000
10.80000	3825.00000
10.81000	3848.00000
10.82000	3853.00000
10.83000	3850.00000
10.84000	3829.00000
10.85000	3818.00000
10.86000	3815.00000
10.87000	3791.00000
10.88000	3825.00000
10.89000	3846.00000
10.90000	3858.00000
10.91000	3845.00000
10.92000	3876.00000
10.93000	3852.00000
10.94000	3840.00000
10.95000	3838.00000
10.96000	3796.00000
10.97000	3788.00000
10.98000	3797.00000
10.99000	3753.00000
11.00000	3817.00000
11.01000	3787.00000
11.02000	3786.00000
11.03000	3747.00000
11.04000	3781.00000
11.05000	3761.00000
11.06000	3761.00000
11.07000	3779.00000
11.08000	3783.00000
11.09000	3726.00000
11.10000	3781.00000
11.11000	3773.00000
11.12000	3776.00000
11.13000	3799.00000
11.14000	3796.00000
11.15000	3779.00000
11.16000	3785.00000
11.17000	3763.00000
11.18000	3788.00000
11.19000	3803.00000
11.20000	3789.00000
11.21000	3714.00000
11.22000	3775.00000
11.23000	3726.00000
11.24000	3754.00000
11.25000	3777.00000
11.26000	3753.00000
11.27000	3712.00000
11.28000	3746.00000
11.29000	3726.00000
11.30000	3764.00000
11.31000	3761.00000
11.32000	3770.00000
11.33000	3735.00000
11.34000	3756.00000
11.35000	3736.00000
11.36000	3756.00000
11.37000	3759.00000
11.38000	3778.00000
11.39000	3764.00000
11.40000	3794.00000
11.41000	3763.00000
11.42000	3781.00000
11.43000	3777.00000
11.44000	3776.00000
11.45000	3741.00000
11.46000	3760.00000
11.47000	3753.00000
11.48000	3737.00000
11.49000	3770.00000
11.50000	3767.00000
11.51000	3720.00000
11.52000	3772.00000
11.53000	3756.00000
11.54000	3781.00000
11.55000	3796.00000
11.56000	3785.00000
11.57000	3759.00000
11.58000	3810.00000
11.59000	3785.00000
11.60000	3799.00000
11.61000	3799.00000
11.62000	3809.00000
11.63000	3804.00000
11.64000	3826.00000
11.65000	3795.00000
11.66000	3837.00000
11.67000	3889.00000
11.68000	3869.00000
11.69000	3847.00000
11.70000	3894.00000
11.71000	3885.00000
11.72000	3916.00000
11.73000	3942.00000
11.74000	3958.00000
11.75000	3943.00000
11.76000	4005.00000
11.77000	4026.00000
11.78000	4079.00000
11.79000	4132.00000
11.80000	4196.00000
11.81000	4206.00000
11.82000	4307.00000
11.83000	4411.00000
11.84000	4588.00000
11.85000	4784.00000
11.86000	4920.00000
11.87000	5002.00000
11.88000	5115.00000
11.89000	5144.00000
11.90000	5281.00000
11.91000	5474.00000
11.92000	5833.00000
11.93000	6322.00000
11.94000	7173.00000
11.95000	8382.00000
11.96000	10397.00000
11.97000	13691.00000
11.98000	18779.00000
11.99000	26591.00000
12.00000	38248.00000
12.01000	51066.00000
12.02000	61777.00000
12.03000	63724.00000
12.04000	55952.00000
12.05000	43578.00000
12.06000	31991.00000
12.07000	22751.00000
12.08000	16177.00000
12.09000	12051.00000
12.10000	9386.00000
12.11000	7676.00000
12.12000	6631.00000
12.13000	5864.00000
12.14000	5393.00000
12.15000	5097.00000
12.16000	4867.00000
12.17000	4680.00000
12.18000	4582.00000
12.19000	4451.00000
12.20000	4369.00000
12.21000	4291.00000
12.22000	4238.00000
12.23000	4176.00000
12.24000	4136.00000
12.25000	4065.00000
12.26000	4072.00000
12.27000	4052.00000
12.28000	4047.00000
12.29000	3989.00000
12.30000	4021.00000
12.31000	3955.00000
12.32000	3959.00000
12.33000	3982.00000
12.34000	3975.00000
12.35000	3888.00000
12.36000	3942.00000
12.37000	3883.00000
12.38000	3903.00000
12.39000	3922.00000
12.40000	3895.00000
12.41000	3838.00000
12.42000	3867.00000
12.43000	3844.00000
12.44000	3871.00000
12.45000	3874.00000
12.46000	3862.00000
12.47000	3857.00000
12.48000	3863.00000
12.49000	3834.00000
12.50000	3876.00000
12.51000	3886.00000
12.52000	3890.00000
12.53000	3849.00000
12.54000	3873.00000
12.55000	3842.00000
12.56000	3850.00000
12.57000	3886.00000
12.58000	3859.00000
12.59000	3822.00000
12.60000	3871.00000
12.61000	3843.00000
12.62000	3887.00000
12.63000	3889.00000
12.64000	3912.00000
12.65000	3856.00000
12.66000	3916.00000
12.67000	3878.00000
12.68000	3893.00000
12.69000	3910.00000
12.70000	3917.00000
12.71000	3877.00000
12.72000	3938.00000
12.73000	3926.00000
12.74000	3983.00000
12.75000	3984.00000
12.76000	3975.00000
12.77000	3954.00000
12.78000	3982.00000
12.79000	3975.00000
12.80000	3986.00000
12.81000	4045.00000
12.82000	4067.00000
12.83000	4038.00000
12.84000	4108.00000
12.85000	4108.00000
12.86000	4149.00000
12.87000	4214.00000
12.88000	4247.00000
12.89000	4343.00000
12.90000	4502.00000
12.91000	4606.00000
12.92000	4809.00000
12.93000	5091.00000
12.94000	5389.00000
12.95000	5753.00000
12.96000	6330.00000
12.97000	7002.00000
12.98000	7927.00000
12.99000	9001.00000
13.00000	10066.00000
13.01000	11120.00000
13.02000	12003.00000
13.03000	12475.00000
13.04000	12425.00000
13.05000	11802.00000
13.06000	10849.00000
13.07000	9650.00000
13.08000	8782.00000
13.09000	7863.00000
13.10000	7224.00000
13.11000	6706.00000
13.12000	6305.00000
13.13000	5952.00000
13.14000	5849.00000
13.15000	5756.00000
13.16000	5800.00000
13.17000	5937.00000
13.18000	6140.00000
13.19000	6455.00000
13.20000	6939.00000
13.21000	7528.00000
13.22000	8322.00000
13.23000	9222.00000
13.24000	10140.00000
13.25000	10860.00000
13.26000	11428.00000
13.27000	11409.00000
13.28000	10849.00000
13.29000	10093.00000
13.30000	9051.00000
13.31000	8033.00000
13.32000	7235.00000
13.33000	6569.00000
13.34000	6035.00000
13.35000	5660.00000
13.36000	5316.00000
13.37000	5040.00000
13.38000	4869.00000
13.39000	4732.00000
13.40000	4627.00000
13.41000	4608.00000
13.42000	4545.00000
13.43000	4489.00000
13.44000	4495.00000
13.45000	4468.00000
13.46000	4499.00000
13.47000	4504.00000
13.48000	4530.00000
13.49000	4561.00000
13.50000	4603.00000
13.51000	4683.00000
13.52000	4776.00000
13.53000	4879.00000
13.54000	5047.00000
13.55000	5166.00000
13.56000	5400.00000
13.57000	5689.00000
13.58000	6115.00000
13.59000	6639.00000
13.60000	7328.00000
13.61000	8213.00000
13.62000	9583.00000
13.63000	11357.00000
13.64000	13936.00000
13.65000	17465.00000
13.66000	21840.00000
13.67000	26795.00000
13.68000	32780.00000
13.69000	37200.00000
13.70000	39476.00000
13.71000	37509.00000
13.72000	32013.00000
13.73000	25274.00000
13.74000	19414.00000
13.75000	14758.00000
13.76000	11531.00000
13.77000	9415.00000
13.78000	7915.00000
13.79000	6870.00000
13.80000	6226.00000
13.81000	5736.00000
13.82000	5372.00000
13.83000	5160.00000
13.84000	4955.00000
13.85000	4793.00000
13.86000	4679.00000
13.87000	4650.00000
13.88000	4606.00000
13.89000	4602.00000
13.90000	4616.00000
13.91000	4656.00000
13.92000	4730.00000
13.93000	4835.00000
13.94000	4958.00000
13.95000	5177.00000
13.96000	5481.00000
13.97000	5911.00000
13.98000	6694.00000
13.99000	7692.00000
14.00000	8908.00000
14.01000	9754.00000
14.02000	9702.00000
14.03000	8750.00000
14.04000	7512.00000
14.05000	6330.00000
14.06000	5519.00000
14.07000	4994.00000
14.08000	4670.00000
14.09000	4413.00000
14.10000	4342.00000
14.11000	4213.00000
14.12000	4144.00000
14.13000	4148.00000
14.14000	4134.00000
14.15000	4020.00000
14.16000	4054.00000
14.17000	4041.00000
14.18000	4029.00000
14.19000	4031.00000
14.20000	4002.00000
14.21000	3948.00000
14.22000	3964.00000
14.23000	3959.00000
14.24000	3967.00000
14.25000	3990.00000
14.26000	3978.00000
14.27000	3935.00000
14.28000	3937.00000
14.29000	3915.00000
14.30000	3954.00000
14.31000	3949.00000
14.32000	3913.00000
14.33000	3908.00000
14.34000	3936.00000
14.35000	3934.00000
14.36000	3918.00000
14.37000	3958.00000
14.38000	3961.00000
14.39000	3947.00000
14.40000	3932.00000
14.41000	3948.00000
14.42000	3946.00000
14.43000	3984.00000
14.44000	3971.00000
14.45000	3928.00000
14.46000	3951.00000
14.47000	3932.00000
14.48000	3966.00000
14.49000	4011.00000
14.50000	3979.00000
14.51000	3950.00000
14.52000	4004.00000
14.53000	4003.00000
14.54000	4066.00000
14.55000	4094.00000
14.56000	4125.00000
14.57000	4105.00000
14.58000	4106.00000
14.59000	4069.00000
14.60000	4072.00000
14.61000	4072.00000
14.62000	4059.00000
14.63000	4056.00000
14.64000	4020.00000
14.65000	4018.00000
14.66000	4016.00000
14.67000	4063.00000
14.68000	4007.00000
14.69000	3998.00000
14.70000	4048.00000
14.71000	4072.00000
14.72000	4088.00000
14.73000	4127.00000
14.74000	4148.00000
14.75000	4137.00000
14.76000	4196.00000
14.77000	4200.00000
14.78000	4270.00000
14.79000	4331.00000
14.80000	4391.00000
14.81000	4454.00000
14.82000	4647.00000
14.83000	4768.00000
14.84000	5035.00000
14.85000	5374.00000
14.86000	5878.00000
14.87000	6436.00000
14.88000	7372.00000
14.89000	8211.00000
14.90000	9269.00000
14.91000	10249.00000
14.92000	11157.00000
14.93000	11767.00000
14.94000	12201.00000
14.95000	11973.00000
14.96000	11587.00000
14.97000	11180.00000
14.98000	11013.00000
14.99000	10995.00000
15.00000	11174.00000
15.01000	11216.00000
15.02000	11044.00000
15.03000	10449.00000
15.04000	9617.00000
15.05000	8610.00000
15.06000	7777.00000
15.07000	6980.00000
15.08000	6373.00000
15.09000	5858.00000
15.10000	5491.00000
15.11000	5160.00000
15.12000	4998.00000
15.13000	4755.00000
15.14000	4695.00000
15.15000	4600.00000
15.16000	4482.00000
15.17000	4406.00000
15.18000	4407.00000
15.19000	4308.00000
15.20000	4316.00000
15.21000	4330.00000
15.22000	4278.00000
15.23000	4216.00000
15.24000	4259.00000
15.25000	4204.00000
15.26000	4246.00000
15.27000	4260.00000
15.28000	4277.00000
15.29000	4237.00000
15.30000	4344.00000
15.31000	4340.00000
15.32000	4424.00000
15.33000	4472.00000
15.34000	4590.00000
15.35000	4681.00000
15.36000	4856.00000
15.37000	4878.00000
15.38000	4935.00000
15.39000	4946.00000
15.40000	4900.00000
15.41000	4824.00000
15.42000	4825.00000
15.43000	4827.00000
15.44000	4916.00000
15.45000	5040.00000
15.46000	5190.00000
15.47000	5376.00000
15.48000	5704.00000
15.49000	6101.00000
15.50000	6631.00000
15.51000	7322.00000
15.52000	8183.00000
15.53000	9322.00000
15.54000	10859.00000
15.55000	13015.00000
15.56000	16158.00000
15.57000	20885.00000
15.58000	26962.00000
15.59000	33667.00000
15.60000	39300.00000
15.61000	40223.00000
15.62000	36270.00000
15.63000	29184.00000
15.64000	21753.00000
15.65000	15814.00000
15.66000	11896.00000
15.67000	9291.00000
15.68000	7697.00000
15.69000	6696.00000
15.70000	5989.00000
15.71000	5503.00000
15.72000	5237.00000
15.73000	4954.00000
15.74000	4820.00000
15.75000	4757.00000
15.76000	4663.00000
15.77000	4524.00000
15.78000	4451.00000
15.79000	4403.00000
15.80000	4386.00000
15.81000	4333.00000
15.82000	4340.00000
15.83000	4311.00000
15.84000	4345.00000
15.85000	4313.00000
15.86000	4389.00000
15.87000	4482.00000
15.88000	4516.00000
15.89000	4606.00000
15.90000	4825.00000
15.91000	5051.00000
15.92000	5456.00000
15.93000	6000.00000
15.94000	6629.00000
15.95000	7251.00000
15.96000	7879.00000
15.97000	8046.00000
15.98000	7863.00000
15.99000	7300.00000
16.00000	6601.00000
16.01000	5881.00000
16.02000	5375.00000
16.03000	4952.00000
16.04000	4674.00000
16.05000	4535.00000
16.06000	4397.00000
16.07000	4257.00000
16.08000	4247.00000
16.09000	4188.00000
16.10000	4201.00000
16.11000	4182.00000
16.12000	4150.00000
16.13000	4115.00000
16.14000	4155.00000
16.15000	4176.00000
16.16000	4233.00000
16.17000	4258.00000
16.18000	4323.00000
16.19000	4347.00000
16.20000	4501.00000
16.21000	4640.00000
16.22000	4905.00000
16.23000	5271.00000
16.24000	5709.00000
16.25000	6180.00000
16.26000	6632.00000
16.27000	6791.00000
16.28000	6653.00000
16.29000	6307.00000
16.30000	6042.00000
16.31000	5934.00000
16.32000	6109.00000
16.33000	6469.00000
16.34000	7148.00000
16.35000	8046.00000
16.36000	9178.00000
16.37000	10516.00000
16.38000	12097.00000
16.39000	13176.00000
16.40000	13768.00000
16.41000	13456.00000
16.42000	12369.00000
16.43000	10993.00000
16.44000	9745.00000
16.45000	8667.00000
16.46000	7994.00000
16.47000	7611.00000
16.48000	7472.00000
16.49000	7364.00000
16.50000	7449.00000
16.51000	7367.00000
16.52000	7222.00000
16.53000	6913.00000
16.54000	6435.00000
16.55000	5922.00000
16.56000	5502.00000
16.57000	5139.00000
16.58000	4877.00000
16.59000	4718.00000
16.60000	4572.00000
16.61000	4455.00000
16.62000	4383.00000
16.63000	4296.00000
16.64000	4286.00000
16.65000	4260.00000
16.66000	4270.00000
16.67000	4220.00000
16.68000	4234.00000
16.69000	4194.00000
16.70000	4263.00000
16.71000	4279.00000
16.72000	4311.00000
16.73000	4332.00000
16.74000	4416.00000
16.75000	4422.00000
16.76000	4479.00000
16.77000	4617.00000
16.78000	4713.00000
16.79000	4825.00000
16.80000	5035.00000
16.81000	5231.00000
16.82000	5530.00000
16.83000	5970.00000
16.84000	6481.00000
16.85000	7169.00000
16.86000	8203.00000
16.87000	9403.00000
16.88000	11176.00000
16.89000	13369.00000
16.90000	15821.00000
16.91000	18226.00000
16.92000	20543.00000
16.93000	21544.00000
16.94000	21232.00000
16.95000	19614.00000
16.96000	17084.00000
16.97000	14274.00000
16.98000	11880.00000
16.99000	9814.00000
17.00000	8327.00000
17.01000	7184.00000
17.02000	6379.00000
17.03000	5754.00000
17.04000	5353.00000
17.05000	4982.00000
17.06000	4766.00000
17.07000	4583.00000
17.08000	4434.00000
17.09000	4257.00000
17.10000	4249.00000
17.11000	4103.00000
17.12000	4090.00000
17.13000	4056.00000
17.14000	4025.00000
17.15000	3925.00000
17.16000	3962.00000
17.17000	3904.00000
17.18000	3858.00000
17.19000	3874.00000
17.20000	3817.00000
17.21000	3789.00000
17.22000	3815.00000
17.23000	3797.00000
17.24000	3811.00000
17.25000	3792.00000
17.26000	3781.00000
17.27000	3748.00000
17.28000	3793.00000
17.29000	3750.00000
17.30000	3762.00000
17.31000	3788.00000
17.32000	3793.00000
17.33000	3739.00000
17.34000	3743.00000
17.35000	3736.00000
17.36000	3756.00000
17.37000	3763.00000
17.38000	3748.00000
17.39000	3705.00000
17.40000	3714.00000
17.41000	3714.00000
17.42000	3702.00000
17.43000	3766.00000
17.44000	3760.00000
17.45000	3718.00000
17.46000	3743.00000
17.47000	3706.00000
17.48000	3699.00000
17.49000	3752.00000
17.50000	3734.00000
17.51000	3700.00000
17.52000	3736.00000
17.53000	3703.00000
17.54000	3748.00000
17.55000	3731.00000
17.56000	3726.00000
17.57000	3728.00000
17.58000	3745.00000
17.59000	3755.00000
17.60000	3758.00000
17.61000	3772.00000
17.62000	3755.00000
17.63000	3764.00000
17.64000	3803.00000
17.65000	3824.00000
17.66000	3867.00000
17.67000	3896.00000
17.68000	3943.00000
17.69000	3918.00000
17.70000	3986.00000
17.71000	3999.00000
17.72000	4108.00000
17.73000	4277.00000
17.74000	4423.00000
17.75000	4584.00000
17.76000	4888.00000
17.77000	5074.00000
17.78000	5216.00000
17.79000	5230.00000
17.80000	5099.00000
17.81000	4886.00000
17.82000	4648.00000
17.83000	4428.00000
17.84000	4273.00000
17.85000	4167.00000
17.86000	4067.00000
17.87000	3987.00000
17.88000	4005.00000
17.89000	3949.00000
17.90000	3982.00000
17.91000	4010.00000
17.92000	4016.00000
17.93000	4061.00000
17.94000	4190.00000
17.95000	4231.00000
17.96000	4426.00000
17.97000	4641.00000
17.98000	4899.00000
17.99000	5124.00000
18.00000	5543.00000
18.01000	5845.00000
18.02000	6064.00000
18.03000	6138.00000
18.04000	5897.00000
18.05000	5520.00000
18.06000	5194.00000
18.07000	4846.00000
18.08000	4599.00000
18.09000	4414.00000
18.10000	4262.00000
18.11000	4117.00000
18.12000	4080.00000
18.13000	4039.00000
18.14000	4027.00000
18.15000	4060.00000
18.16000	4010.00000
18.17000	3969.00000
18.18000	3927.00000
18.19000	3878.00000
18.20000	3858.00000
18.21000	3828.00000
18.22000	3816.00000
18.23000	3738.00000
18.24000	3748.00000
18.25000	3737.00000
18.26000	3725.00000
18.27000	3744.00000
18.28000	3734.00000
18.29000	3705.00000
18.30000	3740.00000
18.31000	3715.00000
18.32000	3736.00000
18.33000	3718.00000
18.34000	3732.00000
18.35000	3693.00000
18.36000	3721.00000
18.37000	3698.00000
18.38000	3722.00000
18.39000	3739.00000
18.40000	3715.00000
18.41000	3697.00000
18.42000	3735.00000
18.43000	3706.00000
18.44000	3733.00000
18.45000	3755.00000
18.46000	3744.00000
18.47000	3730.00000
18.48000	3745.00000
18.49000	3754.00000
18.50000	3738.00000
18.51000	3793.00000
18.52000	3818.00000
18.53000	3803.00000
18.54000	3878.00000
18.55000	3946.00000
18.56000	4043.00000
18.57000	4145.00000
18.58000	4175.00000
18.59000	4191.00000
18.60000	4204.00000
18.61000	4120.00000
18.62000	4040.00000
18.63000	3971.00000
18.64000	3925.00000
18.65000	3843.00000
18.66000	3848.00000
18.67000	3836.00000
18.68000	3839.00000
18.69000	3855.00000
18.70000	3849.00000
18.71000	3818.00000
18.72000	3860.00000
18.73000	3861.00000
18.74000	3860.00000
18.75000	3915.00000
18.76000	3914.00000
18.77000	3897.00000
18.78000	3931.00000
18.79000	3918.00000
18.80000	3976.00000
18.81000	4004.00000
18.82000	4055.00000
18.83000	4072.00000
18.84000	4158.00000
18.85000	4247.00000
18.86000	4407.00000
18.87000	4620.00000
18.88000	4882.00000
18.89000	5321.00000
18.90000	5978.00000
18.91000	6885.00000
18.92000	8170.00000
18.93000	9556.00000
18.94000	10660.00000
18.95000	11011.00000
18.96000	10519.00000
18.97000	9241.00000
18.98000	7950.00000
18.99000	6891.00000
19.00000	6077.00000
19.01000	5583.00000
19.02000	5311.00000
19.03000	5142.00000
19.04000	5247.00000
19.05000	5455.00000
19.06000	5849.00000
19.07000	6411.00000
19.08000	7257.00000
19.09000	8253.00000
19.10000	9277.00000
19.11000	9841.00000
19.12000	9670.00000
19.13000	8752.00000
19.14000	7683.00000
19.15000	6660.00000
19.16000	5925.00000
19.17000	5406.00000
19.18000	5124.00000
19.19000	4876.00000
19.20000	4893.00000
19.21000	4848.00000
19.22000	4979.00000
19.23000	5159.00000
19.24000	5470.00000
19.25000	5779.00000
19.26000	6359.00000
19.27000	6933.00000
19.28000	7596.00000
19.29000	8069.00000
19.30000	8211.00000
19.31000	7962.00000
19.32000	7446.00000
19.33000	6755.00000
19.34000	6143.00000
19.35000	5622.00000
19.36000	5186.00000
19.37000	4850.00000
19.38000	4684.00000
19.39000	4506.00000
19.40000	4445.00000
19.41000	4356.00000
19.42000	4270.00000
19.43000	4193.00000
19.44000	4246.00000
19.45000	4193.00000
19.46000	4201.00000
19.47000	4161.00000
19.48000	4173.00000
19.49000	4191.00000
19.50000	4209.00000
19.51000	4229.00000
19.52000	4275.00000
19.53000	4372.00000
19.54000	4393.00000
19.55000	4467.00000
19.56000	4677.00000
19.57000	4802.00000
19.58000	5019.00000
19.59000	5284.00000
19.60000	5576.00000
19.61000	5783.00000
19.62000	6135.00000
19.63000	6359.00000
19.64000	6584.00000
19.65000	6570.00000
19.66000	6390.00000
19.67000	6073.00000
19.68000	5823.00000
19.69000	5546.00000
19.70000	5422.00000
19.71000	5363.00000
19.72000	5348.00000
19.73000	5336.00000
19.74000	5459.00000
19.75000	5580.00000
19.76000	5757.00000
19.77000	6070.00000
19.78000	6362.00000
19.79000	6869.00000
19.80000	7556.00000
19.81000	8266.00000
19.82000	8941.00000
19.83000	9248.00000
19.84000	9129.00000
19.85000	8721.00000
19.86000	8487.00000
19.87000	8531.00000
19.88000	9028.00000
19.89000	9624.00000
19.90000	9812.00000
19.91000	9373.00000
19.92000	8397.00000
19.93000	7160.00000
19.94000	6066.00000
19.95000	5384.00000
19.96000	4900.00000
19.97000	4618.00000
19.98000	4503.00000
19.99000	4374.00000
20.00000	4353.00000
20.01000	4275.00000
20.02000	4275.00000
20.03000	4176.00000
20.04000	4202.00000
20.05000	4184.00000
20.06000	4229.00000
20.07000	4236.00000
20.08000	4263.00000
20.09000	4221.00000
20.10000	4296.00000
20.11000	4279.00000
20.12000	4360.00000
20.13000	4377.00000
20.14000	4455.00000
20.15000	4483.00000
20.16000	4627.00000
20.17000	4686.00000
20.18000	4812.00000
20.19000	4955.00000
20.20000	5045.00000
20.21000	5104.00000
20.22000	5229.00000
20.23000	5303.00000
20.24000	5344.00000
20.25000	5338.00000
20.26000	5377.00000
20.27000	5357.00000
20.28000	5371.00000
20.29000	5374.00000
20.30000	5445.00000
20.31000	5577.00000
20.32000	5728.00000
20.33000	6021.00000
20.34000	6545.00000
20.35000	7144.00000
20.36000	7902.00000
20.37000	8449.00000
20.38000	8507.00000
20.39000	8081.00000
20.40000	7500.00000
20.41000	6650.00000
20.42000	6005.00000
20.43000	5499.00000
20.44000	5120.00000
20.45000	4823.00000
20.46000	4670.00000
20.47000	4534.00000
20.48000	4443.00000
20.49000	4405.00000
20.50000	4345.00000
20.51000	4291.00000
20.52000	4290.00000
20.53000	4273.00000
20.54000	4290.00000
20.55000	4301.00000
20.56000	4258.00000
20.57000	4250.00000
20.58000	4289.00000
20.59000	4282.00000
20.60000	4346.00000
20.61000	4389.00000
20.62000	4387.00000
20.63000	4456.00000
20.64000	4504.00000
20.65000	4590.00000
20.66000	4680.00000
20.67000	4772.00000
20.68000	4864.00000
20.69000	4976.00000
20.70000	5182.00000
20.71000	5386.00000
20.72000	5662.00000
20.73000	6003.00000
20.74000	6259.00000
20.75000	6563.00000
20.76000	6872.00000
20.77000	7068.00000
20.78000	7153.00000
20.79000	7187.00000
20.80000	6995.00000
20.81000	6712.00000
20.82000	6474.00000
20.83000	6211.00000
20.84000	5988.00000
20.85000	5863.00000
20.86000	5739.00000
20.87000	5651.00000
20.88000	5702.00000
20.89000	5657.00000
20.90000	5801.00000
20.91000	5942.00000
20.92000	6060.00000
20.93000	6121.00000
20.94000	6265.00000
20.95000	6311.00000
20.96000	6405.00000
20.97000	6440.00000
20.98000	6386.00000
20.99000	6336.00000
21.00000	6380.00000
21.01000	6372.00000
21.02000	6513.00000
21.03000	6705.00000
21.04000	6920.00000
21.05000	7199.00000
21.06000	7400.00000
21.07000	7309.00000
21.08000	7053.00000
21.09000	6603.00000
21.10000	6114.00000
21.11000	5608.00000
21.12000	5315.00000
21.13000	5034.00000
21.14000	4888.00000
21.15000	4758.00000
21.16000	4703.00000
21.17000	4640.00000
21.18000	4666.00000
21.19000	4637.00000
21.20000	4622.00000
21.21000	4677.00000
21.22000	4642.00000
21.23000	4623.00000
21.24000	4678.00000
21.25000	4706.00000
21.26000	4809.00000
21.27000	4932.00000
21.28000	5068.00000
21.29000	5177.00000
21.30000	5441.00000
21.31000	5599.00000
21.32000	5793.00000
21.33000	5968.00000
21.34000	6077.00000
21.35000	6076.00000
21.36000	6315.00000
21.37000	6604.00000
21.38000	7187.00000
21.39000	8028.00000
21.40000	8984.00000
21.41000	9825.00000
21.42000	10627.00000
21.43000	10649.00000
21.44000	10176.00000
21.45000	9270.00000
21.46000	8166.00000
21.47000	7116.00000
21.48000	6453.00000
21.49000	5846.00000
21.50000	5495.00000
21.51000	5254.00000
21.52000	5074.00000
21.53000	4962.00000
21.54000	4938.00000
21.55000	4897.00000
21.56000	4948.00000
21.57000	5044.00000
21.58000	5069.00000
21.59000	5177.00000
21.60000	5319.00000
21.61000	5389.00000
21.62000	5529.00000
21.63000	5618.00000
21.64000	5654.00000
21.65000	5652.00000
21.66000	5715.00000
21.67000	5795.00000
21.68000	5991.00000
21.69000	6266.00000
21.70000	6570.00000
21.71000	6961.00000
21.72000	7542.00000
21.73000	8153.00000
21.74000	8958.00000
21.75000	9803.00000
21.76000	10449.00000
21.77000	10826.00000
21.78000	10945.00000
21.79000	10506.00000
21.80000	9953.00000
21.81000	9084.00000
21.82000	8195.00000
21.83000	7348.00000
21.84000	6716.00000
21.85000	6131.00000
21.86000	5771.00000
21.87000	5454.00000
21.88000	5165.00000
21.89000	4972.00000
21.90000	4883.00000
21.91000	4766.00000
21.92000	4736.00000
21.93000	4691.00000
21.94000	4634.00000
21.95000	4593.00000
21.96000	4600.00000
21.97000	4560.00000
21.98000	4588.00000
21.99000	4635.00000
22.00000	4682.00000
22.01000	4758.00000
22.02000	4944.00000
22.03000	5132.00000
22.04000	5401.00000
22.05000	5648.00000
22.06000	5861.00000
22.07000	5929.00000
22.08000	5853.00000
22.09000	5585.00000
22.10000	5303.00000
22.11000	5049.00000
22.12000	4823.00000
22.13000	4647.00000
22.14000	4526.00000
22.15000	4468.00000
22.16000	4399.00000
22.17000	4404.00000
22.18000	4329.00000
22.19000	4287.00000
22.20000	4256.00000
22.21000	4220.00000
22.22000	4233.00000
22.23000	4234.00000
22.24000	4230.00000
22.25000	4181.00000
22.26000	4222.00000
22.27000	4185.00000
22.28000	4197.00000
22.29000	4229.00000
22.30000	4207.00000
22.31000	4180.00000
22.32000	4245.00000
22.33000	4198.00000
22.34000	4212.00000
22.35000	4224.00000
22.36000	4180.00000
22.37000	4164.00000
22.38000	4183.00000
22.39000	4160.00000
22.40000	4222.00000
22.41000	4238.00000
22.42000	4197.00000
22.43000	4200.00000
22.44000	4217.00000
22.45000	4230.00000
22.46000	4186.00000
22.47000	4252.00000
22.48000	4243.00000
22.49000	4212.00000
22.50000	4214.00000
22.51000	4224.00000
22.52000	4234.00000
22.53000	4284.00000
22.54000	4273.00000
22.55000	4271.00000
22.56000	4284.00000
22.57000	4290.00000
22.58000	4348.00000
22.59000	4400.00000
22.60000	4450.00000
22.61000	4448.00000
22.62000	4524.00000
22.63000	4591.00000
22.64000	4704.00000
22.65000	4910.00000
22.66000	5129.00000
22.67000	5361.00000
22.68000	5736.00000
22.69000	6020.00000
22.70000	6248.00000
22.71000	6339.00000
22.72000	6208.00000
22.73000	5919.00000
22.74000	5673.00000
22.75000	5363.00000
22.76000	5249.00000
22.77000	5141.00000
22.78000	5080.00000
22.79000	5095.00000
22.80000	5185.00000
22.81000	5326.00000
22.82000	5496.00000
22.83000	5748.00000
22.84000	6091.00000
22.85000	6394.00000
22.86000	6831.00000
22.87000	7159.00000
22.88000	7547.00000
22.89000	7744.00000
22.90000	7774.00000
22.91000	7568.00000
22.92000	7362.00000
22.93000	7048.00000
22.94000	6709.00000
22.95000	6463.00000
22.96000	6239.00000
22.97000	6118.00000
22.98000	6050.00000
22.99000	6068.00000
23.00000	6195.00000
23.01000	6433.00000
23.02000	6661.00000
23.03000	6911.00000
23.04000	7272.00000
23.05000	7492.00000
23.06000	7744.00000
23.07000	7841.00000
23.08000	7776.00000
23.09000	7534.00000
23.10000	7289.00000
23.11000	6902.00000
23.12000	6621.00000
23.13000	6322.00000
23.14000	6066.00000
23.15000	5812.00000
23.16000	5657.00000
23.17000	5430.00000
23.18000	5318.00000
23.19000	5205.00000
23.20000	5042.00000
23.21000	4929.00000
23.22000	4870.00000
23.23000	4786.00000
23.24000	4760.00000
23.25000	4731.00000
23.26000	4700.00000
23.27000	4675.00000
23.28000	4696.00000
23.29000	4725.00000
23.30000	4766.00000
23.31000	4942.00000
23.32000	5061.00000
23.33000	5272.00000
23.34000	5618.00000
23.35000	5901.00000
23.36000	6213.00000
23.37000	6278.00000
23.38000	6133.00000
23.39000	5766.00000
23.40000	5460.00000
23.41000	5105.00000
23.42000	4865.00000
23.43000	4717.00000
23.44000	4588.00000
23.45000	4473.00000
23.46000	4460.00000
23.47000	4389.00000
23.48000	4386.00000
23.49000	4371.00000
23.50000	4341.00000
23.51000	4303.00000
23.52000	4332.00000
23.53000	4303.00000
23.54000	4324.00000
23.55000	4356.00000
23.56000	4338.00000
23.57000	4289.00000
23.58000	4333.00000
23.59000	4309.00000
23.60000	4318.00000
23.61000	4321.00000
23.62000	4321.00000
23.63000	4296.00000
23.64000	4345.00000
23.65000	4302.00000
23.66000	4309.00000
23.67000	4365.00000
23.68000	4381.00000
23.69000	4364.00000
23.70000	4415.00000
23.71000	4392.00000
23.72000	4459.00000
23.73000	4503.00000
23.74000	4548.00000
23.75000	4598.00000
23.76000	4661.00000
23.77000	4718.00000
23.78000	4876.00000
23.79000	5027.00000
23.80000	5162.00000
23.81000	5334.00000
23.82000	5605.00000
23.83000	5844.00000
23.84000	6091.00000
23.85000	6221.00000
23.86000	6246.00000
23.87000	6092.00000
23.88000	5886.00000
23.89000	5595.00000
23.90000	5357.00000
23.91000	5185.00000
23.92000	5012.00000
23.93000	4831.00000
23.94000	4775.00000
23.95000	4688.00000
23.96000	4646.00000
23.97000	4633.00000
23.98000	4576.00000
23.99000	4579.00000
24.00000	4633.00000
24.01000	4605.00000
24.02000	4703.00000
24.03000	4745.00000
24.04000	4787.00000
24.05000	4822.00000
24.06000	4960.00000
24.07000	5064.00000
24.08000	5257.00000
24.09000	5390.00000
24.10000	5543.00000
24.11000	5664.00000
24.12000	5849.00000
24.13000	5894.00000
24.14000	5983.00000
24.15000	6152.00000
24.16000	6298.00000
24.17000	6475.00000
24.18000	6796.00000
24.19000	7030.00000
24.20000	7293.00000
24.21000	7635.00000
24.22000	7896.00000
24.23000	8048.00000
24.24000	8235.00000
24.25000	8097.00000
24.26000	7955.00000
24.27000	7673.00000
24.28000	7340.00000
24.29000	7031.00000
24.30000	6901.00000
24.31000	6832.00000
24.32000	6969.00000
24.33000	7228.00000
24.34000	7671.00000
24.35000	8170.00000
24.36000	8755.00000
24.37000	8953.00000
24.38000	8915.00000
24.39000	8454.00000
24.40000	7737.00000
24.41000	7012.00000
24.42000	6440.00000
24.43000	5983.00000
24.44000	5738.00000
24.45000	5558.00000
24.46000	5499.00000
24.47000	5490.00000
24.48000	5551.00000
24.49000	5594.00000
24.50000	5696.00000
24.51000	5762.00000
24.52000	5747.00000
24.53000	5623.00000
24.54000	5621.00000
24.55000	5589.00000
24.56000	5624.00000
24.57000	5607.00000
24.58000	5595.00000
24.59000	5473.00000
24.60000	5374.00000
24.61000	5198.00000
24.62000	5079.00000
24.63000	5003.00000
24.64000	4928.00000
24.65000	4833.00000
24.66000	4872.00000
24.67000	4843.00000
24.68000	4910.00000
24.69000	4988.00000
24.70000	4956.00000
24.71000	4928.00000
24.72000	4935.00000
24.73000	4854.00000
24.74000	4857.00000
24.75000	4852.00000
24.76000	4829.00000
24.77000	4823.00000
24.78000	4874.00000
24.79000	4925.00000
24.80000	5072.00000
24.81000	5213.00000
24.82000	5430.00000
24.83000	5540.00000
24.84000	5711.00000
24.85000	5784.00000
24.86000	5776.00000
24.87000	5691.00000
24.88000	5606.00000
24.89000	5554.00000
24.90000	5571.00000
24.91000	5623.00000
24.92000	5779.00000
24.93000	6015.00000
24.94000	6272.00000
24.95000	6540.00000
24.96000	6911.00000
24.97000	7179.00000
24.98000	7465.00000
24.99000	7701.00000
25.00000	7698.00000
25.01000	7528.00000
25.02000	7385.00000
25.03000	7064.00000
25.04000	6712.00000
25.05000	6405.00000
25.06000	6081.00000
25.07000	5842.00000
25.08000	5731.00000
25.09000	5611.00000
25.10000	5617.00000
25.11000	5648.00000
25.12000	5677.00000
25.13000	5687.00000
25.14000	5670.00000
25.15000	5580.00000
25.16000	5444.00000
25.17000	5252.00000
25.18000	5096.00000
25.19000	4884.00000
25.20000	4755.00000
25.21000	4601.00000
25.22000	4497.00000
25.23000	4457.00000
25.24000	4384.00000
25.25000	4284.00000
25.26000	4273.00000
25.27000	4229.00000
25.28000	4201.00000
25.29000	4199.00000
25.30000	4180.00000
25.31000	4122.00000
25.32000	4170.00000
25.33000	4121.00000
25.34000	4144.00000
25.35000	4146.00000
25.36000	4116.00000
25.37000	4120.00000
25.38000	4126.00000
25.39000	4074.00000
25.40000	4098.00000
25.41000	4119.00000
25.42000	4104.00000
25.43000	4079.00000
25.44000	4103.00000
25.45000	4110.00000
25.46000	4146.00000
25.47000	4173.00000
25.48000	4174.00000
25.49000	4168.00000
25.50000	4193.00000
25.51000	4186.00000
25.52000	4217.00000
25.53000	4267.00000
25.54000	4250.00000
25.55000	4274.00000
25.56000	4313.00000
25.57000	4363.00000
25.58000	4401.00000
25.59000	4389.00000
25.60000	4363.00000
25.61000	4294.00000
25.62000	4327.00000
25.63000	4235.00000
25.64000	4217.00000
25.65000	4169.00000
25.66000	4148.00000
25.67000	4060.00000
25.68000	4116.00000
25.69000	4078.00000
25.70000	4113.00000
25.71000	4136.00000
25.72000	4177.00000
25.73000	4139.00000
25.74000	4251.00000
25.75000	4289.00000
25.76000	4440.00000
25.77000	4552.00000
25.78000	4708.00000
25.79000	4831.00000
25.80000	5115.00000
25.81000	5274.00000
25.82000	5420.00000
25.83000	5482.00000
25.84000	5390.00000
25.85000	5220.00000
25.86000	5126.00000
25.87000	5024.00000
25.88000	4970.00000
25.89000	4926.00000
25.90000	4820.00000
25.91000	4672.00000
25.92000	4638.00000
25.93000	4491.00000
25.94000	4418.00000
25.95000	4374.00000
25.96000	4309.00000
25.97000	4309.00000
25.98000	4347.00000
25.99000	4360.00000
26.00000	4401.00000
26.01000	4458.00000
26.02000	4393.00000
26.03000	4348.00000
26.04000	4326.00000
26.05000	4239.00000
26.06000	4185.00000
26.07000	4141.00000
26.08000	4119.00000
26.09000	4063.00000
26.10000	4079.00000
26.11000	4011.00000
26.12000	4055.00000
26.13000	4048.00000
26.14000	4036.00000
26.15000	4005.00000
26.16000	4060.00000
26.17000	4069.00000
26.18000	4083.00000
26.19000	4124.00000
26.20000	4122.00000
26.21000	4097.00000
26.22000	4170.00000
26.23000	4155.00000
26.24000	4214.00000
26.25000	4282.00000
26.26000	4268.00000
26.27000	4287.00000
26.28000	4360.00000
26.29000	4405.00000
26.30000	4454.00000
26.31000	4531.00000
26.32000	4545.00000
26.33000	4530.00000
26.34000	4517.00000
26.35000	4493.00000
26.36000	4481.00000
26.37000	4509.00000
26.38000	4418.00000
26.39000	4392.00000
26.40000	4393.00000
26.41000	4347.00000
26.42000	4377.00000
26.43000	4363.00000
26.44000	4345.00000
26.45000	4304.00000
26.46000	4294.00000
26.47000	4220.00000
26.48000	4191.00000
26.49000	4149.00000
26.50000	4095.00000
26.51000	4042.00000
26.52000	4065.00000
26.53000	3994.00000
26.54000	3999.00000
26.55000	4000.00000
26.56000	3981.00000
26.57000	3928.00000
26.58000	3988.00000
26.59000	3931.00000
26.60000	3965.00000
26.61000	3982.00000
26.62000	3984.00000
26.63000	3929.00000
26.64000	3999.00000
26.65000	3965.00000
26.66000	3986.00000
26.67000	3998.00000
26.68000	3972.00000
26.69000	3965.00000
26.70000	3977.00000
26.71000	3953.00000
26.72000	3967.00000
26.73000	4013.00000
26.74000	3985.00000
26.75000	3952.00000
26.76000	3969.00000
26.77000	3979.00000
26.78000	3999.00000
26.79000	4026.00000
26.80000	4035.00000
26.81000	3985.00000
26.82000	4051.00000
26.83000	4096.00000
26.84000	4126.00000
26.85000	4188.00000
26.86000	4263.00000
26.87000	4308.00000
26.88000	4487.00000
26.89000	4570.00000
26.90000	4796.00000
26.91000	4985.00000
26.92000	5083.00000
26.93000	5091.00000
26.94000	5082.00000
26.95000	4917.00000
26.96000	4800.00000
26.97000	4646.00000
26.98000	4512.00000
26.99000	4352.00000
27.00000	4309.00000
27.01000	4227.00000
27.02000	4231.00000
27.03000	4260.00000
27.04000	4254.00000
27.05000	4222.00000
27.06000	4257.00000
27.07000	4293.00000
27.08000	4319.00000
27.09000	4392.00000
27.10000	4430.00000
27.11000	4487.00000
27.12000	4590.00000
27.13000	4677.00000
27.14000	4865.00000
27.15000	5033.00000
27.16000	5201.00000
27.17000	5316.00000
27.18000	5412.00000
27.19000	5399.00000
27.20000	5332.00000
27.21000	5255.00000
27.22000	5052.00000
27.23000	4880.00000
27.24000	4751.00000
27.25000	4580.00000
27.26000	4523.00000
27.27000	4501.00000
27.28000	4402.00000
27.29000	4396.00000
27.30000	4409.00000
27.31000	4358.00000
27.32000	4331.00000
27.33000	4298.00000
27.34000	4304.00000
27.35000	4251.00000
27.36000	4289.00000
27.37000	4252.00000
27.38000	4274.00000
27.39000	4344.00000
27.40000	4370.00000
27.41000	4375.00000
27.42000	4467.00000
27.43000	4511.00000
27.44000	4648.00000
27.45000	4726.00000
27.46000	4858.00000
27.47000	4982.00000
27.48000	5170.00000
27.49000	5293.00000
27.50000	5488.00000
27.51000	5672.00000
27.52000	5729.00000
27.53000	5836.00000
27.54000	5998.00000
27.55000	6152.00000
27.56000	6376.00000
27.57000	6574.00000
27.58000	6774.00000
27.59000	6852.00000
27.60000	6944.00000
27.61000	6887.00000
27.62000	6761.00000
27.63000	6562.00000
27.64000	6253.00000
27.65000	5918.00000
27.66000	5626.00000
27.67000	5312.00000
27.68000	5109.00000
27.69000	4950.00000
27.70000	4771.00000
27.71000	4628.00000
27.72000	4566.00000
27.73000	4451.00000
27.74000	4373.00000
27.75000	4373.00000
27.76000	4287.00000
27.77000	4235.00000
27.78000	4235.00000
27.79000	4183.00000
27.80000	4191.00000
27.81000	4188.00000
27.82000	4217.00000
27.83000	4188.00000
27.84000	4255.00000
27.85000	4279.00000
27.86000	4310.00000
27.87000	4342.00000
27.88000	4330.00000
27.89000	4314.00000
27.90000	4336.00000
27.91000	4243.00000
27.92000	4254.00000
27.93000	4156.00000
27.94000	4150.00000
27.95000	4083.00000
27.96000	4077.00000
27.97000	4007.00000
27.98000	4016.00000
27.99000	4029.00000
28.00000	4005.00000
28.01000	3988.00000
28.02000	4006.00000
28.03000	3972.00000
28.04000	3982.00000
28.05000	4023.00000
28.06000	3989.00000
28.07000	3964.00000
28.08000	4014.00000
28.09000	3978.00000
28.10000	3968.00000
28.11000	3993.00000
28.12000	3980.00000
28.13000	3951.00000
28.14000	3984.00000
28.15000	3984.00000
28.16000	3987.00000
28.17000	4037.00000
28.18000	4026.00000
28.19000	4038.00000
28.20000	4101.00000
28.21000	4122.00000
28.22000	4175.00000
28.23000	4260.00000
28.24000	4267.00000
28.25000	4250.00000
28.26000	4304.00000
28.27000	4277.00000
28.28000	4304.00000
28.29000	4307.00000
28.30000	4325.00000
28.31000	4301.00000
28.32000	4386.00000
28.33000	4392.00000
28.34000	4400.00000
28.35000	4448.00000
28.36000	4418.00000
28.37000	4381.00000
28.38000	4339.00000
28.39000	4261.00000
28.40000	4212.00000
28.41000	4150.00000
28.42000	4125.00000
28.43000	4050.00000
28.44000	4033.00000
28.45000	4035.00000
28.46000	4034.00000
28.47000	4067.00000
28.48000	4097.00000
28.49000	4018.00000
28.50000	4139.00000
28.51000	4140.00000
28.52000	4217.00000
28.53000	4304.00000
28.54000	4392.00000
28.55000	4506.00000
28.56000	4661.00000
28.57000	4753.00000
28.58000	4864.00000
28.59000	4875.00000
28.60000	4764.00000
28.61000	4617.00000
28.62000	4563.00000
28.63000	4437.00000
28.64000	4415.00000
28.65000	4385.00000
28.66000	4359.00000
28.67000	4336.00000
28.68000	4367.00000
28.69000	4368.00000
28.70000	4418.00000
28.71000	4442.00000
28.72000	4430.00000
28.73000	4378.00000
28.74000	4435.00000
28.75000	4404.00000
28.76000	4429.00000
28.77000	4504.00000
28.78000	4476.00000
28.79000	4507.00000
28.80000	4583.00000
28.81000	4572.00000
28.82000	4591.00000
28.83000	4592.00000
28.84000	4524.00000
28.85000	4520.00000
28.86000	4637.00000
28.87000	4627.00000
28.88000	4736.00000
28.89000	4826.00000
28.90000	4856.00000
28.91000	4870.00000
28.92000	4949.00000
28.93000	4933.00000
28.94000	4921.00000
28.95000	4828.00000
28.96000	4689.00000
28.97000	4580.00000
28.98000	4504.00000
28.99000	4380.00000
29.00000	4360.00000
29.01000	4342.00000
29.02000	4276.00000
29.03000	4175.00000
29.04000	4198.00000
29.05000	4185.00000
29.06000	4205.00000
29.07000	4191.00000
29.08000	4185.00000
29.09000	4177.00000
29.10000	4229.00000
29.11000	4240.00000
29.12000	4264.00000
29.13000	4248.00000
29.14000	4212.00000
29.15000	4175.00000
29.16000	4164.00000
29.17000	4091.00000
29.18000	4121.00000
29.19000	4093.00000
29.20000	4087.00000
29.21000	4080.00000
29.22000	4153.00000
29.23000	4117.00000
29.24000	4144.00000
29.25000	4206.00000
29.26000	4214.00000
29.27000	4210.00000
29.28000	4334.00000
29.29000	4389.00000
29.30000	4484.00000
29.31000	4588.00000
29.32000	4650.00000
29.33000	4716.00000
29.34000	4789.00000
29.35000	4843.00000
29.36000	4904.00000
29.37000	4943.00000
29.38000	4930.00000
29.39000	4816.00000
29.40000	4788.00000
29.41000	4741.00000
29.42000	4714.00000
29.43000	4634.00000
29.44000	4546.00000
29.45000	4466.00000
29.46000	4471.00000
29.47000	4452.00000
29.48000	4431.00000
29.49000	4482.00000
29.50000	4482.00000
29.51000	4445.00000
29.52000	4486.00000
29.53000	4440.00000
29.54000	4440.00000
29.55000	4434.00000
29.56000	4327.00000
29.57000	4257.00000
29.58000	4213.00000
29.59000	4183.00000
29.60000	4139.00000
29.61000	4098.00000
29.62000	4075.00000
29.63000	4048.00000
29.64000	4060.00000
29.65000	4036.00000
29.66000	4068.00000
29.67000	4037.00000
29.68000	4058.00000
29.69000	4024.00000
29.70000	4104.00000
29.71000	4136.00000
29.72000	4194.00000
29.73000	4246.00000
29.74000	4333.00000
29.75000	4350.00000
29.76000	4501.00000
29.77000	4541.00000
29.78000	4618.00000
29.79000	4613.00000
29.80000	4601.00000
29.81000	4534.00000
29.82000	4531.00000
29.83000	4418.00000
29.84000	4394.00000
29.85000	4350.00000
29.86000	4297.00000
29.87000	4200.00000
29.88000	4186.00000
29.89000	4152.00000
29.90000	4122.00000
29.91000	4131.00000
29.92000	4119.00000
29.93000	4061.00000
29.94000	4104.00000
29.95000	4079.00000
29.96000	4069.00000
29.97000	4076.00000
29.98000	4066.00000
29.99000	4036.00000
30.00000	4110.00000
30.01000	4084.00000
30.02000	4158.00000
30.03000	4203.00000
30.04000	4192.00000
30.05000	4160.00000
30.06000	4172.00000
30.07000	4096.00000
30.08000	4073.00000
30.09000	4075.00000
30.10000	4048.00000
30.11000	4014.00000
30.12000	4037.00000
30.13000	4001.00000
30.14000	4044.00000
30.15000	4054.00000
30.16000	4058.00000
30.17000	4040.00000
30.18000	4036.00000
30.19000	4052.00000
30.20000	4092.00000
30.21000	4119.00000
30.22000	4139.00000
30.23000	4127.00000
30.24000	4214.00000
30.25000	4223.00000
30.26000	4349.00000
30.27000	4444.00000
30.28000	4564.00000
30.29000	4669.00000
30.30000	4814.00000
30.31000	4919.00000
30.32000	5002.00000
30.33000	5037.00000
30.34000	4942.00000
30.35000	4780.00000
30.36000	4638.00000
30.37000	4482.00000
30.38000	4414.00000
30.39000	4318.00000
30.40000	4222.00000
30.41000	4145.00000
30.42000	4131.00000
30.43000	4088.00000
30.44000	4072.00000
30.45000	4088.00000
30.46000	4069.00000
30.47000	4088.00000
30.48000	4125.00000
30.49000	4144.00000
30.50000	4138.00000
30.51000	4257.00000
30.52000	4247.00000
30.53000	4267.00000
30.54000	4304.00000
30.55000	4322.00000
30.56000	4354.00000
30.57000	4395.00000
30.58000	4436.00000
30.59000	4455.00000
30.60000	4506.00000
30.61000	4491.00000
30.62000	4624.00000
30.63000	4622.00000
30.64000	4648.00000
30.65000	4592.00000
30.66000	4666.00000
30.67000	4644.00000
30.68000	4648.00000
30.69000	4660.00000
30.70000	4716.00000
30.71000	4655.00000
30.72000	4744.00000
30.73000	4709.00000
30.74000	4770.00000
30.75000	4755.00000
30.76000	4765.00000
30.77000	4648.00000
30.78000	4647.00000
30.79000	4591.00000
30.80000	4572.00000
30.81000	4611.00000
30.82000	4602.00000
30.83000	4569.00000
30.84000	4645.00000
30.85000	4609.00000
30.86000	4588.00000
30.87000	4524.00000
30.88000	4408.00000
30.89000	4305.00000
30.90000	4256.00000
30.91000	4180.00000
30.92000	4172.00000
30.93000	4166.00000
30.94000	4108.00000
30.95000	4084.00000
30.96000	4111.00000
30.97000	4115.00000
30.98000	4137.00000
30.99000	4189.00000
31.00000	4202.00000
31.01000	4248.00000
31.02000	4305.00000
31.03000	4343.00000
31.04000	4422.00000
31.05000	4476.00000
31.06000	4470.00000
31.07000	4464.00000
31.08000	4537.00000
31.09000	4521.00000
31.10000	4537.00000
31.11000	4520.00000
31.12000	4480.00000
31.13000	4419.00000
31.14000	4389.00000
31.15000	4334.00000
31.16000	4328.00000
31.17000	4301.00000
31.18000	4300.00000
31.19000	4256.00000
31.20000	4279.00000
31.21000	4271.00000
31.22000	4335.00000
31.23000	4376.00000
31.24000	4439.00000
31.25000	4468.00000
31.26000	4537.00000
31.27000	4598.00000
31.28000	4625.00000
31.29000	4697.00000
31.30000	4683.00000
31.31000	4697.00000
31.32000	4778.00000
31.33000	4805.00000
31.34000	4847.00000
31.35000	4822.00000
31.36000	4791.00000
31.37000	4743.00000
31.38000	4675.00000
31.39000	4590.00000
31.40000	4510.00000
31.41000	4462.00000
31.42000	4384.00000
31.43000	4317.00000
31.44000	4328.00000
31.45000	4292.00000
31.46000	4338.00000
31.47000	4374.00000
31.48000	4412.00000
31.49000	4454.00000
31.50000	4524.00000
31.51000	4525.00000
31.52000	4622.00000
31.53000	4647.00000
31.54000	4642.00000
31.55000	4562.00000
31.56000	4604.00000
31.57000	4501.00000
31.58000	4484.00000
31.59000	4397.00000
31.60000	4317.00000
31.61000	4234.00000
31.62000	4219.00000
31.63000	4147.00000
31.64000	4137.00000
31.65000	4142.00000
31.66000	4131.00000
31.67000	4121.00000
31.68000	4148.00000
31.69000	4130.00000
31.70000	4170.00000
31.71000	4183.00000
31.72000	4202.00000
31.73000	4141.00000
31.74000	4155.00000
31.75000	4111.00000
31.76000	4091.00000
31.77000	4099.00000
31.78000	4049.00000
31.79000	3982.00000
31.80000	3973.00000
31.81000	3963.00000
31.82000	3969.00000
31.83000	3976.00000
31.84000	3937.00000
31.85000	3914.00000
31.86000	3968.00000
31.87000	3944.00000
31.88000	3982.00000
31.89000	4010.00000
31.90000	4045.00000
31.91000	4009.00000
31.92000	4043.00000
31.93000	4032.00000
31.94000	4031.00000
31.95000	4039.00000
31.96000	4009.00000
31.97000	3979.00000
31.98000	3990.00000
31.99000	3961.00000
32.00000	3979.00000
32.01000	3943.00000
32.02000	3984.00000
32.03000	3890.00000
32.04000	3946.00000
32.05000	3891.00000
32.06000	3928.00000
32.07000	3944.00000
32.08000	3903.00000
32.09000	3888.00000
32.10000	3955.00000
32.11000	3943.00000
32.12000	3956.00000
32.13000	4000.00000
32.14000	4021.00000
32.15000	4035.00000
32.16000	4080.00000
32.17000	4094.00000
32.18000	4160.00000
32.19000	4238.00000
32.20000	4236.00000
32.21000	4269.00000
32.22000	4354.00000
32.23000	4379.00000
32.24000	4453.00000
32.25000	4538.00000
32.26000	4510.00000
32.27000	4491.00000
32.28000	4517.00000
32.29000	4459.00000
32.30000	4419.00000
32.31000	4396.00000
32.32000	4331.00000
32.33000	4236.00000
32.34000	4237.00000
32.35000	4113.00000
32.36000	4104.00000
32.37000	4056.00000
32.38000	4033.00000
32.39000	3985.00000
32.40000	3981.00000
32.41000	3934.00000
32.42000	3996.00000
32.43000	3955.00000
32.44000	3937.00000
32.45000	3902.00000
32.46000	3916.00000
32.47000	3859.00000
32.48000	3876.00000
32.49000	3896.00000
32.50000	3892.00000
32.51000	3878.00000
32.52000	3887.00000
32.53000	3877.00000
32.54000	3880.00000
32.55000	3920.00000
32.56000	3908.00000
32.57000	3900.00000
32.58000	3915.00000
32.59000	3880.00000
32.60000	3904.00000
32.61000	3877.00000
32.62000	3920.00000
32.63000	3843.00000
32.64000	3832.00000
32.65000	3796.00000
32.66000	3832.00000
32.67000	3858.00000
32.68000	3831.00000
32.69000	3821.00000
32.70000	3834.00000
32.71000	3813.00000
32.72000	3838.00000
32.73000	3869.00000
32.74000	3813.00000
32.75000	3800.00000
32.76000	3819.00000
32.77000	3797.00000
32.78000	3824.00000
32.79000	3847.00000
32.80000	3837.00000
32.81000	3844.00000
32.82000	3881.00000
32.83000	3813.00000
32.84000	3905.00000
32.85000	3912.00000
32.86000	3915.00000
32.87000	3882.00000
32.88000	3942.00000
32.89000	3878.00000
32.90000	3918.00000
32.91000	3906.00000
32.92000	3895.00000
32.93000	3873.00000
32.94000	3926.00000
32.95000	3891.00000
32.96000	3915.00000
32.97000	3948.00000
32.98000	3950.00000
32.99000	3904.00000
33.00000	3944.00000
33.01000	3950.00000
33.02000	3984.00000
33.03000	4020.00000
33.04000	4024.00000
33.05000	4012.00000
33.06000	4050.00000
33.07000	4045.00000
33.08000	4130.00000
33.09000	4126.00000
33.10000	4170.00000
33.11000	4171.00000
33.12000	4209.00000
33.13000	4218.00000
33.14000	4288.00000
33.15000	4327.00000
33.16000	4303.00000
33.17000	4263.00000
33.18000	4281.00000
33.19000	4212.00000
33.20000	4187.00000
33.21000	4196.00000
33.22000	4176.00000
33.23000	4153.00000
33.24000	4190.00000
33.25000	4194.00000
33.26000	4277.00000
33.27000	4375.00000
33.28000	4391.00000
33.29000	4396.00000
33.30000	4437.00000
33.31000	4397.00000
33.32000	4393.00000
33.33000	4357.00000
33.34000	4330.00000
33.35000	4278.00000
33.36000	4296.00000
33.37000	4239.00000
33.38000	4321.00000
33.39000	4329.00000
33.40000	4341.00000
33.41000	4302.00000
33.42000	4331.00000
33.43000	4280.00000
33.44000	4277.00000
33.45000	4244.00000
33.46000	4224.00000
33.47000	4174.00000
33.48000	4180.00000
33.49000	4132.00000
33.50000	4135.00000
33.51000	4123.00000
33.52000	4128.00000
33.53000	4110.00000
33.54000	4155.00000
33.55000	4162.00000
33.56000	4235.00000
33.57000	4264.00000
33.58000	4308.00000
33.59000	4324.00000
33.60000	4405.00000
33.61000	4407.00000
33.62000	4446.00000
33.63000	4442.00000
33.64000	4349.00000
33.65000	4262.00000
33.66000	4264.00000
33.67000	4207.00000
33.68000	4174.00000
33.69000	4143.00000
33.70000	4143.00000
33.71000	4090.00000
33.72000	4119.00000
33.73000	4039.00000
33.74000	4068.00000
33.75000	4092.00000
33.76000	4101.00000
33.77000	4063.00000
33.78000	4127.00000
33.79000	4132.00000
33.80000	4159.00000
33.81000	4154.00000
33.82000	4167.00000
33.83000	4123.00000
33.84000	4201.00000
33.85000	4197.00000
33.86000	4206.00000
33.87000	4250.00000
33.88000	4290.00000
33.89000	4295.00000
33.90000	4332.00000
33.91000	4349.00000
33.92000	4377.00000
33.93000	4477.00000
33.94000	4509.00000
33.95000	4546.00000
33.96000	4648.00000
33.97000	4657.00000
33.98000	4720.00000
33.99000	4740.00000
34.00000	4721.00000
34.01000	4661.00000
34.02000	4653.00000
34.03000	4588.00000
34.04000	4531.00000
34.05000	4469.00000
34.06000	4375.00000
34.07000	4271.00000
34.08000	4248.00000
34.09000	4201.00000
34.10000	4186.00000
34.11000	4188.00000
34.12000	4172.00000
34.13000	4144.00000
34.14000	4218.00000
34.15000	4215.00000
34.16000	4282.00000
34.17000	4265.00000
34.18000	4279.00000
34.19000	4226.00000
34.20000	4253.00000
34.21000	4234.00000
34.22000	4279.00000
34.23000	4276.00000
34.24000	4253.00000
34.25000	4185.00000
34.26000	4209.00000
34.27000	4163.00000
34.28000	4159.00000
34.29000	4162.00000
34.30000	4126.00000
34.31000	4058.00000
34.32000	4069.00000
34.33000	4012.00000
34.34000	3984.00000
34.35000	4016.00000
34.36000	3977.00000
34.37000	3963.00000
34.38000	4011.00000
34.39000	3998.00000
34.40000	3998.00000
34.41000	4012.00000
34.42000	4022.00000
34.43000	4018.00000
34.44000	4028.00000
34.45000	4012.00000
34.46000	4040.00000
34.47000	4039.00000
34.48000	4002.00000
34.49000	3942.00000
34.50000	3965.00000
34.51000	3945.00000
34.52000	3942.00000
34.53000	3935.00000
34.54000	3952.00000
34.55000	3896.00000
34.56000	3954.00000
34.57000	3897.00000
34.58000	3955.00000
34.59000	3947.00000
34.60000	3947.00000
34.61000	3936.00000
34.62000	3986.00000
34.63000	3937.00000
34.64000	3999.00000
34.65000	4010.00000
34.66000	4001.00000
34.67000	3984.00000
34.68000	4022.00000
34.69000	4007.00000
34.70000	4069.00000
34.71000	4068.00000
34.72000	4084.00000
34.73000	4021.00000
34.74000	4017.00000
34.75000	4000.00000
34.76000	4052.00000
34.77000	4053.00000
34.78000	4073.00000
34.79000	4009.00000
34.80000	4052.00000
34.81000	4021.00000
34.82000	4042.00000
34.83000	4102.00000
34.84000	4094.00000
34.85000	4130.00000
34.86000	4157.00000
34.87000	4197.00000
34.88000	4219.00000
34.89000	4279.00000
34.90000	4255.00000
34.91000	4218.00000
34.92000	4269.00000
34.93000	4194.00000
34.94000	4204.00000
34.95000	4159.00000
34.96000	4149.00000
34.97000	4037.00000
34.98000	4077.00000
34.99000	4018.00000
35.00000	4040.00000
35.01000	4061.00000
35.02000	4081.00000
35.03000	4068.00000
35.04000	4153.00000
35.05000	4116.00000
35.06000	4197.00000
35.07000	4214.00000
35.08000	4222.00000
35.09000	4167.00000
35.10000	4184.00000
35.11000	4122.00000
35.12000	4142.00000
35.13000	4115.00000
35.14000	4084.00000
35.15000	4029.00000
35.16000	4028.00000
35.17000	4042.00000
35.18000	4012.00000
35.19000	4022.00000
35.20000	4021.00000
35.21000	3991.00000
35.22000	4051.00000
35.23000	4029.00000
35.24000	4054.00000
35.25000	4057.00000
35.26000	4065.00000
35.27000	4022.00000
35.28000	4063.00000
35.29000	4071.00000
35.30000	4056.00000
35.31000	4109.00000
35.32000	4118.00000
35.33000	4093.00000
35.34000	4131.00000
35.35000	4139.00000
35.36000	4183.00000
35.37000	4229.00000
35.38000	4238.00000
35.39000	4262.00000
35.40000	4289.00000
35.41000	4267.00000
35.42000	4313.00000
35.43000	4330.00000
35.44000	4299.00000
35.45000	4233.00000
35.46000	4253.00000
35.47000	4167.00000
35.48000	4140.00000
35.49000	4119.00000
35.50000	4103.00000
35.51000	4038.00000
35.52000	4055.00000
35.53000	4013.00000
35.54000	4032.00000
35.55000	4003.00000
35.56000	3998.00000
35.57000	3909.00000
35.58000	3965.00000
35.59000	3912.00000
35.60000	3926.00000
35.61000	3916.00000
35.62000	3922.00000
35.63000	3874.00000
35.64000	3894.00000
35.65000	3864.00000
35.66000	3893.00000
35.67000	3910.00000
35.68000	3860.00000
35.69000	3855.00000
35.70000	3877.00000
35.71000	3896.00000
35.72000	3891.00000
35.73000	3928.00000
35.74000	3936.00000
35.75000	3923.00000
35.76000	3957.00000
35.77000	3955.00000
35.78000	3984.00000
35.79000	4004.00000
35.80000	4005.00000
35.81000	3949.00000
35.82000	4037.00000
35.83000	4021.00000
35.84000	4052.00000
35.85000	4104.00000
35.86000	4127.00000
35.87000	4115.00000
35.88000	4180.00000
35.89000	4210.00000
35.90000	4240.00000
35.91000	4311.00000
35.92000	4323.00000
35.93000	4277.00000
35.94000	4328.00000
35.95000	4339.00000
35.96000	4334.00000
35.97000	4307.00000
35.98000	4244.00000
35.99000	4184.00000
36.00000	4179.00000
36.01000	4123.00000
36.02000	4109.00000
36.03000	4109.00000
36.04000	4080.00000
36.05000	4067.00000
36.06000	4103.00000
36.07000	4119.00000
36.08000	4146.00000
36.09000	4193.00000
36.10000	4214.00000
36.11000	4254.00000
36.12000	4299.00000
36.13000	4347.00000
36.14000	4411.00000
36.15000	4451.00000
36.16000	4414.00000
36.17000	4326.00000
36.18000	4306.00000
36.19000	4223.00000
36.20000	4187.00000
36.21000	4148.00000
36.22000	4123.00000
36.23000	3998.00000
36.24000	3973.00000
36.25000	3952.00000
36.26000	3961.00000
36.27000	3974.00000
36.28000	3922.00000
36.29000	3895.00000
36.30000	3902.00000
36.31000	3870.00000
36.32000	3880.00000
36.33000	3907.00000
36.34000	3868.00000
36.35000	3860.00000
36.36000	3892.00000
36.37000	3875.00000
36.38000	3915.00000
36.39000	3914.00000
36.40000	3921.00000
36.41000	3930.00000
36.42000	3974.00000
36.43000	3980.00000
36.44000	4027.00000
36.45000	4045.00000
36.46000	4036.00000
36.47000	4015.00000
36.48000	4050.00000
36.49000	4030.00000
36.50000	4016.00000
36.51000	4036.00000
36.52000	4070.00000
36.53000	4018.00000
36.54000	4035.00000
36.55000	4029.00000
36.56000	4045.00000
36.57000	4070.00000
36.58000	4069.00000
36.59000	4045.00000
36.60000	4100.00000
36.61000	4090.00000
36.62000	4154.00000
36.63000	4177.00000
36.64000	4176.00000
36.65000	4156.00000
36.66000	4161.00000
36.67000	4134.00000
36.68000	4193.00000
36.69000	4187.00000
36.70000	4204.00000
36.71000	4193.00000
36.72000	4198.00000
36.73000	4183.00000
36.74000	4192.00000
36.75000	4206.00000
36.76000	4191.00000
36.77000	4187.00000
36.78000	4214.00000
36.79000	4229.00000
36.80000	4221.00000
36.81000	4242.00000
36.82000	4234.00000
36.83000	4164.00000
36.84000	4181.00000
36.85000	4150.00000
36.86000	4127.00000
36.87000	4119.00000
36.88000	4084.00000
36.89000	4044.00000
36.90000	4071.00000
36.91000	4033.00000
36.92000	4046.00000
36.93000	4040.00000
36.94000	4010.00000
36.95000	3953.00000
36.96000	3974.00000
36.97000	3944.00000
36.98000	3919.00000
36.99000	3906.00000
37.00000	3848.00000
37.01000	3840.00000
37.02000	3846.00000
37.03000	3807.00000
37.04000	3810.00000
37.05000	3790.00000
37.06000	3792.00000
37.07000	3756.00000
37.08000	3791.00000
37.09000	3773.00000
37.10000	3790.00000
37.11000	3798.00000
37.12000	3779.00000
37.13000	3765.00000
37.14000	3802.00000
37.15000	3811.00000
37.16000	3844.00000
37.17000	3856.00000
37.18000	3834.00000
37.19000	3792.00000
37.20000	3853.00000
37.21000	3809.00000
37.22000	3825.00000
37.23000	3816.00000
37.24000	3855.00000
37.25000	3806.00000
37.26000	3849.00000
37.27000	3811.00000
37.28000	3834.00000
37.29000	3869.00000
37.30000	3874.00000
37.31000	3828.00000
37.32000	3890.00000
37.33000	3872.00000
37.34000	3898.00000
37.35000	3896.00000
37.36000	3866.00000
37.37000	3851.00000
37.38000	3875.00000
37.39000	3843.00000
37.40000	3854.00000
37.41000	3871.00000
37.42000	3865.00000
37.43000	3858.00000
37.44000	3862.00000
37.45000	3853.00000
37.46000	3882.00000
37.47000	3920.00000
37.48000	3953.00000
37.49000	3925.00000
37.50000	3970.00000
37.51000	3971.00000
37.52000	4001.00000
37.53000	4027.00000
37.54000	4021.00000
37.55000	3986.00000
37.56000	4017.00000
37.57000	3964.00000
37.58000	4004.00000
37.59000	3990.00000
37.60000	3936.00000
37.61000	3881.00000
37.62000	3901.00000
37.63000	3864.00000
37.64000	3853.00000
37.65000	3868.00000
37.66000	3835.00000
37.67000	3798.00000
37.68000	3808.00000
37.69000	3759.00000
37.70000	3788.00000
37.71000	3799.00000
37.72000	3770.00000
37.73000	3701.00000
37.74000	3747.00000
37.75000	3708.00000
37.76000	3712.00000
37.77000	3698.00000
37.78000	3724.00000
37.79000	3669.00000
37.80000	3678.00000
37.81000	3667.00000
37.82000	3675.00000
