8.00000	1638.00000
8.02200	1590.00000
8.04400	1556.00000
8.06600	1584.00000
8.08800	1543.00000
8.11000	1515.00000
8.13200	1443.00000
8.15400	1504.00000
8.17600	1515.00000
8.19800	1434.00000
8.22000	1425.00000
8.24200	1466.00000
8.26400	1370.00000
8.28600	1378.00000
8.30800	1470.00000
8.33000	1426.00000
8.35200	1383.00000
8.37400	1305.00000
8.39600	1413.00000
8.41800	1338.00000
8.44000	1308.00000
8.46200	1311.00000
8.48400	1338.00000
8.50600	1349.00000
8.52800	1268.00000
8.55000	1252.00000
8.57200	1287.00000
8.59400	1253.00000
8.61600	1213.00000
8.63800	1239.00000
8.66000	1179.00000
8.68200	1232.00000
8.70400	1234.00000
8.72600	1193.00000
8.74800	1216.00000
8.77000	1173.00000
8.79200	1206.00000
8.81400	1225.00000
8.83600	1175.00000
8.85800	1190.00000
8.88000	1259.00000
8.90200	1159.00000
8.92400	1135.00000
8.94600	1156.00000
8.96800	1136.00000
8.99000	1173.00000
9.01200	1193.00000
9.03400	1152.00000
9.05600	1241.00000
9.07800	1212.00000
9.10000	1116.00000
9.12200	1133.00000
9.14400	1189.00000
9.16600	1206.00000
9.18800	1183.00000
9.21000	1133.00000
9.23200	1141.00000
9.25400	1123.00000
9.27600	1169.00000
9.29800	1164.00000
9.32000	1074.00000
9.34200	1103.00000
9.36400	1173.00000
9.38600	1096.00000
9.40800	1113.00000
9.43000	1095.00000
9.45200	1113.00000
9.47400	1105.00000
9.49600	1127.00000
9.51800	1085.00000
9.54000	1118.00000
9.56200	1173.00000
9.58400	1106.00000
9.60600	1092.00000
9.62800	1136.00000
9.65000	1141.00000
9.67200	1070.00000
9.69400	1110.00000
9.71600	1146.00000
9.73800	1100.00000
9.76000	1163.00000
9.78200	1125.00000
9.80400	1126.00000
9.82600	1127.00000
9.84800	1086.00000
9.87000	1150.00000
9.89200	1164.00000
9.91400	1108.00000
9.93600	1078.00000
9.95800	1088.00000
9.98000	1126.00000
10.00200	1202.00000
10.02400	1095.00000
10.04600	1168.00000
10.06800	1046.00000
10.09000	1116.00000
10.11200	1036.00000
10.13400	1017.00000
10.15600	1081.00000
10.17800	1044.00000
10.20000	1058.00000
10.22200	1129.00000
10.24400	1105.00000
10.26600	1131.00000
10.28800	1114.00000
10.31000	1148.00000
10.33200	1036.00000
10.35400	1106.00000
10.37600	1119.00000
10.39800	1171.00000
10.42000	1165.00000
10.44200	1213.00000
10.46400	1285.00000
10.48600	1281.00000
10.50800	1196.00000
10.53000	1253.00000
10.55200	1324.00000
10.57400	1495.00000
10.59600	1763.00000
10.61800	1994.00000
10.64000	2403.00000
10.66200	3032.00000
10.68400	3927.00000
10.70600	4772.00000
10.72800	5425.00000
10.75000	6230.00000
10.77200	7107.00000
10.79400	6195.00000
10.81600	4390.00000
10.83800	2570.00000
10.86000	1624.00000
10.88200	1113.00000
10.90400	1080.00000
10.92600	1051.00000
10.94800	993.00000
10.97000	962.00000
10.99200	984.00000
11.01400	944.00000
11.03600	915.00000
11.05800	939.00000
11.08000	1021.00000
11.10200	906.00000
11.12400	919.00000
11.14600	888.00000
11.16800	892.00000
11.19000	914.00000
11.21200	907.00000
11.23400	886.00000
11.25600	923.00000
11.27800	899.00000
11.30000	948.00000
11.32200	877.00000
11.34400	932.00000
11.36600	903.00000
11.38800	881.00000
11.41000	886.00000
11.43200	890.00000
11.45400	934.00000
11.47600	918.00000
11.49800	857.00000
11.52000	823.00000
11.54200	888.00000
11.56400	886.00000
11.58600	926.00000
11.60800	852.00000
11.63000	864.00000
11.65200	851.00000
11.67400	877.00000
11.69600	882.00000
11.71800	872.00000
11.74000	826.00000
11.76200	846.00000
11.78400	846.00000
11.80600	858.00000
11.82800	890.00000
11.85000	889.00000
11.87200	856.00000
11.89400	830.00000
11.91600	865.00000
11.93800	873.00000
11.96000	830.00000
11.98200	817.00000
12.00400	867.00000
12.02600	830.00000
12.04800	805.00000
12.07000	836.00000
12.09200	829.00000
12.11400	837.00000
12.13600	823.00000
12.15800	834.00000
12.18000	815.00000
12.20200	790.00000
12.22400	781.00000
12.24600	781.00000
12.26800	830.00000
12.29000	810.00000
12.31200	799.00000
12.33400	807.00000
12.35600	811.00000
12.37800	799.00000
12.40000	839.00000
12.42200	811.00000
12.44400	749.00000
12.46600	810.00000
12.48800	811.00000
12.51000	805.00000
12.53200	768.00000
12.55400	825.00000
12.57600	771.00000
12.59800	798.00000
12.62000	774.00000
12.64200	794.00000
12.66400	744.00000
12.68600	799.00000
12.70800	766.00000
12.73000	802.00000
12.75200	802.00000
12.77400	769.00000
12.79600	776.00000
12.81800	780.00000
12.84000	809.00000
12.86200	781.00000
12.88400	744.00000
12.90600	754.00000
12.92800	838.00000
12.95000	737.00000
12.97200	757.00000
12.99400	741.00000
13.01600	728.00000
13.03800	735.00000
13.06000	795.00000
13.08200	752.00000
13.10400	777.00000
13.12600	743.00000
13.14800	763.00000
13.17000	787.00000
13.19200	750.00000
13.21400	739.00000
13.23600	802.00000
13.25800	755.00000
13.28000	756.00000
13.30200	734.00000
13.32400	692.00000
13.34600	716.00000
13.36800	745.00000
13.39000	746.00000
13.41200	757.00000
13.43400	754.00000
13.45600	743.00000
13.47800	739.00000
13.50000	748.00000
13.52200	772.00000
13.54400	652.00000
13.56600	747.00000
13.58800	694.00000
13.61000	731.00000
13.63200	693.00000
13.65400	719.00000
13.67600	699.00000
13.69800	711.00000
13.72000	756.00000
13.74200	672.00000
13.76400	760.00000
13.78600	679.00000
13.80800	694.00000
13.83000	698.00000
13.85200	702.00000
13.87400	719.00000
13.89600	742.00000
13.91800	697.00000
13.94000	742.00000
13.96200	704.00000
13.98400	734.00000
14.00600	715.00000
14.02800	709.00000
14.05000	717.00000
14.07200	733.00000
14.09400	672.00000
14.11600	698.00000
14.13800	681.00000
14.16000	691.00000
14.18200	715.00000
14.20400	688.00000
14.22600	655.00000
14.24800	706.00000
14.27000	703.00000
14.29200	746.00000
14.31400	660.00000
14.33600	676.00000
14.35800	691.00000
14.38000	678.00000
14.40200	669.00000
14.42400	683.00000
14.44600	665.00000
14.46800	694.00000
14.49000	660.00000
14.51200	689.00000
14.53400	643.00000
14.55600	637.00000
14.57800	692.00000
14.60000	685.00000
14.62200	664.00000
14.64400	686.00000
14.66600	649.00000
14.68800	629.00000
14.71000	637.00000
14.73200	665.00000
14.75400	697.00000
14.77600	659.00000
14.79800	690.00000
14.82000	644.00000
14.84200	673.00000
14.86400	683.00000
14.88600	666.00000
14.90800	662.00000
14.93000	680.00000
14.95200	687.00000
14.97400	607.00000
14.99600	663.00000
15.01800	628.00000
15.04000	625.00000
15.06200	684.00000
15.08400	628.00000
15.10600	660.00000
15.12800	645.00000
15.15000	638.00000
15.17200	618.00000
15.19400	624.00000
15.21600	685.00000
15.23800	655.00000
15.26000	679.00000
15.28200	677.00000
15.30400	665.00000
15.32600	643.00000
15.34800	652.00000
15.37000	632.00000
15.39200	639.00000
15.41400	629.00000
15.43600	640.00000
15.45800	646.00000
15.48000	678.00000
15.50200	658.00000
15.52400	656.00000
15.54600	612.00000
15.56800	661.00000
15.59000	627.00000
15.61200	685.00000
15.63400	628.00000
15.65600	571.00000
15.67800	668.00000
15.70000	626.00000
15.72200	631.00000
15.74400	627.00000
15.76600	623.00000
15.78800	613.00000
15.81000	674.00000
15.83200	608.00000
15.85400	598.00000
15.87600	635.00000
15.89800	631.00000
15.92000	633.00000
15.94200	701.00000
15.96400	639.00000
15.98600	618.00000
16.00800	601.00000
16.03000	612.00000
16.05200	663.00000
16.07400	663.00000
16.09600	647.00000
16.11800	655.00000
16.14000	616.00000
16.16200	638.00000
16.18400	605.00000
16.20600	655.00000
16.22800	659.00000
16.25000	614.00000
16.27200	608.00000
16.29400	623.00000
16.31600	611.00000
16.33800	633.00000
16.36000	628.00000
16.38200	603.00000
16.40400	577.00000
16.42600	576.00000
16.44800	619.00000
16.47000	581.00000
16.49200	581.00000
16.51400	640.00000
16.53600	651.00000
16.55800	609.00000
16.58000	595.00000
16.60200	599.00000
16.62400	602.00000
16.64600	587.00000
16.66800	616.00000
16.69000	582.00000
16.71200	586.00000
16.73400	602.00000
16.75600	636.00000
16.77800	620.00000
16.80000	592.00000
16.82200	648.00000
16.84400	648.00000
16.86600	621.00000
16.88800	632.00000
16.91000	627.00000
16.93200	558.00000
16.95400	596.00000
16.97600	663.00000
16.99800	613.00000
17.02000	610.00000
17.04200	589.00000
17.06400	609.00000
17.08600	612.00000
17.10800	636.00000
17.13000	683.00000
17.15200	574.00000
17.17400	592.00000
17.19600	564.00000
17.21800	629.00000
17.24000	592.00000
17.26200	591.00000
17.28400	603.00000
17.30600	620.00000
17.32800	636.00000
17.35000	670.00000
17.37200	648.00000
17.39400	604.00000
17.41600	627.00000
17.43800	589.00000
17.46000	578.00000
17.48200	631.00000
17.50400	638.00000
17.52600	583.00000
17.54800	615.00000
17.57000	570.00000
17.59200	631.00000
17.61400	606.00000
17.63600	595.00000
17.65800	580.00000
17.68000	559.00000
17.70200	597.00000
17.72400	649.00000
17.74600	575.00000
17.76800	588.00000
17.79000	616.00000
17.81200	620.00000
17.83400	659.00000
17.85600	607.00000
17.87800	610.00000
17.90000	597.00000
17.92200	617.00000
17.94400	617.00000
17.96600	628.00000
17.98800	590.00000
18.01000	616.00000
18.03200	613.00000
18.05400	598.00000
18.07600	610.00000
18.09800	610.00000
18.12000	572.00000
18.14200	630.00000
18.16400	597.00000
18.18600	576.00000
18.20800	618.00000
18.23000	612.00000
18.25200	704.00000
18.27400	698.00000
18.29600	679.00000
18.31800	661.00000
18.34000	703.00000
18.36200	640.00000
18.38400	633.00000
18.40600	611.00000
18.42800	604.00000
18.45000	631.00000
18.47200	589.00000
18.49400	617.00000
18.51600	620.00000
18.53800	603.00000
18.56000	626.00000
18.58200	619.00000
18.60400	590.00000
18.62600	589.00000
18.64800	600.00000
18.67000	583.00000
18.69200	620.00000
18.71400	598.00000
18.73600	613.00000
18.75800	621.00000
18.78000	599.00000
18.80200	584.00000
18.82400	648.00000
18.84600	598.00000
18.86800	606.00000
18.89000	602.00000
18.91200	607.00000
18.93400	598.00000
18.95600	592.00000
18.97800	587.00000
19.00000	599.00000
19.02200	588.00000
19.04400	588.00000
19.06600	620.00000
19.08800	605.00000
19.11000	616.00000
19.13200	592.00000
19.15400	598.00000
19.17600	586.00000
19.19800	587.00000
19.22000	605.00000
19.24200	607.00000
19.26400	625.00000
19.28600	603.00000
19.30800	632.00000
19.33000	561.00000
19.35200	612.00000
19.37400	628.00000
19.39600	640.00000
19.41800	612.00000
19.44000	648.00000
19.46200	685.00000
19.48400	657.00000
19.50600	680.00000
19.52800	727.00000
19.55000	682.00000
19.57200	615.00000
19.59400	623.00000
19.61600	610.00000
19.63800	603.00000
19.66000	630.00000
19.68200	604.00000
19.70400	658.00000
19.72600	614.00000
19.74800	626.00000
19.77000	628.00000
19.79200	630.00000
19.81400	570.00000
19.83600	621.00000
19.85800	613.00000
19.88000	614.00000
19.90200	611.00000
19.92400	583.00000
19.94600	564.00000
19.96800	601.00000
19.99000	600.00000
20.01200	586.00000
20.03400	581.00000
20.05600	559.00000
20.07800	617.00000
20.10000	635.00000
20.12200	601.00000
20.14400	626.00000
20.16600	624.00000
20.18800	590.00000
20.21000	567.00000
20.23200	600.00000
20.25400	568.00000
20.27600	576.00000
20.29800	636.00000
20.32000	653.00000
20.34200	594.00000
20.36400	590.00000
20.38600	670.00000
20.40800	586.00000
20.43000	603.00000
20.45200	591.00000
20.47400	610.00000
20.49600	630.00000
20.51800	651.00000
20.54000	662.00000
20.56200	617.00000
20.58400	581.00000
20.60600	600.00000
20.62800	660.00000
20.65000	612.00000
20.67200	628.00000
20.69400	640.00000
20.71600	653.00000
20.73800	617.00000
20.76000	657.00000
20.78200	686.00000
20.80400	732.00000
20.82600	674.00000
20.84800	690.00000
20.87000	647.00000
20.89200	697.00000
20.91400	721.00000
20.93600	688.00000
20.95800	694.00000
20.98000	710.00000
21.00200	660.00000
21.02400	715.00000
21.04600	696.00000
21.06800	671.00000
21.09000	618.00000
21.11200	686.00000
21.13400	620.00000
21.15600	644.00000
21.17800	676.00000
21.20000	638.00000
21.22200	609.00000
21.24400	666.00000
21.26600	674.00000
21.28800	638.00000
21.31000	681.00000
21.33200	625.00000
21.35400	645.00000
21.37600	677.00000
21.39800	689.00000
21.42000	696.00000
21.44200	745.00000
21.46400	859.00000
21.48600	855.00000
21.50800	1074.00000
21.53000	1252.00000
21.55200	1686.00000
21.57400	2033.00000
21.59600	2254.00000
21.61800	2318.00000
21.64000	2333.00000
21.66200	1929.00000
21.68400	1445.00000
21.70600	1130.00000
21.72800	862.00000
21.75000	731.00000
21.77200	674.00000
21.79400	648.00000
21.81600	681.00000
21.83800	674.00000
21.86000	654.00000
21.88200	663.00000
21.90400	644.00000
21.92600	669.00000
21.94800	667.00000
21.97000	667.00000
21.99200	638.00000
22.01400	644.00000
22.03600	678.00000
22.05800	704.00000
22.08000	703.00000
22.10200	641.00000
22.12400	673.00000
22.14600	638.00000
22.16800	649.00000
22.19000	699.00000
22.21200	672.00000
22.23400	663.00000
22.25600	661.00000
22.27800	675.00000
22.30000	683.00000
22.32200	726.00000
22.34400	713.00000
22.36600	709.00000
22.38800	673.00000
22.41000	717.00000
22.43200	730.00000
22.45400	714.00000
22.47600	711.00000
22.49800	699.00000
22.52000	730.00000
22.54200	721.00000
22.56400	734.00000
22.58600	716.00000
22.60800	744.00000
22.63000	753.00000
22.65200	693.00000
22.67400	752.00000
22.69600	774.00000
22.71800	714.00000
22.74000	736.00000
22.76200	766.00000
22.78400	773.00000
22.80600	825.00000
22.82800	866.00000
22.85000	933.00000
22.87200	1122.00000
22.89400	1475.00000
22.91600	2200.00000
22.93800	3174.00000
22.96000	4308.00000
22.98200	5823.00000
23.00400	6704.00000
23.02600	6824.00000
23.04800	6253.00000
23.07000	4998.00000
23.09200	3396.00000
23.11400	2382.00000
23.13600	1551.00000
23.15800	1001.00000
23.18000	831.00000
23.20200	731.00000
23.22400	676.00000
23.24600	715.00000
23.26800	720.00000
23.29000	710.00000
23.31200	662.00000
23.33400	680.00000
23.35600	627.00000
23.37800	660.00000
23.40000	649.00000
23.42200	643.00000
23.44400	678.00000
23.46600	687.00000
23.48800	630.00000
23.51000	644.00000
23.53200	654.00000
23.55400	695.00000
23.57600	677.00000
23.59800	728.00000
23.62000	746.00000
23.64200	703.00000
23.66400	851.00000
23.68600	800.00000
23.70800	751.00000
23.73000	783.00000
23.75200	739.00000
23.77400	739.00000
23.79600	744.00000
23.81800	772.00000
23.84000	763.00000
23.86200	808.00000
23.88400	837.00000
23.90600	802.00000
23.92800	768.00000
23.95000	834.00000
23.97200	789.00000
23.99400	788.00000
24.01600	757.00000
24.03800	729.00000
24.06000	682.00000
24.08200	697.00000
24.10400	696.00000
24.12600	644.00000
24.14800	664.00000
24.17000	672.00000
24.19200	657.00000
24.21400	673.00000
24.23600	655.00000
24.25800	660.00000
24.28000	626.00000
24.30200	657.00000
24.32400	628.00000
24.34600	656.00000
24.36800	675.00000
24.39000	633.00000
24.41200	582.00000
24.43400	674.00000
24.45600	616.00000
24.47800	654.00000
24.50000	652.00000
24.52200	650.00000
24.54400	664.00000
24.56600	680.00000
24.58800	623.00000
24.61000	684.00000
24.63200	673.00000
24.65400	655.00000
24.67600	646.00000
24.69800	677.00000
24.72000	649.00000
24.74200	662.00000
24.76400	649.00000
24.78600	651.00000
24.80800	633.00000
24.83000	678.00000
24.85200	706.00000
24.87400	634.00000
24.89600	639.00000
24.91800	731.00000
24.94000	726.00000
24.96200	729.00000
24.98400	688.00000
25.00600	705.00000
25.02800	737.00000
25.05000	715.00000
25.07200	759.00000
25.09400	717.00000
25.11600	710.00000
25.13800	732.00000
25.16000	677.00000
25.18200	726.00000
25.20400	731.00000
25.22600	744.00000
25.24800	738.00000
25.27000	723.00000
25.29200	699.00000
25.31400	737.00000
25.33600	763.00000
25.35800	781.00000
25.38000	722.00000
25.40200	758.00000
25.42400	765.00000
25.44600	749.00000
25.46800	744.00000
25.49000	745.00000
25.51200	854.00000
25.53400	783.00000
25.55600	775.00000
25.57800	860.00000
25.60000	805.00000
25.62200	842.00000
25.64400	866.00000
25.66600	845.00000
25.68800	833.00000
25.71000	853.00000
25.73200	828.00000
25.75400	810.00000
25.77600	824.00000
25.79800	883.00000
25.82000	861.00000
25.84200	836.00000
25.86400	875.00000
25.88600	863.00000
25.90800	875.00000
25.93000	857.00000
25.95200	868.00000
25.97400	865.00000
25.99600	945.00000
26.01800	988.00000
26.04000	1047.00000
26.06200	1078.00000
26.08400	1241.00000
26.10600	1541.00000
26.12800	1959.00000
26.15000	2960.00000
26.17200	4580.00000
26.19400	7228.00000
26.21600	10243.00000
26.23800	13695.00000
26.26000	16562.00000
26.28200	17272.00000
26.30400	16131.00000
26.32600	13155.00000
26.34800	9639.00000
26.37000	6412.00000
26.39200	4290.00000
26.41400	2473.00000
26.43600	1475.00000
26.45800	1123.00000
26.48000	947.00000
26.50200	909.00000
26.52400	912.00000
26.54600	853.00000
26.56800	781.00000
26.59000	826.00000
26.61200	771.00000
26.63400	749.00000
26.65600	760.00000
26.67800	691.00000
26.70000	733.00000
26.72200	745.00000
26.74400	771.00000
26.76600	712.00000
26.78800	753.00000
26.81000	786.00000
26.83200	750.00000
26.85400	718.00000
26.87600	759.00000
26.89800	785.00000
26.92000	751.00000
26.94200	725.00000
26.96400	687.00000
26.98600	783.00000
27.00800	712.00000
27.03000	744.00000
27.05200	775.00000
27.07400	718.00000
27.09600	754.00000
27.11800	786.00000
27.14000	719.00000
27.16200	712.00000
27.18400	714.00000
27.20600	693.00000
27.22800	766.00000
27.25000	755.00000
27.27200	761.00000
27.29400	776.00000
27.31600	880.00000
27.33800	1100.00000
27.36000	1464.00000
27.38200	2066.00000
27.40400	2781.00000
27.42600	3426.00000
27.44800	3484.00000
27.47000	3666.00000
27.49200	3217.00000
27.51400	2512.00000
27.53600	1900.00000
27.55800	1520.00000
27.58000	1162.00000
27.60200	829.00000
27.62400	774.00000
27.64600	678.00000
27.66800	690.00000
27.69000	648.00000
27.71200	639.00000
27.73400	622.00000
27.75600	600.00000
27.77800	593.00000
27.80000	611.00000
27.82200	625.00000
27.84400	668.00000
27.86600	572.00000
27.88800	617.00000
27.91000	606.00000
27.93200	647.00000
27.95400	625.00000
27.97600	651.00000
27.99800	704.00000
28.02000	682.00000
28.04200	840.00000
28.06400	927.00000
28.08600	1218.00000
28.10800	1479.00000
28.13000	1719.00000
28.15200	1827.00000
28.17400	1862.00000
28.19600	1585.00000
28.21800	1398.00000
28.24000	1140.00000
28.26200	946.00000
28.28400	795.00000
28.30600	683.00000
28.32800	599.00000
28.35000	612.00000
28.37200	650.00000
28.39400	622.00000
28.41600	584.00000
28.43800	593.00000
28.46000	597.00000
28.48200	613.00000
28.50400	545.00000
28.52600	591.00000
28.54800	596.00000
28.57000	626.00000
28.59200	613.00000
28.61400	615.00000
28.63600	551.00000
28.65800	612.00000
28.68000	607.00000
28.70200	664.00000
28.72400	629.00000
28.74600	626.00000
28.76800	630.00000
28.79000	602.00000
28.81200	615.00000
28.83400	664.00000
28.85600	609.00000
28.87800	622.00000
28.90000	614.00000
28.92200	561.00000
28.94400	560.00000
28.96600	599.00000
28.98800	611.00000
29.01000	569.00000
29.03200	581.00000
29.05400	614.00000
29.07600	655.00000
29.09800	670.00000
29.12000	635.00000
29.14200	614.00000
29.16400	609.00000
29.18600	624.00000
29.20800	596.00000
29.23000	590.00000
29.25200	612.00000
29.27400	668.00000
29.29600	603.00000
29.31800	598.00000
29.34000	580.00000
29.36200	625.00000
29.38400	646.00000
29.40600	668.00000
29.42800	698.00000
29.45000	679.00000
29.47200	701.00000
29.49400	646.00000
29.51600	686.00000
29.53800	725.00000
29.56000	711.00000
29.58200	766.00000
29.60400	907.00000
29.62600	989.00000
29.64800	1203.00000
29.67000	1840.00000
29.69200	2629.00000
29.71400	3862.00000
29.73600	5269.00000
29.75800	6305.00000
29.78000	6788.00000
29.80200	6655.00000
29.82400	5709.00000
29.84600	4430.00000
29.86800	3159.00000
29.89000	2372.00000
29.91200	1615.00000
29.93400	1079.00000
29.95600	811.00000
29.97800	710.00000
30.00000	666.00000
30.02200	629.00000
30.04400	658.00000
30.06600	550.00000
30.08800	623.00000
30.11000	640.00000
30.13200	585.00000
30.15400	609.00000
30.17600	631.00000
30.19800	653.00000
30.22000	712.00000
30.24200	876.00000
30.26400	973.00000
30.28600	1062.00000
30.30800	1145.00000
30.33000	1253.00000
30.35200	1209.00000
30.37400	1070.00000
30.39600	875.00000
30.41800	889.00000
30.44000	706.00000
30.46200	681.00000
30.48400	633.00000
30.50600	592.00000
30.52800	537.00000
30.55000	576.00000
30.57200	544.00000
30.59400	549.00000
30.61600	534.00000
30.63800	572.00000
30.66000	530.00000
30.68200	541.00000
30.70400	587.00000
30.72600	553.00000
30.74800	507.00000
30.77000	521.00000
30.79200	580.00000
30.81400	580.00000
30.83600	559.00000
30.85800	535.00000
30.88000	525.00000
30.90200	443.00000
30.92400	486.00000
30.94600	506.00000
30.96800	505.00000
30.99000	496.00000
31.01200	485.00000
31.03400	515.00000
31.05600	492.00000
31.07800	525.00000
31.10000	514.00000
31.12200	539.00000
31.14400	479.00000
31.16600	524.00000
31.18800	517.00000
31.21000	509.00000
31.23200	531.00000
31.25400	529.00000
31.27600	499.00000
31.29800	558.00000
31.32000	537.00000
31.34200	489.00000
31.36400	503.00000
31.38600	506.00000
31.40800	515.00000
31.43000	487.00000
31.45200	459.00000
31.47400	518.00000
31.49600	505.00000
31.51800	506.00000
31.54000	511.00000
31.56200	533.00000
31.58400	570.00000
31.60600	625.00000
31.62800	647.00000
31.65000	797.00000
31.67200	980.00000
31.69400	1150.00000
31.71600	1251.00000
31.73800	1261.00000
31.76000	1346.00000
31.78200	1303.00000
31.80400	1100.00000
31.82600	959.00000
31.84800	865.00000
31.87000	825.00000
31.89200	746.00000
31.91400	734.00000
31.93600	664.00000
31.95800	679.00000
31.98000	673.00000
32.00200	601.00000
32.02400	554.00000
32.04600	575.00000
32.06800	545.00000
32.09000	500.00000
32.11200	487.00000
32.13400	494.00000
32.15600	509.00000
32.17800	498.00000
32.20000	519.00000
32.22200	506.00000
32.24400	470.00000
32.26600	497.00000
32.28800	443.00000
32.31000	488.00000
32.33200	505.00000
32.35400	493.00000
32.37600	537.00000
32.39800	507.00000
32.42000	507.00000
32.44200	516.00000
32.46400	536.00000
32.48600	653.00000
32.50800	788.00000
32.53000	1019.00000
32.55200	1347.00000
32.57400	1546.00000
32.59600	1817.00000
32.61800	1927.00000
32.64000	1943.00000
32.66200	1843.00000
32.68400	1604.00000
32.70600	1278.00000
32.72800	1016.00000
32.75000	862.00000
32.77200	736.00000
32.79400	597.00000
32.81600	540.00000
32.83800	509.00000
32.86000	495.00000
32.88200	538.00000
32.90400	517.00000
32.92600	502.00000
32.94800	464.00000
32.97000	453.00000
32.99200	502.00000
33.01400	502.00000
33.03600	496.00000
33.05800	498.00000
33.08000	469.00000
33.10200	459.00000
33.12400	445.00000
33.14600	460.00000
33.16800	480.00000
33.19000	497.00000
33.21200	489.00000
33.23400	471.00000
33.25600	457.00000
33.27800	473.00000
33.30000	482.00000
33.32200	515.00000
33.34400	456.00000
33.36600	464.00000
33.38800	513.00000
33.41000	507.00000
33.43200	476.00000
33.45400	498.00000
33.47600	467.00000
33.49800	462.00000
33.52000	522.00000
33.54200	504.00000
33.56400	471.00000
33.58600	537.00000
33.60800	534.00000
33.63000	556.00000
33.65200	536.00000
33.67400	544.00000
33.69600	658.00000
33.71800	684.00000
33.74000	728.00000
33.76200	1092.00000
33.78400	1569.00000
33.80600	2252.00000
33.82800	3064.00000
33.85000	3550.00000
33.87200	3817.00000
33.89400	3787.00000
33.91600	3526.00000
33.93800	2981.00000
33.96000	2082.00000
33.98200	1679.00000
34.00400	1373.00000
34.02600	956.00000
34.04800	671.00000
34.07000	546.00000
34.09200	520.00000
34.11400	460.00000
34.13600	479.00000
34.15800	477.00000
34.18000	515.00000
34.20200	474.00000
34.22400	465.00000
34.24600	432.00000
34.26800	460.00000
34.29000	444.00000
34.31200	442.00000
34.33400	454.00000
34.35600	466.00000
34.37800	430.00000
34.40000	486.00000
34.42200	452.00000
34.44400	458.00000
34.46600	418.00000
34.48800	433.00000
34.51000	386.00000
34.53200	408.00000
34.55400	391.00000
34.57600	417.00000
34.59800	414.00000
34.62000	401.00000
34.64200	413.00000
34.66400	402.00000
34.68600	403.00000
34.70800	402.00000
34.73000	432.00000
34.75200	394.00000
34.77400	408.00000
34.79600	378.00000
34.81800	366.00000
34.84000	375.00000
34.86200	407.00000
34.88400	403.00000
34.90600	392.00000
34.92800	393.00000
34.95000	376.00000
34.97200	398.00000
34.99400	400.00000
35.01600	383.00000
35.03800	397.00000
35.06000	354.00000
35.08200	399.00000
35.10400	381.00000
35.12600	383.00000
35.14800	411.00000
35.17000	382.00000
35.19200	400.00000
35.21400	400.00000
35.23600	404.00000
35.25800	379.00000
35.28000	351.00000
35.30200	365.00000
35.32400	405.00000
35.34600	402.00000
35.36800	394.00000
35.39000	377.00000
35.41200	345.00000
35.43400	390.00000
35.45600	371.00000
35.47800	405.00000
35.50000	386.00000
35.52200	354.00000
35.54400	379.00000
35.56600	383.00000
35.58800	376.00000
35.61000	425.00000
35.63200	344.00000
35.65400	349.00000
35.67600	365.00000
35.69800	369.00000
35.72000	377.00000
35.74200	384.00000
35.76400	371.00000
35.78600	369.00000
35.80800	352.00000
35.83000	383.00000
35.85200	380.00000
35.87400	389.00000
35.89600	389.00000
35.91800	374.00000
35.94000	411.00000
35.96200	421.00000
35.98400	380.00000
36.00600	365.00000
36.02800	349.00000
36.05000	390.00000
36.07200	384.00000
36.09400	393.00000
36.11600	404.00000
36.13800	359.00000
36.16000	404.00000
36.18200	362.00000
36.20400	381.00000
36.22600	389.00000
36.24800	393.00000
36.27000	411.00000
36.29200	394.00000
36.31400	355.00000
36.33600	405.00000
36.35800	359.00000
36.38000	401.00000
36.40200	376.00000
36.42400	385.00000
36.44600	402.00000
36.46800	393.00000
36.49000	376.00000
36.51200	379.00000
36.53400	361.00000
36.55600	375.00000
36.57800	369.00000
36.60000	394.00000
36.62200	372.00000
36.64400	413.00000
36.66600	386.00000
36.68800	364.00000
36.71000	412.00000
36.73200	407.00000
36.75400	418.00000
36.77600	390.00000
36.79800	457.00000
36.82000	451.00000
36.84200	464.00000
36.86400	550.00000
36.88600	770.00000
36.90800	964.00000
36.93000	1217.00000
36.95200	1490.00000
36.97400	1590.00000
36.99600	1808.00000
37.01800	1902.00000
37.04000	1806.00000
37.06200	1758.00000
37.08400	1471.00000
37.10600	1347.00000
37.12800	1143.00000
37.15000	942.00000
37.17200	730.00000
37.19400	645.00000
37.21600	537.00000
37.23800	476.00000
37.26000	466.00000
37.28200	413.00000
37.30400	409.00000
37.32600	424.00000
37.34800	412.00000
37.37000	372.00000
37.39200	383.00000
37.41400	385.00000
37.43600	388.00000
37.45800	382.00000
37.48000	379.00000
37.50200	412.00000
37.52400	356.00000
37.54600	385.00000
37.56800	362.00000
37.59000	400.00000
37.61200	360.00000
37.63400	343.00000
37.65600	388.00000
37.67800	398.00000
37.70000	358.00000
37.72200	385.00000
37.74400	404.00000
37.76600	410.00000
37.78800	490.00000
37.81000	509.00000
37.83200	640.00000
37.85400	803.00000
37.87600	1229.00000
37.89800	1600.00000
37.92000	1940.00000
37.94200	2171.00000
37.96400	2321.00000
37.98600	2206.00000
38.00800	2022.00000
38.03000	1586.00000
38.05200	1202.00000
38.07400	1108.00000
38.09600	910.00000
38.11800	710.00000
38.14000	492.00000
38.16200	415.00000
38.18400	418.00000
38.20600	393.00000
38.22800	376.00000
38.25000	347.00000
38.27200	359.00000
38.29400	361.00000
38.31600	370.00000
38.33800	359.00000
38.36000	352.00000
38.38200	352.00000
38.40400	364.00000
38.42600	362.00000
38.44800	390.00000
38.47000	341.00000
38.49200	344.00000
38.51400	375.00000
38.53600	370.00000
38.55800	355.00000
38.58000	364.00000
38.60200	326.00000
38.62400	323.00000
38.64600	342.00000
38.66800	339.00000
38.69000	338.00000
38.71200	324.00000
38.73400	336.00000
38.75600	309.00000
38.77800	328.00000
38.80000	310.00000
38.82200	321.00000
38.84400	293.00000
38.86600	341.00000
38.88800	342.00000
38.91000	317.00000
38.93200	323.00000
38.95400	319.00000
38.97600	357.00000
38.99800	327.00000
39.02000	330.00000
39.04200	355.00000
39.06400	325.00000
39.08600	332.00000
39.10800	311.00000
39.13000	334.00000
39.15200	322.00000
39.17400	298.00000
39.19600	295.00000
39.21800	302.00000
39.24000	286.00000
39.26200	308.00000
39.28400	310.00000
39.30600	309.00000
39.32800	296.00000
39.35000	322.00000
39.37200	317.00000
39.39400	299.00000
39.41600	337.00000
39.43800	323.00000
39.46000	322.00000
39.48200	338.00000
39.50400	330.00000
39.52600	363.00000
39.54800	353.00000
39.57000	359.00000
39.59200	348.00000
39.61400	339.00000
39.63600	338.00000
39.65800	335.00000
39.68000	331.00000
39.70200	370.00000
39.72400	324.00000
39.74600	326.00000
39.76800	345.00000
39.79000	382.00000
39.81200	333.00000
39.83400	328.00000
39.85600	301.00000
39.87800	340.00000
39.90000	317.00000
39.92200	322.00000
39.94400	303.00000
39.96600	298.00000
39.98800	323.00000
40.01000	300.00000
40.03200	338.00000
40.05400	311.00000
40.07600	331.00000
40.09800	330.00000
40.12000	312.00000
40.14200	326.00000
40.16400	288.00000
40.18600	336.00000
40.20800	341.00000
40.23000	359.00000
40.25200	376.00000
40.27400	408.00000
40.29600	409.00000
40.31800	442.00000
40.34000	411.00000
40.36200	464.00000
40.38400	426.00000
40.40600	424.00000
40.42800	416.00000
40.45000	415.00000
40.47200	384.00000
40.49400	370.00000
40.51600	344.00000
40.53800	357.00000
40.56000	345.00000
40.58200	348.00000
40.60400	326.00000
40.62600	310.00000
40.64800	322.00000
40.67000	306.00000
40.69200	323.00000
40.71400	336.00000
40.73600	313.00000
40.75800	353.00000
40.78000	341.00000
40.80200	312.00000
40.82400	313.00000
40.84600	317.00000
40.86800	318.00000
40.89000	332.00000
40.91200	314.00000
40.93400	302.00000
40.95600	318.00000
40.97800	344.00000
41.00000	338.00000
41.02200	346.00000
41.04400	334.00000
41.06600	342.00000
41.08800	331.00000
41.11000	351.00000
41.13200	350.00000
41.15400	323.00000
41.17600	345.00000
41.19800	343.00000
41.22000	318.00000
41.24200	368.00000
41.26400	383.00000
41.28600	401.00000
41.30800	462.00000
41.33000	572.00000
41.35200	698.00000
41.37400	785.00000
41.39600	846.00000
41.41800	963.00000
41.44000	978.00000
41.46200	1040.00000
41.48400	927.00000
41.50600	771.00000
41.52800	644.00000
41.55000	619.00000
41.57200	550.00000
41.59400	506.00000
41.61600	442.00000
41.63800	417.00000
41.66000	364.00000
41.68200	377.00000
41.70400	377.00000
41.72600	353.00000
41.74800	331.00000
41.77000	344.00000
41.79200	359.00000
41.81400	394.00000
41.83600	410.00000
41.85800	454.00000
41.88000	535.00000
41.90200	598.00000
41.92400	552.00000
41.94600	629.00000
41.96800	608.00000
41.99000	632.00000
42.01200	574.00000
42.03400	460.00000
42.05600	463.00000
42.07800	519.00000
42.10000	422.00000
42.12200	368.00000
42.14400	377.00000
42.16600	366.00000
42.18800	398.00000
42.21000	384.00000
42.23200	383.00000
42.25400	393.00000
42.27600	426.00000
42.29800	408.00000
42.32000	482.00000
42.34200	631.00000
42.36400	816.00000
42.38600	1157.00000
42.40800	1448.00000
42.43000	1652.00000
42.45200	1891.00000
42.47400	1859.00000
42.49600	1986.00000
42.51800	2018.00000
42.54000	1604.00000
42.56200	1234.00000
42.58400	1007.00000
42.60600	921.00000
42.62800	838.00000
42.65000	697.00000
42.67200	549.00000
42.69400	430.00000
42.71600	397.00000
42.73800	373.00000
42.76000	365.00000
42.78200	355.00000
42.80400	352.00000
42.82600	332.00000
42.84800	363.00000
42.87000	349.00000
42.89200	414.00000
42.91400	454.00000
42.93600	523.00000
42.95800	566.00000
42.98000	609.00000
43.00200	600.00000
43.02400	606.00000
43.04600	579.00000
43.06800	624.00000
43.09000	615.00000
43.11200	652.00000
43.13400	661.00000
43.15600	697.00000
43.17800	673.00000
43.20000	660.00000
43.22200	659.00000
43.24400	572.00000
43.26600	519.00000
43.28800	442.00000
43.31000	433.00000
43.33200	442.00000
43.35400	390.00000
43.37600	363.00000
43.39800	332.00000
43.42000	343.00000
43.44200	342.00000
43.46400	372.00000
43.48600	306.00000
43.50800	335.00000
43.53000	350.00000
43.55200	312.00000
43.57400	308.00000
43.59600	305.00000
43.61800	298.00000
43.64000	302.00000
43.66200	351.00000
43.68400	331.00000
43.70600	315.00000
43.72800	350.00000
43.75000	334.00000
43.77200	303.00000
43.79400	293.00000
43.81600	281.00000
43.83800	354.00000
43.86000	410.00000
43.88200	436.00000
43.90400	488.00000
43.92600	648.00000
43.94800	611.00000
43.97000	744.00000
43.99200	786.00000
44.01400	796.00000
44.03600	805.00000
44.05800	783.00000
44.08000	718.00000
44.10200	640.00000
44.12400	563.00000
44.14600	538.00000
44.16800	449.00000
44.19000	424.00000
44.21200	366.00000
44.23400	340.00000
44.25600	335.00000
44.27800	324.00000
44.30000	298.00000
44.32200	327.00000
44.34400	301.00000
44.36600	338.00000
44.38800	314.00000
44.41000	300.00000
44.43200	348.00000
44.45400	348.00000
44.47600	306.00000
44.49800	343.00000
44.52000	329.00000
44.54200	346.00000
44.56400	374.00000
44.58600	462.00000
44.60800	543.00000
44.63000	650.00000
44.65200	862.00000
44.67400	995.00000
44.69600	1179.00000
44.71800	1236.00000
44.74000	1382.00000
44.76200	1338.00000
44.78400	1239.00000
44.80600	1043.00000
44.82800	846.00000
44.85000	685.00000
44.87200	703.00000
44.89400	650.00000
44.91600	560.00000
44.93800	413.00000
44.96000	351.00000
44.98200	346.00000
45.00400	320.00000
45.02600	296.00000
45.04800	318.00000
45.07000	334.00000
45.09200	311.00000
45.11400	286.00000
45.13600	292.00000
45.15800	302.00000
45.18000	289.00000
45.20200	294.00000
45.22400	302.00000
45.24600	317.00000
45.26800	312.00000
45.29000	313.00000
45.31200	281.00000
45.33400	275.00000
45.35600	279.00000
45.37800	302.00000
45.40000	268.00000
45.42200	308.00000
45.44400	346.00000
45.46600	249.00000
45.48800	263.00000
45.51000	277.00000
45.53200	316.00000
45.55400	259.00000
45.57600	296.00000
45.59800	303.00000
45.62000	276.00000
45.64200	295.00000
45.66400	315.00000
45.68600	303.00000
45.70800	307.00000
45.73000	283.00000
45.75200	296.00000
45.77400	311.00000
45.79600	299.00000
45.81800	263.00000
45.84000	317.00000
45.86200	260.00000
45.88400	256.00000
45.90600	295.00000
45.92800	277.00000
45.95000	259.00000
45.97200	276.00000
45.99400	260.00000
46.01600	278.00000
46.03800	265.00000
46.06000	258.00000
46.08200	301.00000
46.10400	264.00000
46.12600	280.00000
46.14800	244.00000
46.17000	284.00000
46.19200	284.00000
46.21400	271.00000
46.23600	275.00000
46.25800	266.00000
46.28000	273.00000
46.30200	294.00000
46.32400	266.00000
46.34600	277.00000
46.36800	279.00000
46.39000	315.00000
46.41200	279.00000
46.43400	263.00000
46.45600	264.00000
46.47800	287.00000
46.50000	294.00000
46.52200	309.00000
46.54400	338.00000
46.56600	372.00000
46.58800	399.00000
46.61000	404.00000
46.63200	399.00000
46.65400	439.00000
46.67600	452.00000
46.69800	414.00000
46.72000	421.00000
46.74200	363.00000
46.76400	379.00000
46.78600	376.00000
46.80800	359.00000
46.83000	313.00000
46.85200	341.00000
46.87400	312.00000
46.89600	304.00000
46.91800	282.00000
46.94000	263.00000
46.96200	303.00000
46.98400	284.00000
47.00600	308.00000
47.02800	333.00000
47.05000	312.00000
47.07200	301.00000
47.09400	295.00000
47.11600	297.00000
47.13800	299.00000
47.16000	295.00000
47.18200	274.00000
47.20400	265.00000
47.22600	267.00000
47.24800	260.00000
47.27000	265.00000
47.29200	287.00000
47.31400	278.00000
47.33600	279.00000
47.35800	278.00000
47.38000	282.00000
47.40200	269.00000
47.42400	288.00000
47.44600	297.00000
47.46800	251.00000
47.49000	298.00000
47.51200	283.00000
47.53400	262.00000
47.55600	266.00000
47.57800	276.00000
47.60000	293.00000
47.62200	267.00000
47.64400	265.00000
47.66600	293.00000
47.68800	281.00000
47.71000	247.00000
47.73200	268.00000
47.75400	296.00000
47.77600	277.00000
47.79800	254.00000
47.82000	317.00000
47.84200	284.00000
47.86400	313.00000
47.88600	289.00000
47.90800	301.00000
47.93000	274.00000
47.95200	305.00000
47.97400	302.00000
47.99600	285.00000
48.01800	345.00000
48.04000	361.00000
48.06200	438.00000
48.08400	577.00000
48.10600	728.00000
48.12800	755.00000
48.15000	800.00000
48.17200	830.00000
48.19400	924.00000
48.21600	954.00000
48.23800	854.00000
48.26000	692.00000
48.28200	507.00000
48.30400	583.00000
48.32600	540.00000
48.34800	477.00000
48.37000	426.00000
48.39200	375.00000
48.41400	320.00000
48.43600	323.00000
48.45800	315.00000
48.48000	310.00000
48.50200	288.00000
48.52400	291.00000
48.54600	273.00000
48.56800	254.00000
48.59000	283.00000
48.61200	284.00000
48.63400	276.00000
48.65600	278.00000
48.67800	277.00000
48.70000	307.00000
48.72200	269.00000
48.74400	283.00000
48.76600	289.00000
48.78800	245.00000
48.81000	304.00000
48.83200	262.00000
48.85400	271.00000
48.87600	265.00000
48.89800	294.00000
48.92000	290.00000
48.94200	268.00000
48.96400	273.00000
48.98600	294.00000
49.00800	254.00000
49.03000	309.00000
49.05200	268.00000
49.07400	296.00000
49.09600	258.00000
49.11800	275.00000
49.14000	268.00000
49.16200	290.00000
49.18400	285.00000
49.20600	275.00000
49.22800	276.00000
49.25000	306.00000
49.27200	270.00000
49.29400	263.00000
49.31600	252.00000
49.33800	305.00000
49.36000	291.00000
49.38200	286.00000
49.40400	267.00000
49.42600	282.00000
49.44800	316.00000
49.47000	275.00000
49.49200	279.00000
49.51400	310.00000
49.53600	347.00000
49.55800	331.00000
49.58000	365.00000
49.60200	336.00000
49.62400	357.00000
49.64600	358.00000
49.66800	349.00000
49.69000	360.00000
49.71200	339.00000
49.73400	405.00000
49.75600	327.00000
49.77800	411.00000
49.80000	434.00000
49.82200	455.00000
49.84400	527.00000
49.86600	534.00000
49.88800	526.00000
49.91000	583.00000
49.93200	639.00000
49.95400	652.00000
49.97600	575.00000
49.99800	533.00000
50.02000	455.00000
50.04200	464.00000
50.06400	442.00000
50.08600	410.00000
50.10800	438.00000
50.13000	411.00000
50.15200	317.00000
50.17400	324.00000
50.19600	325.00000
50.21800	312.00000
50.24000	352.00000
50.26200	300.00000
50.28400	346.00000
50.30600	336.00000
50.32800	335.00000
50.35000	343.00000
50.37200	332.00000
50.39400	341.00000
50.41600	307.00000
50.43800	328.00000
50.46000	365.00000
50.48200	320.00000
50.50400	324.00000
50.52600	332.00000
50.54800	350.00000
50.57000	359.00000
50.59200	373.00000
50.61400	556.00000
50.63600	771.00000
50.65800	924.00000
50.68000	1058.00000
50.70200	1121.00000
50.72400	1197.00000
50.74600	1338.00000
50.76800	1368.00000
50.79000	1268.00000
50.81200	1059.00000
50.83400	832.00000
50.85600	738.00000
50.87800	796.00000
50.90000	748.00000
50.92200	639.00000
50.94400	528.00000
50.96600	443.00000
50.98800	406.00000
51.01000	338.00000
51.03200	330.00000
51.05400	305.00000
51.07600	311.00000
51.09800	324.00000
51.12000	304.00000
51.14200	317.00000
51.16400	288.00000
51.18600	323.00000
51.20800	304.00000
51.23000	280.00000
51.25200	271.00000
51.27400	311.00000
51.29600	322.00000
51.31800	370.00000
51.34000	397.00000
51.36200	410.00000
51.38400	422.00000
51.40600	441.00000
51.42800	411.00000
51.45000	478.00000
51.47200	443.00000
51.49400	408.00000
51.51600	366.00000
51.53800	355.00000
51.56000	321.00000
51.58200	364.00000
51.60400	331.00000
51.62600	317.00000
51.64800	282.00000
51.67000	289.00000
51.69200	264.00000
51.71400	249.00000
51.73600	277.00000
51.75800	266.00000
51.78000	281.00000
51.80200	293.00000
51.82400	285.00000
51.84600	263.00000
51.86800	274.00000
51.89000	246.00000
51.91200	278.00000
51.93400	271.00000
51.95600	255.00000
51.97800	292.00000
52.00000	325.00000
52.02200	309.00000
52.04400	305.00000
52.06600	275.00000
52.08800	301.00000
52.11000	304.00000
52.13200	286.00000
52.15400	332.00000
52.17600	374.00000
52.19800	402.00000
52.22000	407.00000
52.24200	444.00000
52.26400	430.00000
52.28600	422.00000
52.30800	477.00000
52.33000	468.00000
52.35200	407.00000
52.37400	417.00000
52.39600	404.00000
52.41800	360.00000
52.44000	366.00000
52.46200	371.00000
52.48400	441.00000
52.50600	431.00000
52.52800	428.00000
52.55000	424.00000
52.57200	384.00000
52.59400	430.00000
52.61600	429.00000
52.63800	411.00000
52.66000	393.00000
52.68200	373.00000
52.70400	357.00000
52.72600	353.00000
52.74800	351.00000
52.77000	334.00000
52.79200	326.00000
52.81400	310.00000
52.83600	285.00000
52.85800	279.00000
52.88000	297.00000
52.90200	270.00000
52.92400	254.00000
52.94600	293.00000
52.96800	252.00000
52.99000	284.00000
53.01200	273.00000
53.03400	271.00000
53.05600	285.00000
53.07800	293.00000
53.10000	296.00000
53.12200	265.00000
53.14400	299.00000
53.16600	283.00000
53.18800	286.00000
53.21000	277.00000
53.23200	297.00000
53.25400	271.00000
53.27600	276.00000
53.29800	249.00000
53.32000	278.00000
53.34200	261.00000
53.36400	276.00000
53.38600	277.00000
53.40800	268.00000
53.43000	277.00000
53.45200	246.00000
53.47400	261.00000
53.49600	246.00000
53.51800	298.00000
53.54000	281.00000
53.56200	288.00000
53.58400	261.00000
53.60600	253.00000
53.62800	301.00000
53.65000	278.00000
53.67200	264.00000
53.69400	250.00000
53.71600	289.00000
53.73800	283.00000
53.76000	305.00000
53.78200	290.00000
53.80400	307.00000
53.82600	300.00000
53.84800	319.00000
53.87000	322.00000
53.89200	331.00000
53.91400	416.00000
53.93600	466.00000
53.95800	555.00000
53.98000	637.00000
54.00200	639.00000
54.02400	631.00000
54.04600	704.00000
54.06800	670.00000
54.09000	634.00000
54.11200	610.00000
54.13400	528.00000
54.15600	484.00000
54.17800	492.00000
54.20000	458.00000
54.22200	494.00000
54.24400	466.00000
54.26600	365.00000
54.28800	342.00000
54.31000	345.00000
54.33200	328.00000
54.35400	315.00000
54.37600	313.00000
54.39800	272.00000
54.42000	292.00000
54.44200	288.00000
54.46400	316.00000
54.48600	277.00000
54.50800	286.00000
54.53000	237.00000
54.55200	277.00000
54.57400	298.00000
54.59600	292.00000
54.61800	265.00000
54.64000	258.00000
54.66200	281.00000
54.68400	278.00000
54.70600	259.00000
54.72800	297.00000
54.75000	300.00000
54.77200	250.00000
54.79400	264.00000
54.81600	254.00000
54.83800	272.00000
54.86000	289.00000
54.88200	278.00000
54.90400	292.00000
54.92600	278.00000
54.94800	288.00000
54.97000	275.00000
54.99200	265.00000
55.01400	260.00000
55.03600	287.00000
55.05800	257.00000
55.08000	275.00000
55.10200	291.00000
55.12400	270.00000
55.14600	313.00000
55.16800	316.00000
55.19000	255.00000
55.21200	285.00000
55.23400	308.00000
55.25600	291.00000
55.27800	288.00000
55.30000	303.00000
55.32200	307.00000
55.34400	298.00000
55.36600	358.00000
55.38800	419.00000
55.41000	448.00000
55.43200	515.00000
55.45400	546.00000
55.47600	549.00000
55.49800	570.00000
55.52000	578.00000
55.54200	573.00000
55.56400	498.00000
55.58600	449.00000
55.60800	422.00000
55.63000	392.00000
55.65200	436.00000
55.67400	398.00000
55.69600	378.00000
55.71800	363.00000
55.74000	318.00000
55.76200	284.00000
55.78400	320.00000
55.80600	288.00000
55.82800	283.00000
55.85000	315.00000
55.87200	289.00000
55.89400	274.00000
55.91600	278.00000
55.93800	278.00000
55.96000	277.00000
55.98200	301.00000
56.00400	282.00000
56.02600	265.00000
56.04800	294.00000
56.07000	270.00000
56.09200	284.00000
56.11400	308.00000
56.13600	270.00000
56.15800	283.00000
56.18000	322.00000
56.20200	290.00000
56.22400	309.00000
56.24600	290.00000
56.26800	292.00000
56.29000	306.00000
56.31200	328.00000
56.33400	387.00000
56.35600	445.00000
56.37800	528.00000
56.40000	630.00000
56.42200	649.00000
56.44400	677.00000
56.46600	787.00000
56.48800	814.00000
56.51000	884.00000
56.53200	811.00000
56.55400	737.00000
56.57600	590.00000
56.59800	548.00000
56.62000	515.00000
56.64200	519.00000
56.66400	525.00000
56.68600	480.00000
56.70800	408.00000
56.73000	349.00000
56.75200	324.00000
56.77400	318.00000
56.79600	302.00000
56.81800	321.00000
56.84000	319.00000
56.86200	299.00000
56.88400	281.00000
56.90600	284.00000
56.92800	284.00000
56.95000	277.00000
56.97200	305.00000
56.99400	269.00000
57.01600	272.00000
57.03800	248.00000
57.06000	265.00000
57.08200	279.00000
57.10400	291.00000
57.12600	274.00000
57.14800	281.00000
57.17000	315.00000
57.19200	277.00000
57.21400	294.00000
57.23600	263.00000
57.25800	236.00000
57.28000	250.00000
57.30200	245.00000
57.32400	274.00000
57.34600	267.00000
57.36800	282.00000
57.39000	284.00000
57.41200	227.00000
57.43400	257.00000
57.45600	274.00000
57.47800	273.00000
57.50000	291.00000
57.52200	274.00000
57.54400	260.00000
57.56600	260.00000
57.58800	285.00000
57.61000	279.00000
57.63200	281.00000
57.65400	297.00000
57.67600	282.00000
57.69800	280.00000
57.72000	254.00000
57.74200	298.00000
57.76400	305.00000
57.78600	301.00000
57.80800	284.00000
57.83000	294.00000
57.85200	289.00000
57.87400	269.00000
57.89600	296.00000
57.91800	309.00000
57.94000	320.00000
57.96200	389.00000
57.98400	407.00000
58.00600	439.00000
58.02800	483.00000
58.05000	456.00000
58.07200	540.00000
58.09400	548.00000
58.11600	533.00000
58.13800	504.00000
58.16000	491.00000
58.18200	411.00000
58.20400	449.00000
58.22600	427.00000
58.24800	449.00000
58.27000	377.00000
58.29200	353.00000
58.31400	354.00000
58.33600	360.00000
58.35800	309.00000
58.38000	296.00000
58.40200	295.00000
58.42400	269.00000
58.44600	262.00000
58.46800	279.00000
58.49000	321.00000
58.51200	271.00000
58.53400	267.00000
58.55600	263.00000
58.57800	265.00000
58.60000	272.00000
58.62200	249.00000
58.64400	248.00000
58.66600	303.00000
58.68800	271.00000
58.71000	305.00000
58.73200	265.00000
58.75400	284.00000
58.77600	274.00000
58.79800	295.00000
58.82000	284.00000
58.84200	264.00000
58.86400	280.00000
58.88600	293.00000
58.90800	302.00000
58.93000	301.00000
58.95200	311.00000
58.97400	297.00000
58.99600	296.00000
59.01800	295.00000
59.04000	275.00000
59.06200	338.00000
59.08400	376.00000
59.10600	391.00000
59.12800	394.00000
59.15000	452.00000
59.17200	480.00000
59.19400	463.00000
59.21600	474.00000
59.23800	497.00000
59.26000	462.00000
59.28200	448.00000
59.30400	407.00000
59.32600	377.00000
59.34800	406.00000
59.37000	377.00000
59.39200	368.00000
59.41400	408.00000
59.43600	334.00000
59.45800	324.00000
59.48000	302.00000
59.50200	333.00000
59.52400	311.00000
59.54600	267.00000
59.56800	280.00000
59.59000	298.00000
59.61200	279.00000
59.63400	297.00000
59.65600	285.00000
59.67800	298.00000
59.70000	281.00000
59.72200	296.00000
59.74400	276.00000
59.76600	291.00000
59.78800	296.00000
59.81000	281.00000
59.83200	282.00000
59.85400	282.00000
59.87600	300.00000
59.89800	252.00000
59.92000	296.00000
59.94200	255.00000
59.96400	303.00000
59.98600	315.00000
60.00800	289.00000
60.03000	285.00000
60.05200	297.00000
60.07400	291.00000
60.09600	279.00000
60.11800	282.00000
60.14000	304.00000
60.16200	286.00000
60.18400	300.00000
60.20600	291.00000
60.22800	352.00000
60.25000	356.00000
60.27200	452.00000
60.29400	469.00000
60.31600	500.00000
60.33800	530.00000
60.36000	579.00000
60.38200	614.00000
60.40400	660.00000
60.42600	575.00000
60.44800	558.00000
60.47000	501.00000
60.49200	450.00000
60.51400	423.00000
60.53600	428.00000
60.55800	401.00000
60.58000	410.00000
60.60200	398.00000
60.62400	335.00000
60.64600	311.00000
60.66800	305.00000
60.69000	295.00000
60.71200	290.00000
60.73400	261.00000
60.75600	279.00000
60.77800	320.00000
60.80000	307.00000
60.82200	284.00000
60.84400	283.00000
60.86600	292.00000
60.88800	277.00000
60.91000	258.00000
60.93200	272.00000
60.95400	297.00000
60.97600	272.00000
60.99800	275.00000
61.02000	259.00000
61.04200	231.00000
61.06400	270.00000
61.08600	314.00000
61.10800	276.00000
61.13000	276.00000
61.15200	282.00000
61.17400	299.00000
61.19600	292.00000
61.21800	269.00000
61.24000	314.00000
61.26200	320.00000
61.28400	305.00000
61.30600	335.00000
61.32800	312.00000
61.35000	323.00000
61.37200	338.00000
61.39400	327.00000
61.41600	302.00000
61.43800	303.00000
61.46000	314.00000
61.48200	293.00000
61.50400	303.00000
61.52600	326.00000
61.54800	315.00000
61.57000	352.00000
61.59200	410.00000
61.61400	481.00000
61.63600	522.00000
61.65800	525.00000
61.68000	636.00000
61.70200	693.00000
61.72400	733.00000
61.74600	762.00000
61.76800	694.00000
61.79000	658.00000
61.81200	629.00000
61.83400	680.00000
61.85600	618.00000
61.87800	584.00000
61.90000	504.00000
61.92200	467.00000
61.94400	461.00000
61.96600	424.00000
61.98800	399.00000
62.01000	396.00000
62.03200	365.00000
62.05400	343.00000
62.07600	293.00000
62.09800	319.00000
62.12000	259.00000
62.14200	297.00000
62.16400	294.00000
62.18600	304.00000
62.20800	303.00000
62.23000	301.00000
62.25200	304.00000
62.27400	289.00000
62.29600	290.00000
62.31800	314.00000
62.34000	314.00000
62.36200	281.00000
62.38400	289.00000
62.40600	289.00000
62.42800	289.00000
62.45000	288.00000
62.47200	281.00000
62.49400	266.00000
62.51600	272.00000
62.53800	273.00000
62.56000	277.00000
62.58200	278.00000
62.60400	248.00000
62.62600	279.00000
62.64800	289.00000
62.67000	284.00000
62.69200	260.00000
62.71400	288.00000
62.73600	282.00000
62.75800	245.00000
62.78000	282.00000
62.80200	256.00000
62.82400	266.00000
62.84600	297.00000
62.86800	309.00000
62.89000	321.00000
62.91200	280.00000
62.93400	295.00000
62.95600	365.00000
62.97800	338.00000
63.00000	335.00000
63.02200	284.00000
63.04400	334.00000
63.06600	329.00000
63.08800	320.00000
63.11000	339.00000
63.13200	327.00000
63.15400	360.00000
63.17600	373.00000
63.19800	356.00000
63.22000	385.00000
63.24200	356.00000
63.26400	353.00000
63.28600	358.00000
63.30800	349.00000
63.33000	337.00000
63.35200	360.00000
63.37400	374.00000
63.39600	365.00000
63.41800	346.00000
63.44000	365.00000
63.46200	354.00000
63.48400	348.00000
63.50600	312.00000
63.52800	332.00000
63.55000	313.00000
63.57200	316.00000
63.59400	287.00000
63.61600	309.00000
63.63800	311.00000
63.66000	286.00000
63.68200	261.00000
63.70400	282.00000
63.72600	265.00000
63.74800	258.00000
63.77000	277.00000
63.79200	296.00000
63.81400	247.00000
63.83600	292.00000
63.85800	287.00000
63.88000	271.00000
63.90200	298.00000
63.92400	309.00000
63.94600	264.00000
63.96800	234.00000
63.99000	287.00000
64.01200	255.00000
64.03400	281.00000
64.05600	254.00000
64.07800	237.00000
64.10000	258.00000
64.12200	277.00000
64.14400	244.00000
64.16600	236.00000
64.18800	214.00000
64.21000	259.00000
64.23200	240.00000
64.25400	266.00000
64.27600	234.00000
64.29800	235.00000
64.32000	254.00000
64.34200	277.00000
64.36400	244.00000
64.38600	227.00000
64.40800	252.00000
64.43000	248.00000
64.45200	262.00000
64.47400	269.00000
64.49600	260.00000
64.51800	237.00000
64.54000	265.00000
64.56200	267.00000
64.58400	267.00000
64.60600	275.00000
64.62800	267.00000
64.65000	244.00000
64.67200	251.00000
64.69400	271.00000
64.71600	250.00000
64.73800	275.00000
64.76000	286.00000
64.78200	254.00000
64.80400	276.00000
64.82600	271.00000
64.84800	234.00000
64.87000	244.00000
64.89200	293.00000
64.91400	277.00000
64.93600	281.00000
64.95800	323.00000
64.98000	292.00000
65.00200	341.00000
65.02400	327.00000
65.04600	335.00000
65.06800	353.00000
65.09000	355.00000
65.11200	374.00000
65.13400	375.00000
65.15600	370.00000
65.17800	379.00000
65.20000	373.00000
65.22200	374.00000
65.24400	312.00000
65.26600	321.00000
65.28800	314.00000
65.31000	311.00000
65.33200	290.00000
65.35400	321.00000
65.37600	299.00000
65.39800	274.00000
65.42000	294.00000
65.44200	285.00000
65.46400	282.00000
65.48600	276.00000
65.50800	266.00000
65.53000	276.00000
65.55200	247.00000
65.57400	271.00000
65.59600	266.00000
65.61800	238.00000
65.64000	239.00000
65.66200	261.00000
65.68400	260.00000
65.70600	243.00000
65.72800	257.00000
65.75000	272.00000
65.77200	281.00000
65.79400	295.00000
65.81600	306.00000
65.83800	322.00000
65.86000	314.00000
65.88200	341.00000
65.90400	353.00000
65.92600	347.00000
65.94800	329.00000
65.97000	296.00000
65.99200	292.00000
66.01400	277.00000
66.03600	272.00000
66.05800	281.00000
66.08000	286.00000
66.10200	299.00000
66.12400	305.00000
66.14600	266.00000
66.16800	267.00000
66.19000	261.00000
66.21200	280.00000
66.23400	293.00000
66.25600	293.00000
66.27800	298.00000
66.30000	281.00000
66.32200	294.00000
66.34400	303.00000
66.36600	296.00000
66.38800	300.00000
66.41000	264.00000
66.43200	243.00000
66.45400	288.00000
66.47600	255.00000
66.49800	311.00000
66.52000	293.00000
66.54200	281.00000
66.56400	285.00000
66.58600	341.00000
66.60800	333.00000
66.63000	340.00000
66.65200	350.00000
66.67400	340.00000
66.69600	374.00000
66.71800	399.00000
66.74000	368.00000
66.76200	366.00000
66.78400	358.00000
66.80600	389.00000
66.82800	360.00000
66.85000	413.00000
66.87200	430.00000
66.89400	447.00000
66.91600	413.00000
66.93800	346.00000
66.96000	321.00000
66.98200	333.00000
67.00400	299.00000
67.02600	307.00000
67.04800	319.00000
67.07000	332.00000
67.09200	306.00000
67.11400	310.00000
67.13600	254.00000
67.15800	320.00000
67.18000	317.00000
67.20200	302.00000
67.22400	322.00000
67.24600	355.00000
67.26800	338.00000
67.29000	354.00000
67.31200	339.00000
67.33400	407.00000
67.35600	359.00000
67.37800	327.00000
67.40000	310.00000
67.42200	295.00000
67.44400	345.00000
67.46600	319.00000
67.48800	309.00000
67.51000	307.00000
67.53200	291.00000
67.55400	257.00000
67.57600	282.00000
67.59800	285.00000
67.62000	240.00000
67.64200	281.00000
67.66400	265.00000
67.68600	272.00000
67.70800	264.00000
67.73000	250.00000
67.75200	255.00000
67.77400	244.00000
67.79600	259.00000
67.81800	229.00000
67.84000	232.00000
67.86200	248.00000
67.88400	246.00000
67.90600	222.00000
67.92800	256.00000
67.95000	244.00000
67.97200	258.00000
67.99400	266.00000
68.01600	259.00000
68.03800	268.00000
68.06000	232.00000
68.08200	250.00000
68.10400	268.00000
68.12600	231.00000
68.14800	232.00000
68.17000	257.00000
68.19200	217.00000
68.21400	222.00000
68.23600	277.00000
68.25800	252.00000
68.28000	234.00000
68.30200	266.00000
68.32400	277.00000
68.34600	267.00000
68.36800	250.00000
68.39000	261.00000
68.41200	251.00000
68.43400	258.00000
68.45600	238.00000
68.47800	249.00000
68.50000	255.00000
68.52200	233.00000
68.54400	237.00000
68.56600	234.00000
68.58800	210.00000
68.61000	241.00000
68.63200	254.00000
68.65400	234.00000
68.67600	248.00000
68.69800	227.00000
68.72000	242.00000
68.74200	227.00000
68.76400	204.00000
68.78600	234.00000
68.80800	237.00000
68.83000	226.00000
68.85200	229.00000
68.87400	243.00000
68.89600	206.00000
68.91800	251.00000
68.94000	250.00000
68.96200	219.00000
68.98400	245.00000
69.00600	226.00000
69.02800	254.00000
69.05000	246.00000
69.07200	242.00000
69.09400	238.00000
69.11600	237.00000
69.13800	262.00000
69.16000	272.00000
69.18200	286.00000
69.20400	300.00000
69.22600	306.00000
69.24800	291.00000
69.27000	338.00000
69.29200	315.00000
69.31400	307.00000
69.33600	285.00000
69.35800	287.00000
69.38000	259.00000
69.40200	300.00000
69.42400	312.00000
69.44600	323.00000
69.46800	297.00000
69.49000	313.00000
69.51200	321.00000
69.53400	310.00000
69.55600	268.00000
69.57800	328.00000
69.60000	342.00000
69.62200	313.00000
69.64400	320.00000
69.66600	323.00000
69.68800	287.00000
69.71000	287.00000
69.73200	325.00000
69.75400	308.00000
69.77600	278.00000
69.79800	311.00000
69.82000	308.00000
69.84200	294.00000
69.86400	314.00000
69.88600	326.00000
69.90800	323.00000
69.93000	298.00000
69.95200	306.00000
69.97400	307.00000
69.99600	293.00000
70.01800	294.00000
70.04000	311.00000
70.06200	284.00000
70.08400	262.00000
70.10600	337.00000
70.12800	299.00000
70.15000	348.00000
70.17200	315.00000
70.19400	333.00000
70.21600	295.00000
70.23800	273.00000
70.26000	275.00000
70.28200	286.00000
70.30400	299.00000
70.32600	333.00000
70.34800	310.00000
70.37000	326.00000
70.39200	327.00000
70.41400	347.00000
70.43600	335.00000
70.45800	318.00000
70.48000	317.00000
70.50200	305.00000
70.52400	302.00000
70.54600	267.00000
70.56800	285.00000
70.59000	262.00000
70.61200	292.00000
70.63400	270.00000
70.65600	278.00000
70.67800	293.00000
70.70000	287.00000
70.72200	234.00000
70.74400	245.00000
70.76600	228.00000
70.78800	219.00000
70.81000	226.00000
70.83200	225.00000
70.85400	247.00000
70.87600	199.00000
70.89800	221.00000
70.92000	255.00000
70.94200	204.00000
70.96400	247.00000
70.98600	246.00000
71.00800	213.00000
71.03000	233.00000
71.05200	234.00000
71.07400	245.00000
71.09600	218.00000
71.11800	231.00000
71.14000	229.00000
71.16200	232.00000
71.18400	248.00000
71.20600	240.00000
71.22800	269.00000
71.25000	240.00000
71.27200	252.00000
71.29400	237.00000
71.31600	264.00000
71.33800	246.00000
71.36000	262.00000
71.38200	239.00000
71.40400	263.00000
71.42600	223.00000
71.44800	233.00000
71.47000	271.00000
71.49200	241.00000
71.51400	251.00000
71.53600	315.00000
71.55800	288.00000
71.58000	281.00000
71.60200	289.00000
71.62400	330.00000
71.64600	340.00000
71.66800	353.00000
71.69000	350.00000
71.71200	315.00000
71.73400	301.00000
71.75600	256.00000
71.77800	280.00000
71.80000	274.00000
71.82200	329.00000
71.84400	271.00000
71.86600	290.00000
71.88800	268.00000
71.91000	273.00000
71.93200	281.00000
71.95400	265.00000
71.97600	251.00000
71.99800	254.00000
72.02000	253.00000
72.04200	227.00000
72.06400	256.00000
72.08600	244.00000
72.10800	252.00000
72.13000	254.00000
72.15200	227.00000
72.17400	222.00000
72.19600	237.00000
72.21800	252.00000
72.24000	226.00000
72.26200	262.00000
72.28400	222.00000
72.30600	224.00000
72.32800	222.00000
72.35000	237.00000
72.37200	231.00000
72.39400	256.00000
72.41600	225.00000
72.43800	229.00000
72.46000	214.00000
72.48200	231.00000
72.50400	212.00000
72.52600	243.00000
72.54800	207.00000
72.57000	246.00000
72.59200	239.00000
72.61400	243.00000
72.63600	239.00000
72.65800	225.00000
72.68000	220.00000
72.70200	228.00000
72.72400	229.00000
72.74600	222.00000
72.76800	248.00000
72.79000	221.00000
72.81200	262.00000
72.83400	215.00000
72.85600	232.00000
72.87800	255.00000
72.90000	222.00000
72.92200	239.00000
72.94400	252.00000
72.96600	252.00000
72.98800	224.00000
73.01000	248.00000
73.03200	220.00000
73.05400	245.00000
73.07600	252.00000
73.09800	293.00000
73.12000	313.00000
73.14200	297.00000
73.16400	325.00000
73.18600	342.00000
73.20800	421.00000
73.23000	373.00000
73.25200	422.00000
73.27400	400.00000
73.29600	325.00000
73.31800	308.00000
73.34000	335.00000
73.36200	282.00000
73.38400	292.00000
73.40600	319.00000
73.42800	273.00000
73.45000	348.00000
73.47200	322.00000
73.49400	295.00000
73.51600	239.00000
73.53800	293.00000
73.56000	263.00000
73.58200	235.00000
73.60400	220.00000
73.62600	253.00000
73.64800	227.00000
73.67000	249.00000
73.69200	215.00000
73.71400	239.00000
73.73600	249.00000
73.75800	229.00000
73.78000	253.00000
73.80200	235.00000
73.82400	215.00000
73.84600	222.00000
73.86800	252.00000
73.89000	243.00000
73.91200	237.00000
73.93400	219.00000
73.95600	214.00000
73.97800	241.00000
74.00000	228.00000
74.02200	242.00000
74.04400	243.00000
74.06600	223.00000
74.08800	223.00000
74.11000	244.00000
74.13200	238.00000
74.15400	274.00000
74.17600	304.00000
74.19800	266.00000
74.22000	284.00000
74.24200	273.00000
74.26400	302.00000
74.28600	339.00000
74.30800	331.00000
74.33000	277.00000
74.35200	254.00000
74.37400	264.00000
74.39600	254.00000
74.41800	271.00000
74.44000	255.00000
74.46200	275.00000
74.48400	276.00000
74.50600	306.00000
74.52800	281.00000
74.55000	278.00000
74.57200	284.00000
74.59400	274.00000
74.61600	262.00000
74.63800	340.00000
74.66000	276.00000
74.68200	298.00000
74.70400	280.00000
74.72600	268.00000
74.74800	248.00000
74.77000	272.00000
74.79200	223.00000
74.81400	241.00000
74.83600	251.00000
74.85800	266.00000
74.88000	278.00000
74.90200	250.00000
74.92400	253.00000
74.94600	251.00000
74.96800	278.00000
74.99000	230.00000
75.01200	245.00000
75.03400	224.00000
75.05600	252.00000
75.07800	272.00000
75.10000	283.00000
75.12200	262.00000
75.14400	279.00000
75.16600	249.00000
75.18800	294.00000
75.21000	302.00000
75.23200	317.00000
75.25400	330.00000
75.27600	368.00000
75.29800	374.00000
75.32000	366.00000
75.34200	342.00000
75.36400	334.00000
75.38600	324.00000
75.40800	347.00000
75.43000	322.00000
75.45200	327.00000
75.47400	401.00000
75.49600	400.00000
75.51800	316.00000
75.54000	285.00000
75.56200	312.00000
75.58400	289.00000
75.60600	263.00000
75.62800	264.00000
75.65000	272.00000
75.67200	293.00000
75.69400	296.00000
75.71600	259.00000
75.73800	253.00000
75.76000	285.00000
75.78200	227.00000
75.80400	245.00000
75.82600	230.00000
75.84800	265.00000
75.87000	225.00000
75.89200	233.00000
75.91400	243.00000
75.93600	282.00000
75.95800	244.00000
75.98000	238.00000
76.00200	252.00000
76.02400	234.00000
76.04600	227.00000
76.06800	246.00000
76.09000	243.00000
76.11200	223.00000
76.13400	260.00000
76.15600	245.00000
76.17800	240.00000
76.20000	213.00000
76.22200	237.00000
76.24400	249.00000
76.26600	226.00000
76.28800	262.00000
76.31000	253.00000
76.33200	227.00000
76.35400	242.00000
76.37600	239.00000
76.39800	237.00000
76.42000	278.00000
76.44200	265.00000
76.46400	261.00000
76.48600	231.00000
76.50800	261.00000
76.53000	280.00000
76.55200	265.00000
76.57400	322.00000
76.59600	293.00000
76.61800	290.00000
76.64000	320.00000
76.66200	314.00000
76.68400	330.00000
76.70600	350.00000
76.72800	314.00000
76.75000	288.00000
76.77200	263.00000
76.79400	235.00000
76.81600	228.00000
76.83800	247.00000
76.86000	251.00000
76.88200	274.00000
76.90400	279.00000
76.92600	263.00000
76.94800	243.00000
76.97000	266.00000
76.99200	253.00000
77.01400	231.00000
77.03600	226.00000
77.05800	213.00000
77.08000	226.00000
77.10200	250.00000
77.12400	238.00000
77.14600	245.00000
77.16800	225.00000
77.19000	204.00000
77.21200	209.00000
77.23400	237.00000
77.25600	230.00000
77.27800	229.00000
77.30000	241.00000
77.32200	238.00000
77.34400	248.00000
77.36600	216.00000
77.38800	231.00000
77.41000	231.00000
77.43200	236.00000
77.45400	295.00000
77.47600	247.00000
77.49800	245.00000
77.52000	262.00000
77.54200	241.00000
77.56400	254.00000
77.58600	249.00000
77.60800	232.00000
77.63000	208.00000
77.65200	245.00000
77.67400	234.00000
77.69600	234.00000
77.71800	243.00000
77.74000	228.00000
77.76200	215.00000
77.78400	262.00000
77.80600	233.00000
77.82800	212.00000
77.85000	224.00000
77.87200	243.00000
77.89400	243.00000
77.91600	262.00000
77.93800	256.00000
77.96000	249.00000
77.98200	267.00000
78.00400	295.00000
78.02600	304.00000
78.04800	294.00000
78.07000	261.00000
78.09200	242.00000
78.11400	239.00000
78.13600	239.00000
78.15800	223.00000
78.18000	259.00000
78.20200	243.00000
78.22400	258.00000
78.24600	249.00000
78.26800	245.00000
78.29000	246.00000
78.31200	230.00000
78.33400	226.00000
78.35600	219.00000
78.37800	223.00000
78.40000	213.00000
78.42200	236.00000
78.44400	233.00000
78.46600	229.00000
78.48800	215.00000
78.51000	241.00000
78.53200	210.00000
78.55400	214.00000
78.57600	221.00000
78.59800	236.00000
78.62000	230.00000
78.64200	221.00000
78.66400	203.00000
78.68600	258.00000
78.70800	211.00000
78.73000	245.00000
78.75200	246.00000
78.77400	222.00000
78.79600	252.00000
78.81800	234.00000
78.84000	266.00000
78.86200	247.00000
78.88400	275.00000
78.90600	270.00000
78.92800	301.00000
78.95000	316.00000
78.97200	322.00000
78.99400	310.00000
79.01600	276.00000
79.03800	253.00000
79.06000	254.00000
79.08200	266.00000
79.10400	293.00000
79.12600	285.00000
79.14800	243.00000
79.17000	304.00000
79.19200	288.00000
79.21400	293.00000
79.23600	270.00000
79.25800	249.00000
79.28000	262.00000
79.30200	254.00000
79.32400	262.00000
79.34600	243.00000
79.36800	250.00000
79.39000	243.00000
79.41200	235.00000
79.43400	256.00000
79.45600	227.00000
79.47800	233.00000
79.50000	224.00000
79.52200	220.00000
79.54400	218.00000
79.56600	234.00000
79.58800	252.00000
79.61000	237.00000
79.63200	258.00000
79.65400	227.00000
79.67600	233.00000
79.69800	244.00000
79.72000	209.00000
79.74200	226.00000
79.76400	217.00000
79.78600	201.00000
79.80800	212.00000
79.83000	222.00000
79.85200	195.00000
79.87400	223.00000
79.89600	214.00000
79.91800	202.00000
79.94000	223.00000
79.96200	231.00000
79.98400	210.00000
80.00600	227.00000
80.02800	223.00000
80.05000	228.00000
80.07200	205.00000
80.09400	213.00000
80.11600	192.00000
80.13800	189.00000
80.16000	213.00000
80.18200	201.00000
80.20400	205.00000
80.22600	205.00000
80.24800	228.00000
80.27000	224.00000
80.29200	235.00000
80.31400	230.00000
80.33600	234.00000
80.35800	220.00000
80.38000	219.00000
80.40200	193.00000
80.42400	221.00000
80.44600	236.00000
80.46800	218.00000
80.49000	233.00000
80.51200	244.00000
80.53400	224.00000
80.55600	241.00000
80.57800	225.00000
80.60000	210.00000
80.62200	232.00000
80.64400	248.00000
80.66600	236.00000
80.68800	236.00000
80.71000	220.00000
80.73200	234.00000
80.75400	232.00000
80.77600	227.00000
80.79800	212.00000
80.82000	243.00000
80.84200	227.00000
80.86400	257.00000
80.88600	241.00000
80.90800	265.00000
80.93000	277.00000
80.95200	297.00000
80.97400	292.00000
80.99600	275.00000
81.01800	329.00000
81.04000	305.00000
81.06200	287.00000
81.08400	306.00000
81.10600	316.00000
81.12800	301.00000
81.15000	273.00000
81.17200	267.00000
81.19400	252.00000
81.21600	293.00000
81.23800	298.00000
81.26000	266.00000
81.28200	241.00000
81.30400	252.00000
81.32600	256.00000
81.34800	251.00000
81.37000	234.00000
81.39200	259.00000
81.41400	266.00000
81.43600	260.00000
81.45800	223.00000
81.48000	241.00000
81.50200	230.00000
81.52400	229.00000
81.54600	217.00000
81.56800	248.00000
81.59000	241.00000
81.61200	253.00000
81.63400	264.00000
81.65600	247.00000
81.67800	244.00000
81.70000	272.00000
81.72200	248.00000
81.74400	269.00000
81.76600	264.00000
81.78800	276.00000
81.81000	248.00000
81.83200	232.00000
81.85400	265.00000
81.87600	242.00000
81.89800	288.00000
81.92000	264.00000
81.94200	248.00000
81.96400	239.00000
81.98600	233.00000
82.00800	229.00000
82.03000	217.00000
82.05200	202.00000
82.07400	254.00000
82.09600	223.00000
82.11800	215.00000
82.14000	230.00000
82.16200	225.00000
82.18400	186.00000
82.20600	202.00000
82.22800	232.00000
82.25000	224.00000
82.27200	201.00000
82.29400	206.00000
82.31600	181.00000
82.33800	212.00000
82.36000	233.00000
82.38200	241.00000
82.40400	194.00000
82.42600	209.00000
82.44800	190.00000
82.47000	208.00000
82.49200	202.00000
82.51400	247.00000
82.53600	213.00000
82.55800	199.00000
82.58000	237.00000
82.60200	203.00000
82.62400	224.00000
82.64600	205.00000
82.66800	240.00000
82.69000	235.00000
82.71200	244.00000
82.73400	218.00000
82.75600	224.00000
82.77800	234.00000
82.80000	219.00000
82.82200	216.00000
82.84400	235.00000
82.86600	218.00000
82.88800	233.00000
82.91000	238.00000
82.93200	237.00000
82.95400	259.00000
82.97600	243.00000
82.99800	240.00000
83.02000	209.00000
83.04200	242.00000
83.06400	222.00000
83.08600	230.00000
83.10800	255.00000
83.13000	237.00000
83.15200	231.00000
83.17400	258.00000
83.19600	272.00000
83.21800	286.00000
83.24000	280.00000
83.26200	259.00000
83.28400	308.00000
83.30600	303.00000
83.32800	341.00000
83.35000	331.00000
83.37200	291.00000
83.39400	297.00000
83.41600	287.00000
83.43800	267.00000
83.46000	229.00000
83.48200	258.00000
83.50400	260.00000
83.52600	238.00000
83.54800	258.00000
83.57000	228.00000
83.59200	234.00000
83.61400	253.00000
83.63600	275.00000
83.65800	292.00000
83.68000	286.00000
83.70200	251.00000
83.72400	234.00000
83.74600	238.00000
83.76800	225.00000
83.79000	262.00000
83.81200	262.00000
83.83400	263.00000
83.85600	277.00000
83.87800	284.00000
83.90000	323.00000
83.92200	293.00000
83.94400	333.00000
83.96600	383.00000
83.98800	336.00000
84.01000	279.00000
84.03200	255.00000
84.05400	272.00000
84.07600	242.00000
84.09800	233.00000
84.12000	255.00000
84.14200	242.00000
84.16400	243.00000
84.18600	261.00000
84.20800	269.00000
84.23000	286.00000
84.25200	258.00000
84.27400	224.00000
84.29600	227.00000
84.31800	257.00000
84.34000	219.00000
84.36200	214.00000
84.38400	234.00000
84.40600	227.00000
84.42800	198.00000
84.45000	249.00000
84.47200	235.00000
84.49400	235.00000
84.51600	249.00000
84.53800	200.00000
84.56000	245.00000
84.58200	198.00000
84.60400	224.00000
84.62600	220.00000
84.64800	210.00000
84.67000	207.00000
84.69200	234.00000
84.71400	235.00000
84.73600	228.00000
84.75800	235.00000
84.78000	239.00000
84.80200	220.00000
84.82400	248.00000
84.84600	235.00000
84.86800	239.00000
84.89000	207.00000
84.91200	218.00000
84.93400	217.00000
84.95600	222.00000
84.97800	233.00000
85.00000	212.00000
85.02200	237.00000
85.04400	193.00000
85.06600	207.00000
85.08800	223.00000
85.11000	259.00000
85.13200	253.00000
85.15400	249.00000
85.17600	245.00000
85.19800	241.00000
85.22000	269.00000
85.24200	279.00000
85.26400	276.00000
85.28600	241.00000
85.30800	237.00000
85.33000	246.00000
85.35200	226.00000
85.37400	244.00000
85.39600	230.00000
85.41800	250.00000
85.44000	253.00000
85.46200	215.00000
85.48400	258.00000
85.50600	261.00000
85.52800	230.00000
85.55000	236.00000
85.57200	239.00000
85.59400	238.00000
85.61600	229.00000
85.63800	232.00000
85.66000	200.00000
85.68200	208.00000
85.70400	223.00000
85.72600	241.00000
85.74800	225.00000
85.77000	228.00000
85.79200	265.00000
85.81400	230.00000
85.83600	266.00000
85.85800	244.00000
85.88000	272.00000
85.90200	266.00000
85.92400	255.00000
85.94600	275.00000
85.96800	260.00000
85.99000	224.00000
86.01200	258.00000
86.03400	229.00000
86.05600	203.00000
86.07800	237.00000
86.10000	233.00000
86.12200	220.00000
86.14400	237.00000
86.16600	244.00000
86.18800	258.00000
86.21000	214.00000
86.23200	229.00000
86.25400	202.00000
86.27600	212.00000
86.29800	227.00000
86.32000	228.00000
86.34200	224.00000
86.36400	222.00000
86.38600	211.00000
86.40800	211.00000
86.43000	223.00000
86.45200	186.00000
86.47400	237.00000
86.49600	206.00000
86.51800	235.00000
86.54000	239.00000
86.56200	218.00000
86.58400	223.00000
86.60600	229.00000
86.62800	225.00000
86.65000	249.00000
86.67200	227.00000
86.69400	239.00000
86.71600	226.00000
86.73800	204.00000
86.76000	222.00000
86.78200	238.00000
86.80400	220.00000
86.82600	230.00000
86.84800	215.00000
86.87000	221.00000
86.89200	261.00000
86.91400	249.00000
86.93600	252.00000
86.95800	230.00000
86.98000	256.00000
87.00200	212.00000
87.02400	254.00000
87.04600	255.00000
87.06800	245.00000
87.09000	230.00000
87.11200	216.00000
87.13400	217.00000
87.15600	256.00000
87.17800	237.00000
87.20000	230.00000
87.22200	206.00000
87.24400	240.00000
87.26600	190.00000
87.28800	232.00000
87.31000	245.00000
87.33200	234.00000
87.35400	241.00000
87.37600	223.00000
87.39800	229.00000
87.42000	227.00000
87.44200	212.00000
87.46400	219.00000
87.48600	232.00000
87.50800	191.00000
87.53000	224.00000
87.55200	218.00000
87.57400	241.00000
87.59600	259.00000
87.61800	194.00000
87.64000	232.00000
87.66200	238.00000
87.68400	246.00000
87.70600	231.00000
87.72800	222.00000
87.75000	257.00000
87.77200	275.00000
87.79400	282.00000
87.81600	246.00000
87.83800	223.00000
87.86000	222.00000
87.88200	222.00000
87.90400	223.00000
87.92600	239.00000
87.94800	224.00000
87.97000	237.00000
87.99200	244.00000
88.01400	243.00000
88.03600	253.00000
88.05800	231.00000
88.08000	235.00000
88.10200	258.00000
88.12400	247.00000
88.14600	209.00000
88.16800	236.00000
88.19000	191.00000
88.21200	206.00000
88.23400	204.00000
88.25600	224.00000
88.27800	231.00000
88.30000	216.00000
88.32200	238.00000
88.34400	234.00000
88.36600	200.00000
88.38800	216.00000
88.41000	237.00000
88.43200	213.00000
88.45400	237.00000
88.47600	246.00000
88.49800	237.00000
88.52000	209.00000
88.54200	211.00000
88.56400	226.00000
88.58600	208.00000
88.60800	194.00000
88.63000	216.00000
88.65200	200.00000
88.67400	232.00000
88.69600	234.00000
88.71800	245.00000
88.74000	243.00000
88.76200	262.00000
88.78400	220.00000
88.80600	260.00000
88.82800	229.00000
88.85000	238.00000
88.87200	220.00000
88.89400	227.00000
88.91600	235.00000
88.93800	222.00000
88.96000	232.00000
88.98200	252.00000
89.00400	243.00000
89.02600	252.00000
89.04800	263.00000
89.07000	276.00000
89.09200	260.00000
89.11400	268.00000
89.13600	236.00000
89.15800	222.00000
89.18000	257.00000
89.20200	255.00000
89.22400	237.00000
89.24600	268.00000
89.26800	228.00000
89.29000	264.00000
89.31200	267.00000
89.33400	288.00000
89.35600	244.00000
89.37800	278.00000
89.40000	273.00000
89.42200	297.00000
89.44400	300.00000
89.46600	298.00000
89.48800	264.00000
89.51000	275.00000
89.53200	242.00000
89.55400	228.00000
89.57600	235.00000
89.59800	233.00000
89.62000	266.00000
89.64200	268.00000
89.66400	246.00000
89.68600	230.00000
89.70800	251.00000
89.73000	253.00000
89.75200	266.00000
89.77400	237.00000
89.79600	226.00000
89.81800	250.00000
89.84000	243.00000
89.86200	259.00000
89.88400	252.00000
89.90600	260.00000
89.92800	249.00000
89.95000	266.00000
89.97200	301.00000
89.99400	285.00000
