3.74460	4851.00000
3.75960	4900.00000
3.77460	4922.00000
3.78960	4744.00000
3.80460	4876.00000
3.81960	4777.00000
3.83460	4940.00000
3.84960	4878.00000
3.86460	4811.00000
3.87960	4724.00000
3.89460	4825.00000
3.90960	4729.00000
3.92460	4721.00000
3.93960	4847.00000
3.95460	4851.00000
3.96960	4752.00000
3.98460	4691.00000
3.99960	4732.00000
4.01460	4744.00000
4.02960	4730.00000
4.04460	4637.00000
4.05960	4579.00000
4.07460	4732.00000
4.08960	4899.00000
4.10460	4788.00000
4.11960	4823.00000
4.13460	4840.00000
4.14960	4881.00000
4.16460	4906.00000
4.17960	4847.00000
4.19460	4942.00000
4.20960	4973.00000
4.22460	4863.00000
4.23960	4847.00000
4.25460	4898.00000
4.26960	5121.00000
4.28460	5626.00000
4.29960	6086.00000
4.31460	7078.00000
4.32960	8681.00000
4.34460	10828.00000
4.35960	13657.00000
4.37460	18231.00000
4.38960	24673.00000
4.40460	33809.00000
4.41960	35050.00000
4.43460	22519.00000
4.44960	10581.00000
4.46460	6611.00000
4.47960	5889.00000
4.49460	5424.00000
4.50960	5167.00000
4.52460	5140.00000
4.53960	5062.00000
4.55460	5048.00000
4.56960	4993.00000
4.58460	4793.00000
4.59960	4779.00000
4.61460	4741.00000
4.62960	4742.00000
4.64460	4832.00000
4.65960	4858.00000
4.67460	4894.00000
4.68960	4746.00000
4.70460	4616.00000
4.71960	4759.00000
4.73460	4685.00000
4.74960	4714.00000
4.76460	4702.00000
4.77960	4824.00000
4.79460	4943.00000
4.80960	4765.00000
4.82460	4769.00000
4.83960	4869.00000
4.85460	4840.00000
4.86960	4833.00000
4.88460	4839.00000
4.89960	4742.00000
4.91460	4710.00000
4.92960	4751.00000
4.94460	4693.00000
4.95960	4721.00000
4.97460	4854.00000
4.98960	4707.00000
5.00460	4838.00000
5.01960	5036.00000
5.03460	5120.00000
5.04960	5073.00000
5.06460	4978.00000
5.07960	4895.00000
5.09460	4821.00000
5.10960	4962.00000
5.12460	4844.00000
5.13960	4982.00000
5.15460	4992.00000
5.16960	5136.00000
5.18460	5238.00000
5.19960	5330.00000
5.21460	5082.00000
5.22960	4923.00000
5.24460	5078.00000
5.25960	5197.00000
5.27460	5190.00000
5.28960	5275.00000
5.30460	5624.00000
5.31960	5731.00000
5.33460	6010.00000
5.34960	6594.00000
5.36460	7129.00000
5.37960	7864.00000
5.39460	9324.00000
5.40960	11720.00000
5.42460	15245.00000
5.43960	21306.00000
5.45460	31241.00000
5.46960	47854.00000
5.48460	73898.00000
5.49960	93604.00000
5.51460	74373.00000
5.52960	33622.00000
5.54460	12288.00000
5.55960	7915.00000
5.57460	6584.00000
5.58960	6010.00000
5.60460	5593.00000
5.61960	5439.00000
5.63460	5271.00000
5.64960	5194.00000
5.66460	5049.00000
5.67960	5149.00000
5.69460	5173.00000
5.70960	5108.00000
5.72460	4923.00000
5.73960	4905.00000
5.75460	4850.00000
5.76960	4850.00000
5.78460	4916.00000
5.79960	4893.00000
5.81460	4823.00000
5.82960	4864.00000
5.84460	4758.00000
5.85960	4893.00000
5.87460	4808.00000
5.88960	4866.00000
5.90460	4868.00000
5.91960	4982.00000
5.93460	4930.00000
5.94960	4862.00000
5.96460	4994.00000
5.97960	5084.00000
5.99460	5006.00000
6.00960	5169.00000
6.02460	5289.00000
6.03960	5307.00000
6.05460	5349.00000
6.06960	5204.00000
6.08460	5112.00000
6.09960	5107.00000
6.11460	5026.00000
6.12960	5125.00000
6.14460	5145.00000
6.15960	5062.00000
6.17460	5092.00000
6.18960	5061.00000
6.20460	5088.00000
6.21960	4922.00000
6.23460	4787.00000
6.24960	5025.00000
6.26460	4967.00000
6.27960	4898.00000
6.29460	5007.00000
6.30960	4961.00000
6.32460	4882.00000
6.33960	4883.00000
6.35460	5042.00000
6.36960	5049.00000
6.38460	5065.00000
6.39960	5190.00000
6.41460	5195.00000
6.42960	5305.00000
6.44460	5473.00000
6.45960	5276.00000
6.47460	5202.00000
6.48960	5395.00000
6.50460	5817.00000
6.51960	6775.00000
6.53460	8367.00000
6.54960	10948.00000
6.56460	15075.00000
6.57960	21352.00000
6.59460	23350.00000
6.60960	17050.00000
6.62460	9691.00000
6.63960	6451.00000
6.65460	5849.00000
6.66960	5654.00000
6.68460	5417.00000
6.69960	5359.00000
6.71460	5325.00000
6.72960	5382.00000
6.74460	5477.00000
6.75960	5579.00000
6.77460	5772.00000
6.78960	5955.00000
6.80460	6275.00000
6.81960	7246.00000
6.83460	9253.00000
6.84960	14118.00000
6.86460	23185.00000
6.87960	40474.00000
6.89460	70275.00000
6.90960	104426.00000
6.92460	100151.00000
6.93960	54479.00000
6.95460	20424.00000
6.96960	10677.00000
6.98460	8082.00000
6.99960	6962.00000
7.01460	6380.00000
7.02960	5976.00000
7.04460	5839.00000
7.05960	5657.00000
7.07460	5577.00000
7.08960	5417.00000
7.10460	5356.00000
7.11960	5316.00000
7.13460	5311.00000
7.14960	5265.00000
7.16460	5261.00000
7.17960	5211.00000
7.19460	5162.00000
7.20960	5140.00000
7.22460	5149.00000
7.23960	5253.00000
7.25460	5167.00000
7.26960	5240.00000
7.28460	5407.00000
7.29960	5350.00000
7.31460	5440.00000
7.32960	5405.00000
7.34460	6005.00000
7.35960	6607.00000
7.37460	8009.00000
7.38960	11774.00000
7.40460	18354.00000
7.41960	30478.00000
7.43460	47677.00000
7.44960	52687.00000
7.46460	34855.00000
7.47960	15384.00000
7.49460	8337.00000
7.50960	6718.00000
7.52460	5865.00000
7.53960	5620.00000
7.55460	5317.00000
7.56960	5297.00000
7.58460	5168.00000
7.59960	5281.00000
7.61460	5155.00000
7.62960	5111.00000
7.64460	5201.00000
7.65960	5145.00000
7.67460	5161.00000
7.68960	5111.00000
7.70460	4882.00000
7.71960	5114.00000
7.73460	5097.00000
7.74960	5045.00000
7.76460	5189.00000
7.77960	5306.00000
7.79460	5310.00000
7.80960	5297.00000
7.82460	5246.00000
7.83960	5231.00000
7.85460	5225.00000
7.86960	5226.00000
7.88460	5102.00000
7.89960	4982.00000
7.91460	5115.00000
7.92960	5084.00000
7.94460	5113.00000
7.95960	5047.00000
7.97460	5195.00000
7.98960	5424.00000
8.00460	5388.00000
8.01960	5226.00000
8.03460	5259.00000
8.04960	5259.00000
8.06460	5677.00000
8.07960	6005.00000
8.09460	6938.00000
8.10960	8731.00000
8.12460	11462.00000
8.13960	13132.00000
8.15460	11098.00000
8.16960	7835.00000
8.18460	6163.00000
8.19960	5609.00000
8.21460	5470.00000
8.22960	5418.00000
8.24460	5498.00000
8.25960	5471.00000
8.27460	5462.00000
8.28960	5437.00000
8.30460	5321.00000
8.31960	5373.00000
8.33460	5348.00000
8.34960	5314.00000
8.36460	5319.00000
8.37960	5306.00000
8.39460	5334.00000
8.40960	5399.00000
8.42460	5199.00000
8.43960	5322.00000
8.45460	5330.00000
8.46960	5320.00000
8.48460	5371.00000
8.49960	5398.00000
8.51460	5334.00000
8.52960	5333.00000
8.54460	5402.00000
8.55960	5415.00000
8.57460	5291.00000
8.58960	5406.00000
8.60460	5423.00000
8.61960	5351.00000
8.63460	5443.00000
8.64960	5293.00000
8.66460	5328.00000
8.67960	5435.00000
8.69460	5435.00000
8.70960	5381.00000
8.72460	5508.00000
8.73960	5373.00000
8.75460	5530.00000
8.76960	5652.00000
8.78460	5774.00000
8.79960	6473.00000
8.81460	7490.00000
8.82960	9213.00000
8.84460	10267.00000
8.85960	9162.00000
8.87460	7265.00000
8.88960	6123.00000
8.90460	6016.00000
8.91960	6187.00000
8.93460	6641.00000
8.94960	7054.00000
8.96460	7116.00000
8.97960	6636.00000
8.99460	5964.00000
9.00960	5773.00000
9.02460	5716.00000
9.03960	5596.00000
9.05460	5832.00000
9.06960	5638.00000
9.08460	5617.00000
9.09960	5778.00000
9.11460	5844.00000
9.12960	5789.00000
9.14460	5908.00000
9.15960	5811.00000
9.17460	5835.00000
9.18960	5803.00000
9.20460	5824.00000
9.21960	5800.00000
9.23460	5807.00000
9.24960	5972.00000
9.26460	5944.00000
9.27960	6070.00000
9.29460	6013.00000
9.30960	6077.00000
9.32460	6052.00000
9.33960	5992.00000
9.35460	6002.00000
9.36960	6127.00000
9.38460	6091.00000
9.39960	6143.00000
9.41460	6302.00000
9.42960	6132.00000
9.44460	6176.00000
9.45960	6283.00000
9.47460	6462.00000
9.48960	6499.00000
9.50460	7021.00000
9.51960	7822.00000
9.53460	9714.00000
9.54960	12613.00000
9.56460	13822.00000
9.57960	12073.00000
9.59460	9028.00000
9.60960	7538.00000
9.62460	7128.00000
9.63960	6991.00000
9.65460	6932.00000
9.66960	6906.00000
9.68460	6960.00000
9.69960	7149.00000
9.71460	7021.00000
9.72960	7048.00000
9.74460	7238.00000
9.75960	7273.00000
9.77460	7273.00000
10.25460	7504.00000
10.26960	7572.00000
10.28460	7474.00000
10.29960	7590.00000
10.31460	7359.00000
10.32960	7516.00000
10.34460	7546.00000
10.35960	7364.00000
10.37460	7447.00000
10.38960	7406.00000
10.40460	7279.00000
10.41960	7380.00000
10.43460	7687.00000
10.44960	7514.00000
10.46460	7485.00000
10.47960	7578.00000
10.49460	7644.00000
10.50960	7573.00000
10.52460	7599.00000
10.53960	7575.00000
10.55460	7644.00000
10.56960	7490.00000
10.58460	7722.00000
10.59960	7693.00000
10.61460	7818.00000
10.62960	8142.00000
10.64460	8941.00000
10.65960	10291.00000
10.67460	12922.00000
10.68960	14998.00000
10.70460	14493.00000
10.71960	12446.00000
10.73460	11998.00000
10.74960	12192.00000
10.76460	10860.00000
10.77960	9303.00000
10.79460	8475.00000
10.80960	8190.00000
10.82460	7970.00000
10.83960	8156.00000
10.85460	7977.00000
10.86960	7878.00000
10.88460	7913.00000
10.89960	7954.00000
10.91460	8023.00000
10.92960	7995.00000
10.94460	8054.00000
10.95960	8119.00000
10.97460	8216.00000
10.98960	8417.00000
11.00460	9012.00000
11.01960	9568.00000
11.03460	9893.00000
11.04960	9106.00000
11.06460	8122.00000
11.07960	8176.00000
11.09460	8198.00000
11.10960	8069.00000
11.12460	8212.00000
11.13960	8378.00000
11.15460	8290.00000
11.16960	8330.00000
11.18460	8268.00000
11.19960	8414.00000
11.21460	8437.00000
11.22960	8425.00000
11.24460	8508.00000
11.25960	8374.00000
11.27460	8247.00000
11.28960	8255.00000
11.30460	8240.00000
11.31960	8292.00000
11.33460	8258.00000
11.34960	8285.00000
11.36460	8343.00000
11.37960	8427.00000
11.39460	8530.00000
11.40960	8343.00000
11.42460	8238.00000
11.43960	8445.00000
11.45460	8256.00000
11.46960	8264.00000
11.48460	8419.00000
11.49960	8207.00000
11.51460	8349.00000
11.52960	8391.00000
11.54460	8344.00000
11.55960	8356.00000
11.57460	8340.00000
11.58960	8460.00000
11.60460	8442.00000
11.61960	8265.00000
11.63460	8445.00000
11.64960	8454.00000
11.66460	8287.00000
11.67960	8413.00000
11.69460	8764.00000
11.70960	8512.00000
11.72460	8347.00000
11.73960	8446.00000
11.75460	8432.00000
11.76960	8481.00000
11.78460	8594.00000
11.79960	8499.00000
11.81460	8554.00000
11.82960	8959.00000
11.84460	8816.00000
11.85960	8745.00000
11.87460	8959.00000
11.88960	9265.00000
11.90460	9322.00000
11.91960	9693.00000
11.93460	10423.00000
11.94960	12804.00000
11.96460	19709.00000
11.97960	34299.00000
11.99460	50462.00000
12.00960	48877.00000
12.02460	31471.00000
12.03960	17641.00000
12.05460	12834.00000
12.06960	11052.00000
12.08460	10280.00000
12.09960	9872.00000
12.11460	9850.00000
12.12960	9589.00000
12.14460	9645.00000
12.15960	9392.00000
12.17460	9367.00000
12.18960	9324.00000
12.20460	9306.00000
12.21960	9429.00000
12.23460	9594.00000
12.24960	10263.00000
12.26460	12785.00000
12.27960	19024.00000
12.29460	32540.00000
12.30960	45561.00000
12.32460	42601.00000
12.33960	27969.00000
12.35460	16979.00000
12.36960	12012.00000
12.38460	10400.00000
12.39960	9486.00000
12.41460	9093.00000
12.42960	9010.00000
12.44460	8616.00000
12.45960	8585.00000
12.47460	8409.00000
12.48960	8478.00000
12.50460	8427.00000
12.51960	8233.00000
12.53460	8395.00000
12.54960	8405.00000
12.56460	8258.00000
12.57960	8131.00000
12.59460	8158.00000
12.60960	8260.00000
12.62460	8191.00000
12.63960	8195.00000
12.65460	8253.00000
12.66960	8143.00000
12.68460	8119.00000
12.69960	8220.00000
12.71460	8188.00000
12.72960	8221.00000
12.74460	8539.00000
12.75960	9328.00000
12.77460	10808.00000
12.78960	12650.00000
12.80460	12416.00000
12.81960	10494.00000
12.83460	9000.00000
12.84960	8451.00000
12.86460	8099.00000
12.87960	8142.00000
12.89460	8060.00000
12.90960	8135.00000
12.92460	8140.00000
12.93960	8008.00000
12.95460	8007.00000
12.96960	7999.00000
12.98460	8260.00000
12.99960	8408.00000
13.01460	8546.00000
13.02960	8854.00000
13.04460	8718.00000
13.05960	8366.00000
13.07460	8184.00000
13.08960	8158.00000
13.10460	8115.00000
13.11960	8370.00000
13.13460	8446.00000
13.14960	8873.00000
13.16460	10160.00000
13.17960	13509.00000
13.19460	19515.00000
13.20960	24499.00000
13.22460	23026.00000
13.23960	16799.00000
13.25460	12204.00000
13.26960	11072.00000
13.28460	11178.00000
13.29960	10650.00000
13.31460	9455.00000
13.32960	8552.00000
13.34460	8085.00000
13.35960	7983.00000
13.37460	7829.00000
13.38960	7538.00000
13.40460	7502.00000
13.41960	7699.00000
13.43460	7653.00000
13.44960	7477.00000
13.46460	7688.00000
13.47960	7572.00000
13.49460	7720.00000
13.50960	7654.00000
13.52460	7717.00000
13.53960	7729.00000
13.55460	7764.00000
13.56960	7993.00000
13.58460	8404.00000
13.59960	8982.00000
13.61460	10815.00000
13.62960	15083.00000
13.64460	22996.00000
13.65960	29452.00000
13.67460	27147.00000
13.68960	18989.00000
13.70460	12952.00000
13.71960	9901.00000
13.73460	8929.00000
13.74960	8336.00000
13.76460	7931.00000
13.77960	7884.00000
13.79460	7921.00000
13.80960	8040.00000
13.82460	9526.00000
13.83960	12836.00000
13.85460	17512.00000
13.86960	19360.00000
13.88460	16004.00000
13.89960	11445.00000
13.91460	9242.00000
13.92960	8510.00000
13.94460	7838.00000
13.95960	7775.00000
13.97460	7602.00000
13.98960	7578.00000
14.00460	7651.00000
14.01960	7578.00000
14.03460	7892.00000
14.04960	8159.00000
14.06460	8638.00000
14.07960	9701.00000
14.09460	12957.00000
14.10960	21739.00000
14.12460	38488.00000
14.13960	50281.00000
14.15460	42319.00000
14.16960	25467.00000
14.18460	14725.00000
14.19960	10837.00000
14.21460	9494.00000
14.22960	8930.00000
14.24460	8414.00000
14.25960	7814.00000
14.27460	7516.00000
14.28960	7409.00000
14.30460	7086.00000
14.31960	7104.00000
14.33460	6979.00000
14.34960	6947.00000
14.36460	6853.00000
14.37960	6857.00000
14.39460	6959.00000
14.40960	6787.00000
14.42460	6804.00000
14.43960	6692.00000
14.45460	6658.00000
14.46960	6800.00000
14.48460	6755.00000
14.49960	6720.00000
14.51460	6686.00000
14.52960	7000.00000
14.54460	7078.00000
14.55960	7710.00000
14.57460	8684.00000
14.58960	9072.00000
14.60460	8582.00000
14.61960	7830.00000
14.63460	7078.00000
14.64960	7038.00000
14.66460	6924.00000
14.67960	6672.00000
14.69460	6695.00000
14.70960	6731.00000
14.72460	6650.00000
14.73960	6630.00000
14.75460	6553.00000
14.76960	6511.00000
14.78460	6366.00000
14.79960	6392.00000
14.81460	6609.00000
14.82960	6544.00000
14.84460	6561.00000
14.85960	6784.00000
14.87460	7600.00000
14.88960	8674.00000
14.90460	10145.00000
14.91960	12105.00000
14.93460	12594.00000
14.94960	10932.00000
14.96460	8834.00000
14.97960	7867.00000
14.99460	7521.00000
15.00960	7261.00000
15.02460	7032.00000
15.03960	6884.00000
15.05460	6691.00000
15.06960	6401.00000
15.08460	6435.00000
15.09960	6252.00000
15.11460	6367.00000
15.12960	6294.00000
15.14460	6211.00000
15.15960	6026.00000
15.17460	6102.00000
15.18960	6177.00000
15.20460	6100.00000
15.21960	6114.00000
15.23460	6077.00000
15.24960	5996.00000
15.26460	6049.00000
15.27960	6312.00000
15.29460	6154.00000
15.30960	6130.00000
15.32460	6155.00000
15.33960	6396.00000
15.35460	6648.00000
15.36960	6964.00000
15.38460	6910.00000
15.39960	6628.00000
15.41460	6825.00000
15.42960	7378.00000
15.44460	8032.00000
15.45960	8028.00000
15.47460	7305.00000
15.48960	6761.00000
15.50460	6395.00000
15.51960	6063.00000
15.53460	5998.00000
15.54960	6112.00000
15.56460	6038.00000
15.57960	6147.00000
15.59460	6251.00000
15.60960	6094.00000
15.62460	6039.00000
15.63960	6224.00000
15.65460	6150.00000
15.66960	5974.00000
15.68460	6138.00000
15.69960	6048.00000
15.71460	6026.00000
15.72960	6101.00000
15.74460	6237.00000
15.75960	6178.00000
15.77460	6189.00000
15.78960	6126.00000
15.80460	6262.00000
15.81960	6291.00000
15.83460	6313.00000
15.84960	6288.00000
15.86460	6306.00000
15.87960	6380.00000
15.89460	6398.00000
15.90960	6282.00000
15.92460	6275.00000
15.93960	6339.00000
15.95460	6462.00000
15.96960	6469.00000
15.98460	6599.00000
15.99960	6422.00000
16.01460	6512.00000
16.02960	6745.00000
16.04460	7184.00000
16.05960	7740.00000
16.07460	9428.00000
16.08960	11545.00000
16.10460	12582.00000
16.11960	11497.00000
16.13460	9553.00000
16.14960	9114.00000
16.16460	9211.00000
16.17960	8546.00000
16.19460	7389.00000
16.20960	6757.00000
16.22460	6456.00000
16.23960	6245.00000
16.25460	6243.00000
16.26960	6334.00000
16.28460	6490.00000
16.29960	6844.00000
16.31460	7583.00000
16.32960	7775.00000
16.34460	7376.00000
16.35960	6740.00000
16.37460	6368.00000
16.38960	6085.00000
16.40460	5984.00000
16.41960	6015.00000
16.43460	6070.00000
16.44960	5916.00000
16.46460	5871.00000
16.47960	5999.00000
16.49460	5902.00000
16.50960	6102.00000
16.52460	6093.00000
16.53960	6138.00000
16.55460	6097.00000
16.56960	6081.00000
16.58460	6101.00000
16.59960	6094.00000
16.61460	5928.00000
16.62960	5781.00000
16.64460	5768.00000
16.65960	5832.00000
16.67460	5856.00000
16.68960	5921.00000
16.70460	5834.00000
16.71960	5707.00000
16.73460	5813.00000
16.74960	5816.00000
16.76460	5808.00000
16.77960	5974.00000
16.79460	6383.00000
16.80960	7296.00000
16.82460	9022.00000
16.83960	9921.00000
16.85460	8891.00000
16.86960	7451.00000
16.88460	6497.00000
16.89960	5866.00000
16.91460	5887.00000
16.92960	5743.00000
16.94460	5539.00000
16.95960	5616.00000
16.97460	5554.00000
16.98960	5571.00000
17.00460	5627.00000
17.01960	5546.00000
17.03460	5416.00000
17.04960	5422.00000
17.06460	5484.00000
17.07960	5507.00000
17.09460	5461.00000
17.10960	5501.00000
17.12460	5472.00000
17.13960	5423.00000
17.15460	5469.00000
17.16960	5376.00000
17.18460	5470.00000
17.19960	5578.00000
17.21460	5702.00000
17.22960	5998.00000
17.24460	6492.00000
17.25960	6629.00000
17.27460	6397.00000
17.28960	6459.00000
17.30460	6578.00000
17.31960	6127.00000
17.33460	5701.00000
17.34960	5585.00000
17.36460	5528.00000
17.37960	5429.00000
17.39460	5472.00000
17.40960	5411.00000
17.42460	5332.00000
17.43960	5377.00000
17.45460	5429.00000
17.46960	5429.00000
17.48460	5397.00000
17.49960	5346.00000
17.51460	5456.00000
17.52960	5412.00000
17.54460	5401.00000
17.55960	5570.00000
17.57460	5466.00000
17.58960	5448.00000
17.60460	5575.00000
17.61960	5869.00000
17.63460	5980.00000
17.64960	5926.00000
17.66460	5968.00000
17.67960	5790.00000
17.69460	5924.00000
17.70960	6229.00000
17.72460	6960.00000
17.73960	8393.00000
17.75460	8743.00000
17.76960	8091.00000
17.78460	7120.00000
17.79960	6321.00000
17.81460	5877.00000
17.82960	5726.00000
17.84460	5751.00000
17.85960	5596.00000
17.87460	5509.00000
17.88960	5661.00000
17.90460	5820.00000
17.91960	5998.00000
17.93460	6311.00000
17.94960	7470.00000
17.96460	8927.00000
17.97960	9945.00000
17.99460	9490.00000
18.00960	7643.00000
18.02460	6427.00000
18.03960	5964.00000
18.05460	5665.00000
18.06960	5588.00000
18.08460	5520.00000
18.09960	5390.00000
18.11460	5396.00000
18.12960	5336.00000
18.14460	5449.00000
18.15960	5267.00000
18.17460	5424.00000
18.18960	5521.00000
18.20460	5562.00000
18.21960	5650.00000
18.23460	5612.00000
18.24960	5712.00000
18.26460	5972.00000
18.27960	6677.00000
18.29460	7944.00000
18.30960	9943.00000
18.32460	11301.00000
18.33960	10856.00000
18.35460	8824.00000
18.36960	7232.00000
18.38460	6417.00000
18.39960	6032.00000
18.41460	5679.00000
18.42960	5593.00000
18.44460	5542.00000
18.45960	5483.00000
18.47460	5341.00000
18.48960	5427.00000
18.50460	5413.00000
18.51960	5360.00000
18.53460	5431.00000
18.54960	5461.00000
18.56460	5702.00000
18.57960	5926.00000
18.59460	5930.00000
18.60960	5726.00000
18.62460	5519.00000
18.63960	5526.00000
18.65460	5422.00000
18.66960	5484.00000
18.68460	5487.00000
18.69960	5415.00000
18.71460	5510.00000
18.72960	5626.00000
18.74460	5776.00000
18.75960	5892.00000
18.77460	5803.00000
18.78960	5932.00000
18.80460	5888.00000
18.81960	5940.00000
18.83460	6079.00000
18.84960	6249.00000
18.86460	6929.00000
18.87960	7335.00000
18.89460	7010.00000
18.90960	6562.00000
18.92460	5904.00000
18.93960	5663.00000
18.95460	5659.00000
18.96960	5463.00000
18.98460	5571.00000
18.99960	5410.00000
19.01460	5298.00000
19.02960	5382.00000
19.04460	5315.00000
19.05960	5319.00000
19.07460	5282.00000
19.08960	5397.00000
19.10460	5388.00000
19.11960	5493.00000
19.13460	5534.00000
19.14960	5893.00000
19.16460	6676.00000
19.17960	8344.00000
19.19460	9830.00000
19.20960	10041.00000
19.22460	9096.00000
19.23960	8522.00000
19.25460	8137.00000
19.26960	7320.00000
19.28460	6644.00000
19.29960	5954.00000
19.31460	5747.00000
19.32960	5533.00000
19.34460	5512.00000
19.35960	5774.00000
19.37460	5822.00000
19.38960	5842.00000
19.40460	5906.00000
19.41960	5718.00000
19.43460	5589.00000
19.44960	5347.00000
19.46460	5305.00000
19.47960	5297.00000
19.49460	5171.00000
19.50960	5335.00000
19.52460	5450.00000
19.53960	5572.00000
19.55460	5814.00000
19.56960	6190.00000
19.58460	7153.00000
19.59960	8096.00000
19.61460	8770.00000
19.62960	8320.00000
19.64460	7927.00000
19.65960	8175.00000
19.67460	8388.00000
19.68960	7809.00000
19.70460	6715.00000
19.71960	5892.00000
19.73460	5581.00000
19.74960	5489.00000
19.76460	5301.00000
19.77960	5287.00000
19.79460	5339.00000
19.80960	5421.00000
19.82460	5373.00000
19.83960	5573.00000
19.85460	5694.00000
19.86960	5703.00000
19.88460	5899.00000
19.89960	5895.00000
19.91460	5432.00000
19.92960	5201.00000
19.94460	5240.00000
19.95960	5251.00000
19.97460	5241.00000
19.98960	5341.00000
20.00460	5281.00000
20.01960	5218.00000
20.03460	5202.00000
20.04960	5393.00000
20.06460	5497.00000
20.07960	5633.00000
20.09460	5858.00000
20.10960	6491.00000
20.12460	7363.00000
20.13960	8243.00000
20.15460	10300.00000
20.16960	13015.00000
20.18460	14309.00000
20.19960	12378.00000
20.21460	9596.00000
20.22960	7521.00000
20.24460	6525.00000
20.25960	5914.00000
20.27460	5494.00000
20.28960	5469.00000
20.30460	5363.00000
20.31960	5190.00000
20.33460	5140.00000
20.34960	5285.00000
20.36460	5137.00000
20.37960	5220.00000
20.39460	5211.00000
20.40960	5099.00000
20.42460	5303.00000
20.43960	5165.00000
20.45460	5174.00000
20.46960	5284.00000
20.48460	5644.00000
20.49960	6021.00000
20.51460	6293.00000
20.52960	6272.00000
20.54460	6003.00000
20.55960	5810.00000
20.57460	5805.00000
20.58960	5784.00000
20.60460	5467.00000
20.61960	5370.00000
20.63460	5318.00000
20.64960	5282.00000
20.66460	5182.00000
20.67960	5142.00000
20.69460	5229.00000
20.70960	5255.00000
20.72460	5230.00000
20.73960	5417.00000
20.75460	5413.00000
20.76960	5775.00000
20.78460	6396.00000
20.79960	7261.00000
20.81460	8022.00000
20.82960	8392.00000
20.84460	10041.00000
20.85960	12028.00000
20.87460	12073.00000
20.88960	9643.00000
20.90460	7491.00000
20.91960	6369.00000
20.93460	5737.00000
20.94960	5426.00000
20.96460	5493.00000
20.97960	5397.00000
20.99460	5467.00000
21.00960	5711.00000
21.02460	5922.00000
21.03960	6681.00000
21.05460	7278.00000
21.06960	7215.00000
21.08460	6695.00000
21.09960	6174.00000
21.11460	5806.00000
21.12960	5480.00000
21.14460	5273.00000
21.15960	5267.00000
21.17460	5180.00000
21.18960	5108.00000
21.20460	5168.00000
21.21960	5180.00000
21.23460	5162.00000
21.24960	5085.00000
21.26460	5101.00000
21.27960	5069.00000
21.29460	5158.00000
21.30960	5295.00000
21.32460	5345.00000
21.33960	5424.00000
21.35460	5405.00000
21.36960	5455.00000
21.38460	5519.00000
21.39960	5565.00000
21.41460	5916.00000
21.42960	6408.00000
21.44460	7193.00000
21.45960	8344.00000
21.47460	9356.00000
21.48960	9148.00000
21.50460	8059.00000
21.51960	7200.00000
21.53460	6523.00000
21.54960	6119.00000
21.56460	6246.00000
21.57960	6641.00000
21.59460	6632.00000
21.60960	6511.00000
21.62460	6075.00000
21.63960	5816.00000
21.65460	5937.00000
21.66960	5930.00000
21.68460	5964.00000
21.69960	5751.00000
21.71460	5407.00000
21.72960	5362.00000
21.74460	5154.00000
21.75960	5340.00000
21.77460	5364.00000
21.78960	5131.00000
21.80460	5263.00000
21.81960	5272.00000
21.83460	5351.00000
21.84960	5809.00000
21.86460	6437.00000
21.87960	6630.00000
21.89460	6518.00000
21.90960	6294.00000
21.92460	5893.00000
21.93960	5440.00000
21.95460	5561.00000
21.96960	5496.00000
21.98460	5837.00000
21.99960	6571.00000
22.01460	7417.00000
22.02960	7411.00000
22.04460	6898.00000
22.05960	6034.00000
22.07460	5507.00000
22.08960	5559.00000
22.10460	5356.00000
22.11960	5323.00000
22.13460	5461.00000
22.14960	5478.00000
22.16460	5680.00000
22.17960	5561.00000
22.19460	5263.00000
22.20960	5177.00000
22.22460	5112.00000
22.23960	5275.00000
22.25460	5131.00000
22.26960	5163.00000
22.28460	5080.00000
22.29960	5255.00000
22.31460	5302.00000
22.32960	5360.00000
22.34460	5184.00000
22.35960	5254.00000
22.37460	5257.00000
22.38960	5318.00000
22.40460	5364.00000
22.41960	5360.00000
22.43460	5512.00000
22.44960	5567.00000
22.46460	5711.00000
22.47960	6077.00000
22.49460	6539.00000
22.50960	6703.00000
22.52460	6431.00000
22.53960	5955.00000
22.55460	5723.00000
22.56960	5475.00000
22.58460	5321.00000
22.59960	5341.00000
22.61460	5217.00000
22.62960	5254.00000
22.64460	5445.00000
22.65960	5368.00000
22.67460	5359.00000
22.68960	5263.00000
22.70460	5262.00000
22.71960	5274.00000
22.73460	5217.00000
22.74960	5339.00000
22.76460	5435.00000
22.77960	5549.00000
22.79460	5409.00000
22.80960	5637.00000
22.82460	5622.00000
22.83960	5607.00000
22.85460	5560.00000
22.86960	5831.00000
22.88460	5790.00000
22.89960	5805.00000
22.91460	5811.00000
22.92960	5920.00000
22.94460	6204.00000
22.95960	6532.00000
22.97460	6995.00000
22.98960	7508.00000
23.00460	8455.00000
23.01960	10160.00000
23.03460	13236.00000
23.04960	15421.00000
23.06460	15018.00000
23.07960	12670.00000
23.09460	9867.00000
23.10960	8233.00000
23.12460	7064.00000
23.13960	6597.00000
23.15460	6380.00000
23.16960	6054.00000
23.18460	5869.00000
23.19960	5716.00000
23.21460	5578.00000
23.22960	5679.00000
23.24460	5813.00000
23.25960	6304.00000
23.27460	6386.00000
23.28960	6422.00000
23.30460	6236.00000
23.31960	5908.00000
23.33460	5638.00000
23.34960	5592.00000
23.36460	5540.00000
23.37960	5355.00000
23.39460	5433.00000
23.40960	5428.00000
23.42460	5383.00000
23.43960	5365.00000
23.45460	5344.00000
23.46960	5595.00000
23.48460	5671.00000
23.49960	5703.00000
23.51460	5681.00000
23.52960	5631.00000
23.54460	5559.00000
23.55960	5709.00000
23.57460	5488.00000
23.58960	5669.00000
23.60460	6115.00000
23.61960	6620.00000
23.63460	7882.00000
23.64960	9263.00000
23.66460	9691.00000
23.67960	8778.00000
23.69460	7306.00000
23.70960	6505.00000
23.72460	6039.00000
23.73960	5657.00000
23.75460	5463.00000
23.76960	5429.00000
23.78460	5458.00000
23.79960	5440.00000
23.81460	5263.00000
23.82960	5346.00000
23.84460	5418.00000
23.85960	5486.00000
23.87460	5538.00000
23.88960	5536.00000
23.90460	5681.00000
23.91960	5787.00000
23.93460	5636.00000
23.94960	5556.00000
23.96460	5496.00000
23.97960	5447.00000
23.99460	5703.00000
24.00960	6085.00000
24.02460	6242.00000
24.03960	6004.00000
24.05460	5730.00000
24.06960	5487.00000
24.08460	5412.00000
24.09960	5376.00000
24.11460	5451.00000
24.12960	5596.00000
24.14460	5717.00000
24.15960	5600.00000
24.17460	5320.00000
24.18960	5348.00000
24.20460	5209.00000
24.21960	5164.00000
24.23460	5220.00000
24.24960	5253.00000
24.26460	5332.00000
24.27960	5497.00000
24.29460	5505.00000
24.30960	5580.00000
24.32460	5476.00000
24.33960	5551.00000
24.35460	5500.00000
24.36960	5221.00000
24.38460	5286.00000
24.39960	5448.00000
24.41460	5611.00000
24.42960	5727.00000
24.44460	5654.00000
24.45960	5465.00000
24.47460	5636.00000
24.48960	5285.00000
24.50460	5364.00000
24.51960	5452.00000
24.53460	5453.00000
24.54960	5491.00000
24.56460	5555.00000
24.57960	5719.00000
24.59460	5721.00000
24.60960	5457.00000
24.62460	5737.00000
24.63960	5927.00000
24.65460	6093.00000
24.66960	6088.00000
24.68460	5883.00000
24.69960	5608.00000
24.71460	5607.00000
24.72960	5653.00000
24.74460	5931.00000
24.75960	6165.00000
24.77460	6527.00000
24.78960	6501.00000
24.80460	6436.00000
24.81960	6689.00000
24.83460	6980.00000
24.84960	7148.00000
24.86460	7024.00000
24.87960	6481.00000
24.89460	6052.00000
24.90960	5622.00000
24.92460	5594.00000
24.93960	5712.00000
24.95460	5537.00000
24.96960	5508.00000
24.98460	5535.00000
24.99960	5643.00000
25.01460	5523.00000
25.02960	5524.00000
25.04460	5517.00000
25.05960	5662.00000
25.07460	5944.00000
25.08960	6335.00000
25.10460	6521.00000
25.11960	6678.00000
25.13460	6814.00000
25.14960	6529.00000
25.16460	6114.00000
25.17960	5803.00000
25.19460	5697.00000
25.20960	5581.00000
25.22460	5716.00000
25.23960	5910.00000
25.25460	6154.00000
25.26960	7103.00000
25.28460	8688.00000
25.29960	9112.00000
25.31460	8339.00000
25.32960	7063.00000
25.34460	6389.00000
25.35960	6083.00000
25.37460	5811.00000
25.38960	5762.00000
25.40460	5891.00000
25.41960	5824.00000
25.43460	5865.00000
25.44960	5949.00000
25.46460	6052.00000
25.47960	6068.00000
25.49460	6444.00000
25.50960	6981.00000
25.52460	7252.00000
25.53960	7210.00000
25.55460	6765.00000
25.56960	6698.00000
25.58460	6206.00000
25.59960	5921.00000
25.61460	5843.00000
25.62960	5682.00000
25.64460	5686.00000
25.65960	5502.00000
25.67460	5487.00000
25.68960	5518.00000
25.70460	5682.00000
25.71960	5906.00000
25.73460	6459.00000
25.74960	7027.00000
25.76460	7329.00000
25.77960	7497.00000
25.79460	7449.00000
25.80960	6960.00000
25.82460	6458.00000
25.83960	6058.00000
25.85460	5629.00000
25.86960	5447.00000
25.88460	5339.00000
25.89960	5290.00000
25.91460	5336.00000
25.92960	5371.00000
25.94460	5261.00000
25.95960	5267.00000
25.97460	5120.00000
25.98960	5151.00000
26.00460	5188.00000
26.01960	5247.00000
26.03460	5046.00000
26.04960	5145.00000
26.06460	5291.00000
26.07960	5639.00000
26.09460	6013.00000
26.10960	6290.00000
26.12460	6356.00000
26.13960	6099.00000
26.15460	5695.00000
26.16960	5651.00000
26.18460	5623.00000
26.19960	5734.00000
26.21460	6189.00000
26.22960	6355.00000
26.24460	6280.00000
26.25960	5930.00000
26.27460	5572.00000
26.28960	5296.00000
26.30460	5241.00000
26.31960	5131.00000
26.33460	5170.00000
26.34960	5146.00000
26.36460	5144.00000
26.37960	5108.00000
26.39460	5116.00000
26.40960	5182.00000
26.42460	5176.00000
26.43960	5222.00000
26.45460	5250.00000
26.46960	5528.00000
26.48460	6072.00000
26.49960	6528.00000
26.51460	6279.00000
26.52960	6184.00000
26.54460	5908.00000
26.55960	5970.00000
26.57460	6167.00000
26.58960	6558.00000
26.60460	6692.00000
26.61960	6844.00000
26.63460	6490.00000
26.64960	5921.00000
26.66460	5588.00000
26.67960	5543.00000
26.69460	5491.00000
26.70960	5605.00000
26.72460	5810.00000
26.73960	6012.00000
26.75460	6393.00000
26.76960	6487.00000
26.78460	6318.00000
26.79960	5983.00000
26.81460	5677.00000
26.82960	5761.00000
26.84460	5555.00000
26.85960	5397.00000
26.87460	5597.00000
26.88960	5497.00000
26.90460	5516.00000
26.91960	5955.00000
26.93460	6103.00000
26.94960	6144.00000
26.96460	6359.00000
26.97960	6487.00000
26.99460	6518.00000
27.00960	6547.00000
27.02460	6215.00000
27.03960	5864.00000
27.05460	5722.00000
27.06960	5546.00000
27.08460	5342.00000
27.09960	5408.00000
27.11460	5282.00000
27.12960	5292.00000
27.14460	5364.00000
27.15960	5345.00000
27.17460	5193.00000
27.18960	5334.00000
27.20460	5212.00000
27.21960	5228.00000
27.23460	5298.00000
27.24960	5271.00000
27.26460	5308.00000
27.27960	5295.00000
27.29460	5356.00000
27.30960	5379.00000
27.32460	5443.00000
27.33960	5439.00000
27.35460	5547.00000
27.36960	5780.00000
27.38460	6132.00000
27.39960	6186.00000
27.41460	6294.00000
27.42960	6063.00000
27.44460	5833.00000
27.45960	5990.00000
27.47460	6135.00000
27.48960	6528.00000
27.50460	7198.00000
27.51960	7602.00000
27.53460	7687.00000
27.54960	7192.00000
27.56460	6706.00000
27.57960	6167.00000
27.59460	5880.00000
27.60960	5971.00000
27.62460	5858.00000
27.63960	6056.00000
27.65460	6280.00000
27.66960	6172.00000
27.68460	5957.00000
27.69960	5858.00000
27.71460	5742.00000
27.72960	5872.00000
27.74460	6238.00000
27.75960	6857.00000
27.77460	7967.00000
27.78960	8487.00000
27.80460	8678.00000
27.81960	8617.00000
27.83460	8521.00000
27.84960	8249.00000
27.86460	7695.00000
27.87960	7411.00000
27.89460	7662.00000
27.90960	7764.00000
27.92460	8221.00000
27.93960	8730.00000
27.95460	8439.00000
27.96960	7312.00000
27.98460	6534.00000
27.99960	6066.00000
28.01460	5952.00000
28.02960	5618.00000
28.04460	5539.00000
28.05960	5560.00000
28.07460	5678.00000
28.08960	5556.00000
28.10460	5489.00000
28.11960	5418.00000
28.13460	5374.00000
28.14960	5299.00000
28.16460	5291.00000
28.17960	5273.00000
28.19460	5154.00000
28.20960	5119.00000
28.22460	5260.00000
28.23960	5233.00000
28.25460	5246.00000
28.26960	5183.00000
28.28460	5230.00000
28.29960	5373.00000
28.31460	5526.00000
28.32960	5591.00000
28.34460	5571.00000
28.35960	5536.00000
28.37460	5398.00000
28.38960	5400.00000
28.40460	5254.00000
28.41960	5241.00000
28.43460	5398.00000
28.44960	5261.00000
28.46460	5530.00000
28.47960	5678.00000
28.49460	6087.00000
28.50960	6062.00000
28.52460	5938.00000
28.53960	5638.00000
28.55460	5496.00000
28.56960	5533.00000
28.58460	5331.00000
28.59960	5347.00000
28.61460	5405.00000
28.62960	5600.00000
28.64460	5774.00000
28.65960	6163.00000
28.67460	6397.00000
28.68960	6545.00000
28.70460	6540.00000
28.71960	6103.00000
28.73460	5904.00000
28.74960	6015.00000
28.76460	6240.00000
28.77960	6455.00000
28.79460	6640.00000
28.80960	6369.00000
28.82460	5898.00000
28.83960	5601.00000
28.85460	5470.00000
28.86960	5373.00000
28.88460	5191.00000
28.89960	5238.00000
28.91460	5315.00000
28.92960	5463.00000
28.94460	5451.00000
28.95960	5435.00000
28.97460	5490.00000
28.98960	5408.00000
29.00460	5282.00000
29.01960	5161.00000
29.03460	5131.00000
29.04960	5179.00000
29.06460	5165.00000
29.07960	5040.00000
29.09460	5121.00000
29.10960	5278.00000
29.12460	5462.00000
29.13960	5544.00000
29.15460	5745.00000
29.16960	5647.00000
29.18460	5487.00000
29.19960	5294.00000
29.21460	5294.00000
29.22960	5514.00000
29.24460	5570.00000
29.25960	5521.00000
29.27460	5547.00000
29.28960	5539.00000
29.30460	5463.00000
29.31960	5182.00000
29.33460	5238.00000
29.34960	5098.00000
29.36460	5080.00000
29.37960	5116.00000
29.39460	5037.00000
29.40960	4950.00000
29.42460	5181.00000
29.43960	5138.00000
29.45460	5087.00000
29.46960	5203.00000
29.48460	5034.00000
29.49960	5263.00000
29.51460	5148.00000
29.52960	5108.00000
29.54460	5076.00000
29.55960	5095.00000
29.57460	5300.00000
29.58960	5161.00000
29.60460	5200.00000
29.61960	5325.00000
29.63460	5181.00000
29.64960	5109.00000
29.66460	5267.00000
29.67960	5077.00000
29.69460	5072.00000
29.70960	5053.00000
29.72460	5183.00000
29.73960	5164.00000
29.75460	5185.00000
29.76960	5056.00000
29.78460	5097.00000
29.79960	5143.00000
29.81460	5220.00000
29.82960	5217.00000
29.84460	5384.00000
29.85960	5239.00000
29.87460	5191.00000
29.88960	5254.00000
29.90460	5283.00000
29.91960	5352.00000
29.93460	5296.00000
29.94960	5178.00000
29.96460	5235.00000
29.97960	5238.00000
29.99460	5372.00000
30.00960	5518.00000
30.02460	5547.00000
30.03960	5530.00000
30.05460	5380.00000
30.06960	5273.00000
30.08460	5364.00000
30.09960	5504.00000
30.11460	5806.00000
30.12960	5718.00000
30.14460	5644.00000
30.15960	5358.00000
30.17460	5367.00000
30.18960	5434.00000
30.20460	5444.00000
30.21960	5477.00000
30.23460	5624.00000
30.24960	5813.00000
30.26460	5993.00000
30.27960	5901.00000
30.29460	5696.00000
30.30960	5619.00000
30.32460	5435.00000
30.33960	5470.00000
30.35460	5569.00000
30.36960	5453.00000
30.38460	5443.00000
30.39960	5470.00000
30.41460	5549.00000
30.42960	5465.00000
30.44460	5347.00000
30.45960	5490.00000
30.47460	5529.00000
30.48960	5578.00000
30.50460	5790.00000
30.51960	5737.00000
30.53460	5617.00000
30.54960	5499.00000
30.56460	5438.00000
30.57960	5498.00000
30.59460	5552.00000
30.60960	5655.00000
30.62460	6129.00000
30.63960	6220.00000
30.65460	6119.00000
30.66960	5791.00000
30.68460	5558.00000
30.69960	5415.00000
30.71460	5290.00000
30.72960	5248.00000
30.74460	5238.00000
30.75960	5230.00000
30.77460	5405.00000
30.78960	5341.00000
30.80460	5495.00000
30.81960	5727.00000
30.83460	6047.00000
30.84960	6217.00000
30.86460	5919.00000
30.87960	5567.00000
30.89460	5470.00000
30.90960	5288.00000
30.92460	5099.00000
30.93960	5191.00000
30.95460	5208.00000
30.96960	5137.00000
30.98460	5222.00000
30.99960	5229.00000
31.01460	5314.00000
31.02960	5385.00000
31.04460	5505.00000
31.05960	5628.00000
31.07460	5685.00000
31.08960	5621.00000
31.10460	5527.00000
31.11960	5665.00000
31.13460	5684.00000
31.14960	6061.00000
31.16460	6328.00000
31.17960	6691.00000
31.19460	6465.00000
31.20960	6386.00000
31.22460	6219.00000
31.23960	6176.00000
31.25460	5998.00000
31.26960	5759.00000
31.28460	5695.00000
31.29960	5583.00000
31.31460	5657.00000
31.32960	5840.00000
31.34460	5819.00000
31.35960	5583.00000
31.37460	5564.00000
31.38960	5425.00000
31.40460	5437.00000
31.41960	5315.00000
31.43460	5105.00000
31.44960	5378.00000
31.46460	5393.00000
31.47960	5256.00000
31.49460	5287.00000
31.50960	5286.00000
31.52460	5303.00000
31.53960	5148.00000
31.55460	5144.00000
31.56960	5160.00000
31.58460	5148.00000
31.59960	5317.00000
31.61460	5486.00000
31.62960	5539.00000
31.64460	5636.00000
31.65960	5714.00000
31.67460	5668.00000
31.68960	5507.00000
31.70460	5354.00000
31.71960	5171.00000
31.73460	4982.00000
31.74960	5163.00000
31.76460	5258.00000
31.77960	5170.00000
31.79460	5061.00000
31.80960	5178.00000
31.82460	5059.00000
31.83960	5164.00000
31.85460	5116.00000
31.86960	5137.00000
31.88460	5154.00000
31.89960	5129.00000
31.91460	5380.00000
31.92960	5325.00000
31.94460	5353.00000
31.95960	5323.00000
31.97460	5298.00000
31.98960	5242.00000
32.00460	5331.00000
32.01960	5553.00000
32.03460	5560.00000
32.04960	5831.00000
32.06460	6059.00000
32.07960	6193.00000
32.09460	6444.00000
32.10960	6664.00000
32.12460	6584.00000
32.13960	6181.00000
32.15460	5951.00000
32.16960	5765.00000
32.18460	5794.00000
32.19960	5630.00000
32.21460	5654.00000
32.22960	5877.00000
32.24460	5971.00000
32.25960	5952.00000
32.27460	5634.00000
32.28960	5540.00000
32.30460	5421.00000
32.31960	5254.00000
32.33460	5224.00000
32.34960	5377.00000
32.36460	5378.00000
32.37960	5262.00000
32.39460	5424.00000
32.40960	5319.00000
32.42460	5370.00000
32.43960	5435.00000
32.45460	5497.00000
32.46960	5549.00000
32.48460	5399.00000
32.49960	5579.00000
32.51460	5510.00000
32.52960	5621.00000
32.54460	5657.00000
32.55960	5662.00000
32.57460	5553.00000
32.58960	5382.00000
32.60460	5530.00000
32.61960	5721.00000
32.63460	5653.00000
32.64960	5576.00000
32.66460	5525.00000
32.67960	5497.00000
32.69460	5411.00000
32.70960	5275.00000
32.72460	5269.00000
32.73960	5243.00000
32.75460	5336.00000
32.76960	5284.00000
32.78460	5103.00000
32.79960	5140.00000
32.81460	5181.00000
32.82960	5277.00000
32.84460	5231.00000
32.85960	5149.00000
32.87460	5386.00000
32.88960	5429.00000
32.90460	5369.00000
32.91960	5307.00000
32.93460	5370.00000
32.94960	5346.00000
32.96460	5387.00000
32.97960	5475.00000
32.99460	5501.00000
33.00960	5559.00000
33.02460	5518.00000
33.03960	5506.00000
33.05460	5406.00000
33.06960	5413.00000
33.08460	5260.00000
33.09960	5220.00000
33.11460	5282.00000
33.12960	5058.00000
33.14460	5139.00000
33.15960	5234.00000
33.17460	5187.00000
33.18960	5267.00000
33.20460	5301.00000
33.21960	5268.00000
33.23460	5168.00000
33.24960	5142.00000
33.26460	5221.00000
33.27960	5134.00000
33.29460	5046.00000
33.30960	5093.00000
33.32460	5253.00000
33.33960	5255.00000
33.35460	5126.00000
33.36960	5183.00000
33.38460	5156.00000
33.39960	5056.00000
33.41460	5099.00000
33.42960	5207.00000
33.44460	5152.00000
33.45960	5334.00000
33.47460	5341.00000
33.48960	5339.00000
33.50460	5570.00000
33.51960	5692.00000
33.53460	5774.00000
33.54960	5696.00000
33.56460	5803.00000
33.57960	6030.00000
33.59460	6183.00000
33.60960	6267.00000
33.62460	6513.00000
33.63960	6285.00000
33.65460	6092.00000
33.66960	5642.00000
33.68460	5524.00000
33.69960	5577.00000
33.71460	5485.00000
33.72960	5396.00000
33.74460	5503.00000
33.75960	5430.00000
33.77460	5376.00000
33.78960	5315.00000
33.80460	5297.00000
33.81960	5192.00000
33.83460	5139.00000
33.84960	5317.00000
33.86460	5183.00000
33.87960	5194.00000
33.89460	5345.00000
33.90960	5488.00000
33.92460	5619.00000
33.93960	5838.00000
33.95460	5786.00000
33.96960	5479.00000
33.98460	5477.00000
33.99960	5406.00000
34.01460	5475.00000
34.02960	5708.00000
34.04460	5785.00000
34.05960	5812.00000
34.07460	5729.00000
34.08960	5648.00000
34.10460	5551.00000
34.11960	5338.00000
34.13460	5262.00000
34.14960	5174.00000
34.16460	5221.00000
34.17960	5251.00000
34.19460	5217.00000
34.20960	5185.00000
34.22460	5345.00000
34.23960	5137.00000
34.25460	5239.00000
34.26960	5340.00000
34.28460	5361.00000
34.29960	5385.00000
34.31460	5501.00000
34.32960	5606.00000
34.34460	5516.00000
34.35960	5306.00000
34.37460	5339.00000
34.38960	5370.00000
34.40460	5145.00000
34.41960	5095.00000
34.43460	5164.00000
34.44960	5264.00000
34.46460	5188.00000
34.47960	5260.00000
34.49460	5282.00000
34.50960	5383.00000
34.52460	5534.00000
34.53960	5637.00000
34.55460	5446.00000
34.56960	5294.00000
34.58460	5375.00000
34.59960	5244.00000
34.61460	5289.00000
34.62960	5114.00000
34.64460	5110.00000
34.65960	5137.00000
34.67460	5384.00000
34.68960	5397.00000
34.70460	5234.00000
34.71960	5341.00000
34.73460	5371.00000
34.74960	5369.00000
34.76460	5308.00000
34.77960	5413.00000
34.79460	5571.00000
34.80960	5631.00000
34.82460	5487.00000
34.83960	5446.00000
34.85460	5504.00000
34.86960	5501.00000
34.88460	5430.00000
34.89960	5463.00000
34.91460	5471.00000
34.92960	5268.00000
34.94460	5387.00000
34.95960	5562.00000
34.97460	5818.00000
34.98960	6083.00000
35.00460	6163.00000
35.01960	6143.00000
35.03460	5991.00000
35.04960	5900.00000
35.06460	5933.00000
35.07960	5751.00000
35.09460	5860.00000
35.10960	6050.00000
35.12460	6287.00000
35.13960	6157.00000
35.15460	5956.00000
35.16960	5873.00000
35.18460	5786.00000
35.19960	5903.00000
35.21460	6058.00000
35.22960	6388.00000
35.24460	6804.00000
35.25960	6685.00000
35.27460	6269.00000
35.28960	5838.00000
35.30460	5721.00000
35.31960	5637.00000
35.33460	5382.00000
35.34960	5439.00000
35.36460	5375.00000
35.37960	5473.00000
35.39460	5457.00000
35.40960	5567.00000
35.42460	5577.00000
35.43960	5617.00000
35.45460	5513.00000
35.46960	5539.00000
35.48460	5344.00000
35.49960	5510.00000
35.51460	5330.00000
35.52960	5285.00000
35.54460	5393.00000
35.55960	5430.00000
35.57460	5551.00000
35.58960	5581.00000
35.60460	5593.00000
35.61960	5518.00000
35.63460	5398.00000
35.64960	5360.00000
35.66460	5370.00000
35.67960	5274.00000
35.69460	5386.00000
35.70960	5395.00000
35.72460	5579.00000
35.73960	5692.00000
35.75460	5518.00000
35.76960	5583.00000
35.78460	5637.00000
35.79960	5467.00000
35.81460	5511.00000
35.82960	5408.00000
35.84460	5613.00000
35.85960	5709.00000
35.87460	5647.00000
35.88960	5851.00000
35.90460	5885.00000
35.91960	5791.00000
35.93460	6063.00000
35.94960	5971.00000
35.96460	5900.00000
35.97960	5906.00000
35.99460	5717.00000
36.00960	5573.00000
36.02460	5409.00000
36.03960	5400.00000
36.05460	5338.00000
36.06960	5363.00000
36.08460	5416.00000
36.09960	5438.00000
36.11460	5551.00000
36.12960	5444.00000
36.14460	5351.00000
36.15960	5374.00000
36.17460	5401.00000
36.18960	5225.00000
36.20460	5288.00000
36.21960	5177.00000
36.23460	5257.00000
36.24960	5139.00000
36.26460	5272.00000
36.27960	5264.00000
36.29460	5207.00000
36.30960	5335.00000
36.32460	5485.00000
36.33960	5397.00000
36.35460	5387.00000
36.36960	5425.00000
36.38460	5403.00000
36.39960	5280.00000
36.41460	5361.00000
36.42960	5315.00000
36.44460	5326.00000
36.45960	5406.00000
36.47460	5485.00000
36.48960	5476.00000
36.50460	5373.00000
36.51960	5376.00000
36.53460	5530.00000
36.54960	5494.00000
36.56460	5486.00000
36.57960	5587.00000
36.59460	5377.00000
36.60960	5443.00000
36.62460	5241.00000
36.63960	5338.00000
36.65460	5324.00000
36.66960	5290.00000
36.68460	5310.00000
36.69960	5398.00000
36.71460	5386.00000
36.72960	5369.00000
36.74460	5354.00000
36.75960	5167.00000
36.77460	5114.00000
36.78960	5356.00000
36.80460	5159.00000
36.81960	5183.00000
36.83460	5192.00000
36.84960	5264.00000
36.86460	5265.00000
36.87960	5380.00000
36.89460	5464.00000
36.90960	5525.00000
36.92460	5586.00000
36.93960	5543.00000
36.95460	5536.00000
36.96960	5407.00000
36.98460	5330.00000
36.99960	5352.00000
37.01460	5299.00000
37.02960	5232.00000
37.04460	5375.00000
37.05960	5353.00000
37.07460	5297.00000
37.08960	5428.00000
37.10460	5409.00000
37.11960	5365.00000
37.13460	5436.00000
37.14960	5531.00000
37.16460	5580.00000
37.17960	5421.00000
37.19460	5536.00000
37.20960	5428.00000
37.22460	5346.00000
37.23960	5517.00000
37.25460	5503.00000
37.26960	5470.00000
37.28460	5517.00000
37.29960	5502.00000
37.31460	5500.00000
37.32960	5579.00000
37.34460	5796.00000
37.35960	6097.00000
37.37460	5975.00000
37.38960	5662.00000
37.40460	5406.00000
37.41960	5487.00000
37.43460	5371.00000
37.44960	5360.00000
37.46460	5363.00000
37.47960	5345.00000
37.49460	5423.00000
37.50960	5363.00000
37.52460	5448.00000
37.53960	5533.00000
37.55460	5440.00000
37.56960	5336.00000
37.58460	5444.00000
37.59960	5382.00000
37.61460	5234.00000
37.62960	5431.00000
37.64460	5297.00000
37.65960	5351.00000
37.67460	5398.00000
37.68960	5327.00000
37.70460	5372.00000
37.71960	5207.00000
37.73460	5284.00000
37.74960	5365.00000
37.76460	5481.00000
37.77960	5375.00000
37.79460	5687.00000
37.80960	5775.00000
37.82460	5730.00000
37.83960	5762.00000
37.85460	5717.00000
37.86960	5714.00000
37.88460	5576.00000
37.89960	5550.00000
37.91460	5508.00000
37.92960	5422.00000
37.94460	5400.00000
37.95960	5358.00000
37.97460	5278.00000
37.98960	5354.00000
38.00460	5167.00000
38.01960	5303.00000
38.03460	5249.00000
38.04960	5229.00000
38.06460	5292.00000
38.07960	5279.00000
38.09460	5127.00000
38.10960	5203.00000
38.12460	5212.00000
38.13960	5143.00000
38.15460	5195.00000
38.16960	5132.00000
38.18460	5151.00000
38.19960	5089.00000
38.21460	5321.00000
38.22960	5338.00000
38.24460	5230.00000
38.25960	5408.00000
38.27460	5282.00000
38.28960	5467.00000
38.30460	5339.00000
38.31960	5296.00000
38.33460	5275.00000
38.34960	5253.00000
38.36460	5281.00000
38.37960	5150.00000
38.39460	5135.00000
38.40960	5231.00000
38.42460	5318.00000
38.43960	5349.00000
38.45460	5422.00000
38.46960	5392.00000
38.48460	5482.00000
38.49960	5490.00000
38.51460	5511.00000
38.52960	5553.00000
38.54460	5598.00000
38.55960	5578.00000
38.57460	5499.00000
38.58960	5452.00000
38.60460	5209.00000
38.61960	5277.00000
38.63460	5204.00000
38.64960	5152.00000
38.66460	5079.00000
38.67960	5166.00000
38.69460	5045.00000
38.70960	5108.00000
38.72460	5078.00000
38.73960	4989.00000
38.75460	5083.00000
38.76960	5052.00000
38.78460	5108.00000
38.79960	5203.00000
38.81460	5215.00000
38.82960	5139.00000
38.84460	5165.00000
38.85960	5201.00000
38.87460	5101.00000
38.88960	5196.00000
38.90460	5250.00000
38.91960	5256.00000
38.93460	5351.00000
38.94960	5401.00000
38.96460	5449.00000
38.97960	5454.00000
38.99460	5372.00000
39.00960	5330.00000
39.02460	5398.00000
39.03960	5267.00000
39.05460	5136.00000
39.06960	5344.00000
39.08460	5297.00000
39.09960	5289.00000
39.11460	5339.00000
39.12960	5186.00000
39.14460	5231.00000
39.15960	5294.00000
39.17460	5337.00000
39.18960	5338.00000
39.20460	5260.00000
39.21960	5379.00000
39.23460	5510.00000
39.24960	5626.00000
39.26460	5715.00000
39.27960	5667.00000
39.29460	5809.00000
39.30960	5767.00000
39.32460	5747.00000
39.33960	5786.00000
39.35460	5853.00000
39.36960	5979.00000
39.38460	6011.00000
39.39960	5721.00000
39.41460	5664.00000
39.42960	5545.00000
39.44460	5377.00000
39.45960	5343.00000
39.47460	5232.00000
39.48960	5219.00000
39.50460	5309.00000
39.51960	5412.00000
39.53460	5446.00000
39.54960	5500.00000
39.56460	5405.00000
39.57960	5558.00000
39.59460	5414.00000
39.60960	5278.00000
39.62460	5322.00000
39.63960	5337.00000
39.65460	5331.00000
39.66960	5255.00000
39.68460	5259.00000
39.69960	5288.00000
39.71460	5273.00000
39.72960	5270.00000
39.74460	5223.00000
39.75960	5272.00000
39.77460	5294.00000
39.78960	5345.00000
39.80460	5479.00000
39.81960	5599.00000
39.83460	5590.00000
39.84960	5456.00000
39.86460	5440.00000
39.87960	5620.00000
39.89460	5651.00000
39.90960	5670.00000
39.92460	5734.00000
39.93960	5925.00000
39.95460	5950.00000
39.96960	6060.00000
39.98460	5896.00000
39.99960	5831.00000
40.01460	5645.00000
40.02960	5562.00000
40.04460	5510.00000
40.05960	5370.00000
40.07460	5386.00000
40.08960	5179.00000
40.10460	5133.00000
40.11960	5228.00000
40.13460	5148.00000
40.14960	5257.00000
40.16460	5182.00000
40.17960	5234.00000
40.19460	5345.00000
40.20960	5241.00000
40.22460	5213.00000
40.23960	5253.00000
40.25460	5224.00000
40.26960	5198.00000
40.28460	5178.00000
40.29960	5120.00000
40.31460	5268.00000
40.32960	5209.00000
40.34460	5208.00000
40.35960	5162.00000
40.37460	5219.00000
40.38960	5250.00000
40.40460	5202.00000
40.41960	5135.00000
40.43460	5150.00000
40.44960	5165.00000
40.46460	5079.00000
40.47960	5181.00000
40.49460	5241.00000
40.50960	5141.00000
40.52460	5146.00000
40.53960	5178.00000
40.55460	5170.00000
40.56960	5202.00000
40.58460	5004.00000
40.59960	4947.00000
40.61460	5056.00000
40.62960	4888.00000
40.64460	5127.00000
40.65960	5072.00000
40.67460	5029.00000
40.68960	4966.00000
40.70460	4953.00000
40.71960	4964.00000
40.73460	5142.00000
40.74960	5036.00000
40.76460	5050.00000
40.77960	5046.00000
40.79460	4922.00000
40.80960	5029.00000
40.82460	5184.00000
40.83960	5139.00000
40.85460	5037.00000
40.86960	5085.00000
40.88460	5060.00000
40.89960	5156.00000
40.91460	5034.00000
40.92960	4969.00000
40.94460	5110.00000
40.95960	4926.00000
40.97460	4999.00000
40.98960	4930.00000
41.00460	5066.00000
41.01960	4983.00000
41.03460	4958.00000
41.04960	5030.00000
41.06460	5069.00000
41.07960	5095.00000
41.09460	5122.00000
41.10960	5240.00000
41.12460	5303.00000
41.13960	5396.00000
41.15460	5229.00000
41.16960	5159.00000
41.18460	5141.00000
41.19960	5043.00000
41.21460	4956.00000
41.22960	5022.00000
41.24460	4955.00000
41.25960	4878.00000
41.27460	5016.00000
41.28960	4832.00000
41.30460	4795.00000
41.31960	4738.00000
41.33460	4893.00000
41.34960	4851.00000
41.36460	4534.00000
41.37960	4846.00000
41.39460	4926.00000
41.40960	4826.00000
41.42460	4798.00000
41.43960	4816.00000
41.45460	4805.00000
41.46960	4778.00000
41.48460	4779.00000
41.49960	4830.00000
41.51460	4772.00000
41.52960	4826.00000
41.54460	4682.00000
41.55960	4825.00000
41.57460	4792.00000
41.58960	4775.00000
41.60460	4639.00000
41.61960	4575.00000
41.63460	4710.00000
41.64960	4683.00000
41.66460	4743.00000
41.67960	4794.00000
41.69460	4843.00000
41.70960	4948.00000
41.72460	4813.00000
41.73960	4811.00000
41.75460	4824.00000
41.76960	4894.00000
41.78460	5037.00000
41.79960	5037.00000
41.81460	4899.00000
41.82960	4840.00000
41.84460	4915.00000
41.85960	4896.00000
41.87460	4905.00000
41.88960	4827.00000
41.90460	4711.00000
41.91960	4732.00000
41.93460	4767.00000
41.94960	4766.00000
41.96460	4633.00000
41.97960	4640.00000
