2.90960	617.03000
2.92260	615.78000
2.93560	615.78000
2.94860	615.56000
2.96160	613.48000
2.97460	612.91000
2.98760	614.01000
3.00060	614.50000
3.01360	614.67000
3.02660	614.63000
3.03960	613.80000
3.05260	613.74000
3.06560	612.70000
3.07860	610.68000
3.09160	610.63000
3.10460	611.25000
3.11760	611.75000
3.13060	612.63000
3.14360	613.44000
3.15660	614.96000
3.16960	617.74000
3.18260	623.02000
3.19560	635.99000
3.20860	680.35000
3.22160	800.55000
3.23460	981.02000
3.24760	1065.67000
3.26060	944.04000
3.27360	772.89000
3.28660	672.43000
3.29960	636.61000
3.31260	624.77000
3.32560	618.30000
3.33860	615.29000
3.35160	613.11000
3.36460	612.07000
3.37760	612.65000
3.39060	612.56000
3.40360	611.73000
3.41660	610.77000
3.42960	611.99000
3.44260	612.80000
3.45560	611.71000
3.46860	612.51000
3.48160	612.88000
3.49460	611.97000
3.50760	611.76000
3.52060	613.07000
3.53360	613.20000
3.54660	612.03000
3.55960	611.90000
3.57260	613.43000
3.58560	614.21000
3.59860	614.31000
3.61160	615.71000
3.62460	618.31000
3.63760	621.13000
3.65060	623.89000
3.66360	625.72000
3.67660	628.04000
3.68960	633.49000
3.70260	640.07000
3.71560	649.11000
3.72860	663.86000
3.74160	689.41000
3.75460	738.51000
3.76760	857.47000
3.78060	1183.68000
3.79360	2116.04000
3.80660	4367.92000
3.81960	8155.50000
3.83260	11066.20000
3.84560	10148.30000
3.85860	6224.93000
3.87160	2959.22000
3.88460	1416.38000
3.89760	897.75000
3.91060	740.08000
3.92360	684.52000
3.93660	659.35000
3.94960	646.45000
3.96260	639.21000
3.97560	634.27000
3.98860	630.45000
4.00160	628.49000
4.01460	626.04000
4.02760	625.88000
4.04060	625.40000
4.05360	623.99000
4.06660	623.47000
4.07960	623.15000
4.09260	622.89000
4.10560	623.61000
4.11860	624.94000
4.13160	625.36000
4.14460	625.53000
4.15760	627.38000
4.17060	629.43000
4.18360	633.00000
4.19660	637.35000
4.20960	644.43000
4.22260	659.99000
4.23560	694.56000
4.24860	801.27000
4.26160	1200.77000
4.27460	2500.84000
4.28760	5294.63000
4.30060	8135.70000
4.31360	7933.22000
4.32660	5007.75000
4.33960	2399.47000
4.35260	1199.28000
4.36560	816.09000
4.37860	702.89000
4.39160	666.11000
4.40460	651.56000
4.41760	644.72000
4.43060	639.86000
4.44360	636.62000
4.45660	635.75000
4.46960	636.20000
4.48260	639.52000
4.49560	644.97000
4.50860	649.29000
4.52160	654.59000
4.53460	662.44000
4.54760	680.53000
4.56060	730.98000
4.57360	848.82000
4.58660	1035.66000
4.59960	1153.33000
4.61260	1080.05000
4.62560	907.66000
4.63860	796.86000
4.65160	777.01000
4.66460	827.15000
4.67760	964.20000
4.69060	1279.99000
4.70360	2000.34000
4.71660	3497.90000
4.72960	6041.84000
4.74260	9071.98000
4.75560	10932.20000
4.76860	10564.20000
4.78160	8406.58000
4.79460	5787.55000
4.80760	3614.20000
4.82060	2191.50000
4.83360	1388.59000
4.84660	990.88000
4.85960	817.29000
4.87260	743.60000
4.88560	705.76000
4.89860	683.64000
4.91160	669.13000
4.92460	658.99000
4.93760	650.17000
4.95060	642.42000
4.96360	637.20000
4.97660	631.54000
4.98960	626.79000
5.00260	624.36000
5.01560	621.37000
5.02860	616.90000
5.04160	613.43000
5.05460	611.66000
5.06760	609.02000
5.08060	606.56000
5.09360	605.84000
5.10660	604.52000
5.11960	602.95000
5.13260	601.25000
5.14560	600.94000
5.15860	600.60000
5.17160	598.96000
5.18460	597.68000
5.19760	597.82000
5.21060	597.85000
5.22360	597.59000
5.23660	597.10000
5.24960	597.04000
5.26260	597.49000
5.27560	598.76000
5.28860	599.76000
5.30160	601.80000
5.31460	604.61000
5.32760	608.82000
5.34060	617.76000
5.35360	635.49000
5.36660	679.65000
5.37960	792.77000
5.39260	1023.19000
5.40560	1308.82000
5.41860	1430.14000
5.43160	1259.02000
5.44460	976.41000
5.45760	773.41000
5.47060	675.07000
5.48360	633.64000
5.49660	615.32000
5.50960	605.17000
5.52260	600.34000
5.53560	596.81000
5.54860	593.77000
5.56160	592.38000
5.57460	591.73000
5.58760	591.46000
5.60060	589.09000
5.61360	587.75000
5.62660	588.12000
5.63960	586.19000
5.65260	584.72000
5.66560	584.10000
5.67860	583.40000
5.69160	583.07000
5.70460	582.32000
5.71760	582.64000
5.73060	583.05000
5.74360	582.84000
5.75660	582.26000
5.76960	582.05000
5.78260	581.39000
5.79560	580.88000
5.80860	581.00000
5.82160	581.45000
5.83460	582.53000
5.84760	584.33000
5.86060	586.08000
5.87360	588.07000
5.88660	596.34000
5.89960	618.16000
5.91260	658.80000
5.92560	695.69000
5.93860	691.50000
5.95160	650.22000
5.96460	612.41000
5.97760	593.62000
5.99060	586.48000
6.00360	584.80000
6.01660	585.02000
6.02960	585.55000
6.04260	585.20000
6.05560	585.01000
6.06860	584.56000
6.08160	584.22000
6.09460	585.58000
6.10760	587.23000
6.12060	587.81000
6.13360	588.34000
6.14660	589.14000
6.15960	589.32000
6.17260	589.63000
6.18560	590.88000
6.19860	591.85000
6.21160	593.01000
6.22460	593.99000
6.23760	594.60000
6.25060	595.32000
6.26360	597.93000
6.27660	599.35000
6.28960	599.60000
6.30260	600.82000
6.31560	603.12000
6.32860	604.52000
6.34160	606.91000
6.35460	610.35000
6.36760	613.08000
6.38060	616.95000
6.39360	622.61000
6.40660	630.04000
6.41960	642.14000
6.43260	671.34000
6.44560	759.97000
6.45860	1027.62000
6.47160	1611.36000
6.48460	2268.53000
6.49760	2367.39000
6.51060	1845.63000
6.52360	1323.15000
6.53660	1120.49000
6.54960	1219.67000
6.56260	1568.28000
6.57560	2126.99000
6.58860	3068.10000
6.60160	4760.85000
6.61460	6719.55000
6.62760	7302.25000
6.64060	6015.93000
6.65360	4417.07000
6.66660	3323.89000
6.67960	2395.37000
6.69260	1560.98000
6.70560	1033.49000
6.71860	794.96000
6.73160	705.53000
6.74460	668.39000
6.75760	649.78000
6.77060	639.73000
6.78360	632.86000
6.79660	627.93000
6.80960	623.80000
6.82260	620.38000
6.83560	618.29000
6.84860	615.54000
6.86160	614.14000
6.87460	613.24000
6.88760	613.17000
6.90060	614.76000
6.91360	620.84000
6.92660	643.45000
6.93960	700.69000
6.95260	798.93000
6.96560	889.91000
6.97860	896.13000
6.99160	812.03000
7.00460	710.82000
7.01760	654.06000
7.03060	634.47000
7.04360	629.79000
7.05660	627.90000
7.06960	625.84000
7.08260	624.51000
7.09560	623.15000
7.10860	622.38000
7.12160	621.61000
7.13460	622.72000
7.14760	629.46000
7.16060	642.97000
7.17360	670.14000
7.18660	730.43000
7.19960	870.13000
7.21260	1149.50000
7.22560	1516.48000
7.23860	1739.47000
7.25160	1640.80000
7.26460	1351.79000
7.27760	1076.20000
7.29060	888.96000
7.30360	773.06000
7.31660	709.21000
7.32960	679.49000
7.34260	669.40000
7.35560	670.91000
7.36860	681.03000
7.38160	701.73000
7.39460	735.45000
7.40760	791.54000
7.42060	889.47000
7.43360	1048.27000
7.44660	1290.00000
7.45960	1629.73000
7.47260	2034.63000
7.48560	2431.20000
7.49860	2681.46000
7.51160	2635.61000
7.52460	2261.73000
7.53760	1737.83000
7.55060	1273.65000
7.56360	955.65000
7.57660	772.44000
7.58960	683.18000
7.60260	647.23000
7.61560	641.03000
7.62860	659.24000
7.64160	707.06000
7.65460	780.36000
7.66760	842.22000
7.68060	843.89000
7.69360	777.01000
7.70660	687.80000
7.71960	623.90000
7.73260	592.22000
7.74560	580.93000
7.75860	579.07000
7.77160	585.93000
7.78460	609.62000
7.79760	659.76000
7.81060	735.41000
7.82360	800.82000
7.83660	799.52000
7.84960	732.56000
7.86260	652.27000
7.87560	598.00000
7.88860	571.86000
7.90160	560.08000
7.91460	554.17000
7.92760	551.20000
7.94060	550.11000
7.95360	550.08000
7.96660	551.45000
7.97960	555.81000
7.99260	568.04000
8.00560	595.12000
8.01860	663.82000
8.03160	844.61000
8.04460	1190.86000
8.05760	1581.39000
8.07060	1704.84000
8.08360	1461.41000
8.09660	1107.21000
8.10960	861.04000
8.12260	738.02000
8.13560	687.27000
8.14860	674.57000
8.16160	685.95000
8.17460	723.88000
8.18760	811.14000
8.20060	950.54000
8.21360	1103.17000
8.22660	1173.50000
8.23960	1114.00000
8.25260	971.17000
8.26560	836.58000
8.27860	770.25000
8.29160	791.25000
8.30460	909.92000
8.31760	1141.76000
8.33060	1483.05000
8.34360	1856.27000
8.35660	2088.57000
8.36960	2029.89000
8.38260	1701.42000
8.39560	1269.14000
8.40860	915.80000
8.42160	702.07000
8.43460	603.42000
8.44760	563.38000
8.46060	547.77000
8.47360	546.01000
8.48660	560.56000
8.49960	596.10000
8.51260	648.54000
8.52560	697.71000
8.53860	714.45000
8.55160	686.84000
8.56460	666.12000
8.57760	751.65000
8.59060	1061.11000
8.60360	1518.06000
8.61660	1734.77000
8.62960	1453.26000
8.64260	1012.41000
8.65560	709.86000
8.66860	579.69000
8.68160	531.96000
8.69460	513.37000
8.70760	503.91000
8.72060	499.39000
8.73360	499.90000
8.74660	505.17000
8.75960	515.39000
8.77260	534.25000
8.78560	555.41000
8.79860	567.81000
8.81160	563.22000
8.82460	544.75000
8.83760	521.95000
8.85060	503.09000
8.86360	491.20000
8.87660	485.63000
8.88960	484.15000
8.90260	485.12000
8.91560	487.53000
8.92860	493.61000
8.94160	508.45000
8.95460	534.41000
8.96760	572.59000
8.98060	617.11000
8.99360	653.91000
9.00660	672.94000
9.01960	684.69000
9.03260	709.34000
9.04560	745.49000
9.05860	747.89000
9.07160	690.48000
9.08460	611.17000
9.09760	554.18000
9.11060	525.23000
9.12360	511.46000
9.13660	506.93000
9.14960	510.42000
9.16260	525.70000
9.17560	566.20000
9.18860	656.20000
9.20160	814.72000
9.21460	1013.24000
9.22760	1148.34000
9.24060	1127.84000
9.25360	973.66000
9.26660	789.41000
9.27960	657.27000
9.29260	594.66000
9.30560	585.86000
9.31860	602.99000
9.33160	605.43000
9.34460	579.08000
9.35760	545.46000
9.37060	524.88000
9.38360	515.44000
9.39660	510.01000
9.40960	506.42000
9.42260	503.21000
9.43560	502.43000
9.44860	504.12000
9.46160	509.72000
9.47460	521.31000
9.48760	536.89000
9.50060	553.60000
9.51360	574.09000
9.52660	609.70000
9.53960	670.71000
9.55260	765.16000
9.56560	890.57000
9.57860	1033.18000
9.59160	1134.77000
9.60460	1155.51000
9.61760	1085.64000
9.63060	961.64000
9.64360	816.53000
9.65660	685.55000
9.66960	595.18000
9.68260	557.03000
9.69560	577.27000
9.70860	696.62000
9.72160	1018.07000
9.73460	1593.78000
9.74760	2134.73000
9.76060	2162.42000
9.77360	1680.44000
9.78660	1165.23000
9.79960	852.96000
9.81260	721.77000
9.82560	720.51000
9.83860	859.90000
9.85160	1128.73000
9.86460	1348.62000
9.87760	1277.71000
9.89060	982.23000
9.90360	743.74000
9.91660	676.19000
9.92960	700.86000
9.94260	698.33000
9.95560	632.50000
9.96860	551.03000
9.98160	497.15000
9.99460	471.78000
10.00760	461.02000
10.02060	455.68000
10.03360	452.10000
10.04660	450.15000
10.05960	448.03000
10.07260	448.34000
10.08560	447.74000
10.09860	445.89000
10.11160	446.07000
10.12460	446.11000
10.13760	446.86000
10.15060	447.18000
10.16360	446.46000
10.17660	446.18000
10.18960	447.04000
10.20260	447.95000
10.21560	448.63000
10.22860	449.76000
10.24160	451.18000
10.25460	453.17000
10.26760	456.48000
10.28060	462.15000
10.29360	472.59000
10.30660	493.98000
10.31960	539.66000
10.33260	621.96000
10.34560	729.67000
10.35860	821.28000
10.37160	893.50000
10.38460	1002.76000
10.39760	1161.24000
10.41060	1270.40000
10.42360	1227.09000
10.43660	1070.74000
10.44960	994.36000
10.46260	1219.92000
10.47560	1860.54000
10.48860	2677.08000
10.50160	3100.41000
10.51460	2771.20000
10.52760	2023.21000
10.54060	1344.53000
10.55360	931.49000
10.56660	731.50000
10.57960	684.78000
10.59260	731.30000
10.60560	806.21000
10.61860	825.78000
10.63160	753.95000
10.64460	642.50000
10.65760	551.13000
10.67060	497.83000
10.68360	470.79000
10.69660	456.83000
10.70960	449.74000
10.72260	446.58000
10.73560	445.67000
10.74860	448.76000
10.76160	455.74000
10.77460	470.72000
10.78760	504.67000
10.80060	577.79000
10.81360	711.91000
10.82660	885.93000
10.83960	1011.96000
10.85260	1008.87000
10.86560	891.30000
10.87860	744.65000
10.89160	631.10000
10.90460	561.90000
10.91760	523.98000
10.93060	503.58000
10.94360	492.58000
10.95660	487.41000
10.96960	487.37000
10.98260	495.20000
10.99560	513.06000
11.00860	546.77000
11.02160	600.29000
11.03460	658.04000
11.04760	680.05000
11.06060	652.48000
11.07360	604.87000
11.08660	575.42000
11.09960	581.13000
11.11260	626.26000
11.12560	710.06000
11.13860	824.64000
11.15160	948.82000
11.16460	1044.08000
11.17760	1070.98000
11.19060	1018.31000
11.20360	913.18000
11.21660	799.60000
11.22960	714.77000
11.24260	680.49000
11.25560	689.19000
11.26860	706.71000
11.28160	703.45000
11.29460	675.40000
11.30760	641.69000
11.32060	626.82000
11.33360	646.12000
11.34660	683.87000
11.35960	691.90000
11.37260	644.34000
11.38560	571.27000
11.39860	515.39000
11.41160	491.24000
11.42460	492.52000
11.43760	504.14000
11.45060	511.35000
11.46360	505.10000
11.47660	491.78000
11.48960	485.98000
11.50260	493.83000
11.51560	505.86000
11.52860	502.07000
11.54160	482.06000
11.55460	456.45000
11.56760	438.21000
11.58060	430.34000
11.59360	433.58000
11.60660	444.04000
11.61960	461.58000
11.63260	487.19000
11.64560	518.86000
11.65860	552.08000
11.67160	579.92000
11.68460	595.13000
11.69760	592.52000
11.71060	571.73000
11.72360	538.50000
11.73660	503.51000
11.74960	470.53000
11.76260	439.59000
11.77560	414.21000
11.78860	394.79000
11.80160	384.65000
11.81460	381.47000
11.82760	383.59000
11.84060	394.59000
11.85360	417.40000
11.86660	447.03000
11.87960	466.90000
11.89260	478.03000
11.90560	517.18000
11.91860	614.48000
11.93160	742.79000
11.94460	824.40000
11.95760	803.11000
11.97060	702.98000
11.98360	587.52000
11.99660	509.03000
12.00960	478.23000
12.02260	492.17000
12.03560	537.28000
12.04860	578.20000
12.06160	577.85000
12.07460	541.69000
12.08760	505.54000
12.10060	489.26000
12.11360	495.55000
12.12660	516.47000
12.13960	536.00000
12.15260	536.82000
12.16560	516.67000
12.17860	487.76000
12.19160	463.64000
12.20460	453.79000
12.21760	462.67000
12.23060	493.31000
12.24360	552.67000
12.25660	642.72000
12.26960	743.53000
12.28260	816.82000
12.29560	843.47000
12.30860	837.94000
12.32160	813.02000
12.33460	764.25000
12.34760	693.44000
12.36060	612.34000
12.37360	531.98000
12.38660	465.96000
12.39960	422.38000
12.41260	402.55000
12.42560	402.09000
12.43860	420.13000
12.45160	454.91000
12.46460	493.54000
12.47760	515.88000
12.49060	511.07000
12.50360	481.80000
12.51660	440.94000
12.52960	404.84000
12.54260	378.47000
12.55560	363.27000
12.56860	355.68000
12.58160	351.63000
12.59460	350.92000
12.60760	352.44000
12.62060	355.33000
12.63360	357.14000
12.64660	356.07000
12.65960	353.17000
12.67260	350.58000
12.68560	351.63000
12.69860	356.65000
12.71160	370.16000
12.72460	404.97000
12.73760	493.32000
12.75060	675.69000
12.76360	899.42000
12.77660	981.75000
12.78960	861.69000
12.80260	666.12000
12.81560	522.36000
12.82860	450.00000
12.84160	421.02000
12.85460	411.09000
12.86760	412.44000
12.88060	426.69000
12.89360	473.48000
12.90660	595.04000
12.91960	822.55000
12.93260	1092.13000
12.94560	1247.45000
12.95860	1226.23000
12.97160	1084.06000
12.98460	874.96000
12.99760	656.77000
13.01060	504.30000
13.02360	427.08000
13.03660	399.06000
13.04960	399.84000
13.06260	429.50000
13.07560	499.63000
13.08860	589.28000
13.10160	635.08000
13.11460	596.37000
13.12760	512.48000
13.14060	452.64000
13.15360	435.38000
13.16660	442.44000
13.17960	453.65000
13.19260	459.15000
13.20560	458.54000
13.21860	459.79000
13.23160	479.15000
13.24460	523.15000
13.25760	574.43000
13.27060	595.20000
13.28360	564.81000
13.29660	502.21000
13.30960	448.27000
13.32260	424.66000
13.33560	428.34000
13.34860	440.83000
13.36160	441.61000
13.37460	421.95000
13.38760	390.90000
13.40060	363.35000
13.41360	345.86000
13.42660	338.34000
13.43960	335.56000
13.45260	337.16000
13.46560	344.88000
13.47860	362.48000
13.49160	392.30000
13.50460	431.15000
13.51760	476.03000
13.53060	519.80000
13.54360	543.68000
13.55660	524.89000
13.56960	476.44000
13.58260	432.41000
13.59560	410.14000
13.60860	403.24000
13.62160	401.39000
13.63460	397.67000
13.64760	392.31000
13.66060	385.46000
13.67360	379.15000
13.68660	374.71000
13.69960	370.48000
13.71260	362.64000
13.72560	351.97000
13.73860	343.92000
13.75160	345.48000
13.76460	361.23000
13.77760	396.22000
13.79060	444.26000
13.80360	484.01000
13.81660	490.83000
13.82960	459.89000
13.84260	410.57000
13.85560	367.30000
13.86860	340.28000
13.88160	326.96000
13.89460	321.12000
13.90760	319.18000
13.92060	319.86000
13.93360	323.65000
13.94660	328.29000
13.95960	331.80000
13.97260	333.56000
13.98560	334.67000
13.99860	334.41000
14.01160	334.76000
14.02460	338.01000
14.03760	345.57000
14.05060	360.20000
14.06360	381.93000
14.07660	409.84000
14.08960	442.64000
14.10260	482.42000
14.11560	541.53000
14.12860	632.64000
14.14160	742.62000
14.15460	804.71000
14.16760	766.23000
14.18060	655.92000
14.19360	551.07000
14.20660	482.51000
14.21960	448.82000
14.23260	436.27000
14.24560	437.51000
14.25860	446.90000
14.27160	461.49000
14.28460	479.63000
14.29760	503.00000
14.31060	527.53000
14.32360	537.60000
14.33660	524.28000
14.34960	496.04000
14.36260	469.67000
14.37560	448.48000
14.38860	432.31000
14.40160	422.74000
14.41460	419.01000
14.42760	422.91000
14.44060	438.56000
14.45360	469.53000
14.46660	523.80000
14.47960	607.90000
14.49260	706.71000
14.50560	785.52000
14.51860	808.28000
14.53160	780.84000
14.54460	745.31000
14.55760	735.66000
14.57060	752.17000
14.58360	789.51000
14.59660	874.41000
14.60960	1039.57000
14.62260	1258.85000
14.63560	1430.53000
14.64860	1465.49000
14.66160	1358.98000
14.67460	1175.56000
14.68760	964.10000
14.70060	760.17000
14.71360	591.37000
14.72660	475.84000
14.73960	408.02000
14.75260	372.56000
14.76560	353.71000
14.77860	343.33000
14.79160	337.09000
14.80460	332.32000
14.81760	329.31000
14.83060	328.41000
14.84360	330.38000
14.85660	335.07000
14.86960	340.62000
14.88260	344.61000
14.89560	343.11000
14.90860	337.35000
14.92160	332.87000
14.93460	332.35000
14.94760	336.29000
14.96060	344.43000
14.97360	357.68000
14.98660	379.23000
14.99960	409.20000
15.01260	448.07000
15.02560	491.90000
15.03860	531.14000
15.05160	553.04000
15.06460	551.97000
15.07760	536.07000
15.09060	518.76000
15.10360	502.39000
15.11660	479.02000
15.12960	449.80000
15.14260	425.59000
15.15560	410.83000
15.16860	399.48000
15.18160	385.20000
15.19460	371.52000
15.20760	365.36000
15.22060	373.95000
15.23360	403.84000
15.24660	457.08000
15.25960	510.10000
15.27260	527.07000
15.28560	498.75000
15.29860	450.34000
15.31160	409.91000
15.32460	385.43000
15.33760	373.18000
15.35060	368.18000
15.36360	369.31000
15.37660	374.98000
15.38960	387.29000
15.40260	410.89000
15.41560	443.09000
15.42860	479.21000
15.44160	512.75000
15.45460	537.33000
15.46760	538.83000
15.48060	508.21000
15.49360	455.28000
15.50660	401.78000
15.51960	364.53000
15.53260	344.42000
15.54560	332.91000
15.55860	326.42000
15.57160	322.66000
15.58460	320.55000
15.59760	319.92000
15.61060	320.46000
15.62360	323.32000
15.63660	327.97000
15.64960	336.64000
15.66260	351.78000
15.67560	378.51000
15.68860	422.36000
15.70160	473.86000
15.71460	507.13000
15.72760	500.66000
15.74060	473.16000
15.75360	456.16000
15.76660	465.43000
15.77960	498.37000
15.79260	536.85000
15.80560	560.50000
15.81860	568.78000
15.83160	575.96000
15.84460	579.49000
15.85760	570.15000
15.87060	555.85000
15.88360	548.50000
15.89660	541.61000
15.90960	523.86000
15.92260	493.28000
15.93560	464.14000
15.94860	450.31000
15.96160	459.03000
15.97460	480.28000
15.98760	487.78000
16.00060	467.33000
16.01360	429.62000
16.02660	394.69000
16.03960	375.79000
16.05260	373.76000
16.06560	385.16000
16.07860	405.53000
16.09160	427.08000
16.10460	438.71000
16.11760	445.14000
16.13060	463.28000
16.14360	499.57000
16.15660	546.29000
16.16960	578.83000
16.18260	571.98000
16.19560	530.41000
16.20860	482.46000
16.22160	450.66000
16.23460	432.23000
16.24760	413.41000
16.26060	391.98000
16.27360	373.82000
16.28660	360.73000
16.29960	351.41000
16.31260	345.54000
16.32560	341.62000
16.33860	338.42000
16.35160	334.29000
16.36460	328.52000
16.37760	324.47000
16.39060	324.58000
16.40360	327.90000
16.41660	334.81000
16.42960	349.16000
16.44260	375.78000
16.45560	420.19000
16.46860	484.00000
16.48160	544.80000
16.49460	564.30000
16.50760	529.95000
16.52060	465.38000
16.53360	405.99000
16.54660	368.26000
16.55960	349.35000
16.57260	341.86000
16.58560	341.26000
16.59860	345.84000
16.61160	356.92000
16.62460	376.27000
16.63760	400.73000
16.65060	418.07000
16.66360	422.31000
16.67660	418.19000
16.68960	412.98000
16.70260	412.46000
16.71560	419.00000
16.72860	432.63000
16.74160	450.65000
16.75460	467.19000
16.76760	480.39000
16.78060	489.24000
16.79360	497.34000
16.80660	504.71000
16.81960	511.02000
16.83260	508.79000
16.84560	494.94000
16.85860	473.52000
16.87160	452.89000
16.88460	441.36000
16.89760	435.94000
16.91060	426.06000
16.92360	406.35000
16.93660	382.88000
16.94960	364.90000
16.96260	356.79000
16.97560	357.87000
16.98860	367.69000
17.00160	390.92000
17.01460	441.26000
17.02760	535.29000
17.04060	676.24000
17.05360	837.37000
17.06660	965.15000
17.07960	1004.92000
17.09260	954.08000
17.10560	855.83000
17.11860	762.67000
17.13160	678.17000
17.14460	584.63000
17.15760	489.73000
17.17060	418.80000
17.18360	376.34000
17.19660	355.38000
17.20960	346.66000
17.22260	347.76000
17.23560	362.45000
17.24860	400.70000
17.26160	469.26000
17.27460	548.95000
17.28760	592.59000
17.30060	571.10000
17.31360	512.84000
17.32660	460.26000
17.33960	426.51000
17.35260	406.28000
17.36560	394.57000
17.37860	393.35000
17.39160	402.23000
17.40460	417.66000
17.41760	427.22000
17.43060	421.93000
17.44360	402.86000
17.45660	380.42000
17.46960	363.67000
17.48260	354.70000
17.49560	352.15000
17.50860	353.66000
17.52160	358.36000
17.53460	364.58000
17.54760	371.64000
17.56060	378.63000
17.57360	387.48000
17.58660	398.15000
17.59960	412.66000
17.61260	432.69000
17.62560	457.09000
17.63860	481.89000
17.65160	504.86000
17.66460	526.97000
17.67760	552.87000
17.69060	585.73000
17.70360	622.77000
17.71660	657.67000
17.72960	677.52000
17.74260	667.44000
17.75560	622.81000
17.76860	559.02000
17.78160	497.46000
17.79460	451.55000
17.80760	422.21000
17.82060	404.42000
17.83360	394.19000
17.84660	389.05000
17.85960	388.56000
17.87260	393.87000
17.88560	405.61000
17.89860	418.33000
17.91160	418.65000
17.92460	400.57000
17.93760	374.57000
17.95060	356.85000
17.96360	352.22000
17.97660	356.91000
17.98960	368.16000
18.00260	384.87000
18.01560	407.20000
18.02860	435.29000
18.04160	465.79000
18.05460	490.79000
18.06760	504.48000
18.08060	506.75000
18.09360	500.83000
18.10660	488.59000
18.11960	473.87000
18.13260	464.64000
18.14560	459.31000
18.15860	450.81000
18.17160	430.57000
18.18460	400.63000
18.19760	368.26000
18.21060	341.46000
18.22360	323.87000
18.23660	313.44000
18.24960	307.38000
18.26260	305.75000
18.27560	305.91000
18.28860	305.70000
18.30160	306.79000
18.31460	309.30000
18.32760	313.06000
18.34060	318.61000
18.35360	326.75000
18.36660	335.32000
18.37960	341.92000
18.39260	346.65000
18.40560	349.44000
18.41860	353.00000
18.43160	355.68000
18.44460	361.11000
18.45760	373.61000
18.47060	391.43000
18.48360	407.21000
18.49660	420.55000
18.50960	433.36000
18.52260	446.55000
18.53560	448.82000
18.54860	429.02000
18.56160	392.66000
18.57460	357.16000
18.58760	332.83000
18.60060	319.27000
18.61360	310.30000
18.62660	304.53000
18.63960	301.94000
18.65260	300.64000
18.66560	302.07000
18.67860	304.38000
18.69160	309.40000
18.70460	321.12000
18.71760	346.19000
18.73060	398.78000
18.74360	497.01000
18.75660	626.00000
18.76960	720.08000
18.78260	716.94000
18.79560	627.28000
18.80860	515.39000
18.82160	433.94000
18.83460	390.40000
18.84760	372.16000
18.86060	369.06000
18.87360	375.13000
18.88660	382.59000
18.89960	383.29000
18.91260	377.10000
18.92560	365.80000
18.93860	351.55000
18.95160	336.79000
18.96460	323.60000
18.97760	316.67000
18.99060	317.70000
19.00360	326.47000
19.01660	345.00000
19.02960	373.87000
19.04260	412.28000
19.05560	457.91000
19.06860	499.57000
19.08160	519.67000
19.09460	507.72000
19.10760	471.67000
19.12060	431.77000
19.13360	398.72000
19.14660	373.63000
19.15960	355.23000
19.17260	343.09000
19.18560	336.73000
19.19860	336.66000
19.21160	343.18000
19.22460	359.31000
19.23760	386.75000
19.25060	419.27000
19.26360	446.47000
19.27660	467.21000
19.28960	487.11000
19.30260	494.72000
19.31560	473.30000
19.32860	425.07000
19.34160	375.86000
19.35460	340.41000
19.36760	320.32000
19.38060	310.15000
19.39360	304.63000
19.40660	302.82000
19.41960	305.54000
19.43260	313.25000
19.44560	325.56000
19.45860	343.08000
19.47160	358.79000
19.48460	363.93000
19.49760	355.64000
19.51060	344.57000
19.52360	340.56000
19.53660	350.42000
19.54960	380.31000
19.56260	424.48000
19.57560	468.11000
19.58860	487.63000
19.60160	469.68000
19.61460	431.13000
19.62760	393.32000
19.64060	365.82000
19.65360	349.23000
19.66660	335.02000
19.67960	321.51000
19.69260	311.60000
19.70560	309.20000
19.71860	312.63000
19.73160	322.29000
19.74460	343.06000
19.75760	377.31000
19.77060	422.73000
19.78360	467.29000
19.79660	498.50000
19.80960	507.49000
19.82260	489.57000
19.83560	446.52000
19.84860	394.45000
19.86160	352.79000
19.87460	327.91000
19.88760	315.30000
19.90060	310.83000
19.91360	314.85000
19.92660	330.06000
19.93960	354.59000
19.95260	380.65000
19.96560	391.76000
19.97860	379.43000
19.99160	357.18000
20.00460	342.65000
20.01760	339.94000
20.03060	347.14000
20.04360	354.43000
20.05660	353.33000
20.06960	340.30000
20.08260	323.68000
20.09560	309.46000
20.10860	300.74000
20.12160	295.25000
20.13460	289.56000
20.14760	281.24000
20.16060	273.63000
20.17360	268.67000
20.18660	266.87000
20.19960	266.81000
20.21260	268.34000
20.22560	271.57000
20.23860	276.04000
20.25160	286.99000
20.26460	305.83000
20.27760	334.47000
20.29060	369.05000
20.30360	397.80000
20.31660	410.69000
20.32960	406.55000
20.34260	396.23000
20.35560	389.72000
20.36860	385.10000
20.38160	374.58000
20.39460	356.52000
20.40760	335.79000
20.42060	318.90000
20.43360	312.86000
20.44660	312.44000
20.45960	313.25000
20.47260	317.09000
20.48560	321.81000
20.49860	325.48000
20.51160	327.62000
20.52460	329.78000
20.53760	329.53000
20.55060	324.37000
20.56360	314.27000
20.57660	300.48000
20.58960	285.66000
20.60260	274.03000
20.61560	267.67000
20.62860	264.70000
20.64160	265.67000
20.65460	270.98000
20.66760	279.35000
20.68060	294.87000
20.69360	316.95000
20.70660	336.03000
20.71960	344.03000
20.73260	339.46000
20.74560	326.99000
20.75860	316.84000
20.77160	314.18000
20.78460	319.96000
20.79760	331.33000
20.81060	338.87000
20.82360	338.20000
20.83660	331.12000
20.84960	321.87000
20.86260	316.17000
20.87560	313.83000
20.88860	314.79000
20.90160	320.80000
20.91460	334.04000
20.92760	355.16000
20.94060	385.22000
20.95360	420.05000
20.96660	452.46000
20.97960	474.89000
20.99260	481.04000
21.00560	473.24000
21.01860	457.63000
21.03160	443.31000
21.04460	436.20000
21.05760	435.08000
21.07060	429.51000
21.08360	416.53000
21.09660	399.21000
21.10960	379.98000
21.12260	359.65000
21.13560	343.49000
21.14860	332.56000
21.16160	327.51000
21.17460	329.13000
21.18760	336.47000
21.20060	343.85000
21.21360	342.49000
21.22660	331.99000
21.23960	316.65000
21.25260	305.62000
21.26560	299.30000
21.27860	296.62000
21.29160	297.08000
21.30460	297.39000
21.31760	296.94000
21.33060	294.50000
21.34360	291.49000
21.35660	287.81000
21.36960	284.98000
21.38260	285.71000
21.39560	290.77000
21.40860	299.01000
21.42160	305.43000
21.43460	311.56000
21.44760	313.41000
21.46060	311.93000
21.47360	303.34000
21.48660	288.71000
21.49960	273.33000
21.51260	263.13000
21.52560	255.59000
21.53860	251.33000
21.55160	247.97000
21.56460	246.51000
21.57760	248.42000
21.59060	250.68000
21.60360	254.86000
21.61660	260.21000
21.62960	270.75000
21.64260	286.38000
21.65560	302.52000
21.66860	321.53000
21.68160	344.21000
21.69460	363.95000
21.70760	372.18000
21.72060	364.16000
21.73360	345.71000
21.74660	330.48000
21.75960	320.95000
21.77260	315.47000
21.78560	312.68000
21.79860	307.74000
21.81160	301.46000
21.82460	292.55000
21.83760	282.12000
21.85060	271.30000
21.86360	263.17000
21.87660	255.93000
21.88960	252.53000
21.90260	250.01000
21.91560	248.28000
21.92860	250.60000
21.94160	257.73000
21.95460	267.44000
21.96760	276.20000
21.98060	279.40000
21.99360	272.23000
22.00660	260.50000
22.01960	248.35000
22.03260	239.97000
22.04560	236.09000
22.05860	233.99000
22.07160	231.59000
22.08460	230.34000
22.09760	230.04000
22.11060	230.48000
22.12360	232.41000
22.13660	235.46000
22.14960	241.90000
22.16260	250.05000
22.17560	256.46000
22.18860	261.29000
22.20160	264.11000
22.21460	262.46000
22.22760	257.68000
22.24060	251.86000
22.25360	247.26000
22.26660	244.86000
22.27960	243.82000
22.29260	245.72000
22.30560	249.09000
22.31860	254.44000
22.33160	256.28000
22.34460	256.07000
22.35760	253.56000
22.37060	252.19000
22.38360	250.16000
22.39660	248.62000
22.40960	249.36000
22.42260	249.60000
22.43560	250.38000
22.44860	252.86000
22.46160	253.80000
22.47460	253.29000
22.48760	252.39000
22.50060	248.43000
22.51360	245.28000
22.52660	244.37000
22.53960	242.82000
22.55260	244.84000
22.56560	247.20000
22.57860	252.99000
22.59160	263.45000
22.60460	277.34000
22.61760	290.58000
22.63060	301.99000
22.64360	313.33000
22.65660	319.93000
22.66960	318.80000
22.68260	312.48000
22.69560	303.83000
22.70860	296.98000
22.72160	294.25000
22.73460	291.64000
22.74760	284.30000
22.76060	278.08000
22.77360	268.28000
22.78660	260.80000
22.79960	257.12000
22.81260	254.66000
22.82560	256.42000
22.83860	259.38000
22.85160	261.41000
22.86460	264.13000
22.87760	264.25000
22.89060	260.70000
22.90360	257.15000
22.91660	256.42000
22.92960	257.97000
22.94260	264.28000
22.95560	273.85000
22.96860	285.38000
22.98160	295.84000
22.99460	299.65000
23.00760	298.23000
23.02060	296.49000
23.03360	295.53000
23.04660	297.53000
23.05960	303.08000
23.07260	307.91000
23.08560	307.78000
23.09860	301.79000
23.11160	294.74000
23.12460	291.04000
23.13760	297.04000
23.15060	311.05000
23.16360	324.83000
23.17660	333.79000
23.18960	332.63000
23.20260	326.17000
23.21560	312.84000
23.22860	298.65000
23.24160	288.23000
23.25460	279.72000
23.26760	275.22000
23.28060	276.33000
23.29360	281.55000
23.30660	293.63000
23.31960	305.19000
23.33260	318.65000
23.34560	330.26000
23.35860	333.98000
23.37160	326.55000
23.38460	314.89000
23.39760	301.74000
23.41060	292.72000
23.42360	289.48000
23.43660	288.85000
23.44960	289.65000
23.46260	290.47000
23.47560	291.42000
23.48860	294.82000
23.50160	297.20000
23.51460	300.69000
23.52760	304.71000
23.54060	309.20000
23.55360	310.54000
23.56660	309.95000
23.57960	308.08000
23.59260	302.30000
23.60560	299.32000
23.61860	302.37000
23.63160	312.21000
23.64460	317.30000
23.65760	312.39000
23.67060	301.46000
23.68360	287.41000
23.69660	275.45000
23.70960	269.39000
23.72260	268.10000
23.73560	265.13000
23.74860	263.32000
23.76160	261.20000
23.77460	258.80000
23.78760	255.69000
23.80060	255.62000
23.81360	254.96000
23.82660	255.20000
23.83960	257.36000
23.85260	261.74000
23.86560	270.68000
23.87860	280.72000
23.89160	287.59000
23.90460	288.41000
23.91760	284.92000
23.93060	281.19000
23.94360	280.23000
23.95660	285.42000
23.96960	293.81000
23.98260	301.07000
23.99560	299.65000
24.00860	293.48000
24.02160	285.88000
24.03460	279.49000
24.04760	272.44000
24.06060	268.09000
24.07360	264.08000
24.08660	264.67000
24.09960	266.40000
24.11260	267.44000
24.12560	269.37000
24.13860	272.82000
24.15160	274.25000
24.16460	274.34000
24.17760	272.07000
24.19060	273.37000
24.20360	279.86000
24.21660	293.46000
24.22960	310.16000
24.24260	322.83000
24.25560	327.18000
24.26860	322.21000
24.28160	309.73000
24.29460	297.87000
24.30760	288.37000
24.32060	284.76000
24.33360	284.66000
24.34660	283.78000
24.35960	286.67000
24.37260	289.13000
24.38560	290.63000
24.39860	292.67000
24.41160	295.36000
24.42460	297.20000
24.43760	295.30000
24.45060	289.08000
24.46360	282.42000
24.47660	276.77000
24.48960	274.08000
24.50260	270.91000
24.51560	268.28000
24.52860	266.56000
24.54160	266.18000
24.55460	267.11000
24.56760	267.92000
24.58060	266.49000
24.59360	264.46000
24.60660	265.81000
24.61960	270.16000
24.63260	275.72000
24.64560	283.84000
24.65860	290.82000
24.67160	296.97000
24.68460	301.29000
24.69760	305.55000
24.71060	312.83000
24.72360	316.51000
24.73660	314.58000
24.74960	307.01000
24.76260	294.83000
24.77560	285.91000
24.78860	284.48000
24.80160	286.63000
24.81460	290.84000
24.82760	297.85000
24.84060	302.83000
24.85360	302.28000
24.86660	300.71000
24.87960	296.00000
24.89260	294.26000
24.90560	297.27000
24.91860	300.15000
24.93160	295.58000
24.94460	292.98000
24.95760	289.48000
24.97060	295.45000
24.98360	306.61000
24.99660	322.00000
25.00960	332.16000
25.02260	336.98000
25.03560	343.71000
25.04860	345.60000
25.06160	344.70000
25.07460	342.05000
25.08760	335.18000
25.10060	328.27000
25.11360	322.03000
25.12660	320.03000
25.13960	318.71000
25.15260	324.60000
25.16560	335.02000
25.17860	345.28000
25.19160	353.68000
25.20460	356.06000
25.21760	345.93000
25.23060	329.49000
25.24360	312.78000
25.25660	303.33000
25.26960	295.54000
25.28260	287.63000
25.29560	280.29000
25.30860	274.33000
25.32160	272.53000
25.33460	270.85000
25.34760	266.99000
25.36060	265.38000
25.37360	270.01000
25.38660	277.26000
25.39960	278.76000
25.41260	274.26000
25.42560	272.83000
25.43860	271.24000
25.45160	269.99000
25.46460	267.23000
25.47760	259.20000
25.49060	256.89000
25.50360	258.60000
25.51660	256.79000
25.52960	259.61000
25.54260	262.30000
25.55560	264.59000
25.56860	284.85000
25.58160	316.87000
25.59460	322.16000
25.60760	326.37000
25.62060	334.27000
25.63360	323.10000
25.64660	313.38000
25.65960	299.61000
25.67260	286.14000
25.68560	286.33000
25.69860	284.00000
25.71160	271.20000
25.72460	267.32000
25.73760	265.16000
25.75060	260.48000
25.76360	244.60000
25.77660	248.15000
25.78960	228.28000
25.80260	239.18000
25.81560	247.24000
25.82860	242.06000
