8.00000	1595.00000
8.02200	1517.00000
8.04400	1605.00000
8.06600	1577.00000
8.08800	1507.00000
8.11000	1540.00000
8.13200	1512.00000
8.15400	1555.00000
8.17600	1413.00000
8.19800	1574.00000
8.22000	1450.00000
8.24200	1426.00000
8.26400	1475.00000
8.28600	1425.00000
8.30800	1323.00000
8.33000	1427.00000
8.35200	1352.00000
8.37400	1440.00000
8.39600	1347.00000
8.41800	1343.00000
8.44000	1346.00000
8.46200	1342.00000
8.48400	1304.00000
8.50600	1356.00000
8.52800	1294.00000
8.55000	1271.00000
8.57200	1278.00000
8.59400	1234.00000
8.61600	1260.00000
8.63800	1263.00000
8.66000	1289.00000
8.68200	1306.00000
8.70400	1269.00000
8.72600	1227.00000
8.74800	1255.00000
8.77000	1232.00000
8.79200	1183.00000
8.81400	1200.00000
8.83600	1210.00000
8.85800	1168.00000
8.88000	1250.00000
8.90200	1211.00000
8.92400	1227.00000
8.94600	1250.00000
8.96800	1193.00000
8.99000	1201.00000
9.01200	1207.00000
9.03400	1214.00000
9.05600	1176.00000
9.07800	1249.00000
9.10000	1159.00000
9.12200	1169.00000
9.14400	1093.00000
9.16600	1177.00000
9.18800	1158.00000
9.21000	1169.00000
9.23200	1129.00000
9.25400	1158.00000
9.27600	1090.00000
9.29800	1159.00000
9.32000	1114.00000
9.34200	1105.00000
9.36400	1110.00000
9.38600	1115.00000
9.40800	1128.00000
9.43000	1156.00000
9.45200	1139.00000
9.47400	1125.00000
9.49600	1082.00000
9.51800	1171.00000
9.54000	1096.00000
9.56200	1145.00000
9.58400	1059.00000
9.60600	1090.00000
9.62800	1138.00000
9.65000	1156.00000
9.67200	1149.00000
9.69400	1099.00000
9.71600	1136.00000
9.73800	1172.00000
9.76000	1154.00000
9.78200	1124.00000
9.80400	1077.00000
9.82600	1094.00000
9.84800	1099.00000
9.87000	1140.00000
9.89200	1131.00000
9.91400	1062.00000
9.93600	1105.00000
9.95800	1088.00000
9.98000	1123.00000
10.00200	1196.00000
10.02400	1113.00000
10.04600	1103.00000
10.06800	1114.00000
10.09000	1056.00000
10.11200	1049.00000
10.13400	1075.00000
10.15600	1078.00000
10.17800	1104.00000
10.20000	1089.00000
10.22200	1134.00000
10.24400	1081.00000
10.26600	1139.00000
10.28800	1118.00000
10.31000	1145.00000
10.33200	1181.00000
10.35400	1152.00000
10.37600	1154.00000
10.39800	1138.00000
10.42000	1190.00000
10.44200	1137.00000
10.46400	1173.00000
10.48600	1257.00000
10.50800	1311.00000
10.53000	1225.00000
10.55200	1342.00000
10.57400	1390.00000
10.59600	1493.00000
10.61800	1741.00000
10.64000	2016.00000
10.66200	2456.00000
10.68400	3290.00000
10.70600	4096.00000
10.72800	4819.00000
10.75000	5594.00000
10.77200	6407.00000
10.79400	6623.00000
10.81600	5837.00000
10.83800	3908.00000
10.86000	2253.00000
10.88200	1425.00000
10.90400	1104.00000
10.92600	1065.00000
10.94800	1035.00000
10.97000	997.00000
10.99200	1003.00000
11.01400	1017.00000
11.03600	1027.00000
11.05800	935.00000
11.08000	998.00000
11.10200	980.00000
11.12400	944.00000
11.14600	967.00000
11.16800	959.00000
11.19000	988.00000
11.21200	998.00000
11.23400	944.00000
11.25600	893.00000
11.27800	981.00000
11.30000	867.00000
11.32200	901.00000
11.34400	914.00000
11.36600	888.00000
11.38800	931.00000
11.41000	893.00000
11.43200	888.00000
11.45400	919.00000
11.47600	868.00000
11.49800	918.00000
11.52000	912.00000
11.54200	886.00000
11.56400	914.00000
11.58600	851.00000
11.60800	913.00000
11.63000	900.00000
11.65200	849.00000
11.67400	899.00000
11.69600	890.00000
11.71800	896.00000
11.74000	853.00000
11.76200	843.00000
11.78400	855.00000
11.80600	913.00000
11.82800	863.00000
11.85000	844.00000
11.87200	897.00000
11.89400	867.00000
11.91600	852.00000
11.93800	851.00000
11.96000	856.00000
11.98200	843.00000
12.00400	831.00000
12.02600	796.00000
12.04800	797.00000
12.07000	847.00000
12.09200	843.00000
12.11400	865.00000
12.13600	825.00000
12.15800	818.00000
12.18000	864.00000
12.20200	916.00000
12.22400	810.00000
12.24600	873.00000
12.26800	799.00000
12.29000	857.00000
12.31200	863.00000
12.33400	791.00000
12.35600	883.00000
12.37800	843.00000
12.40000	812.00000
12.42200	830.00000
12.44400	753.00000
12.46600	830.00000
12.48800	768.00000
12.51000	807.00000
12.53200	825.00000
12.55400	833.00000
12.57600	804.00000
12.59800	788.00000
12.62000	783.00000
12.64200	832.00000
12.66400	776.00000
12.68600	832.00000
12.70800	786.00000
12.73000	807.00000
12.75200	782.00000
12.77400	810.00000
12.79600	828.00000
12.81800	758.00000
12.84000	782.00000
12.86200	799.00000
12.88400	764.00000
12.90600	767.00000
12.92800	788.00000
12.95000	777.00000
12.97200	824.00000
12.99400	741.00000
13.01600	779.00000
13.03800	820.00000
13.06000	708.00000
13.08200	715.00000
13.10400	752.00000
13.12600	776.00000
13.14800	788.00000
13.17000	763.00000
13.19200	723.00000
13.21400	723.00000
13.23600	741.00000
13.25800	749.00000
13.28000	745.00000
13.30200	725.00000
13.32400	737.00000
13.34600	773.00000
13.36800	777.00000
13.39000	747.00000
13.41200	740.00000
13.43400	728.00000
13.45600	767.00000
13.47800	691.00000
13.50000	727.00000
13.52200	794.00000
13.54400	725.00000
13.56600	724.00000
13.58800	704.00000
13.61000	748.00000
13.63200	684.00000
13.65400	735.00000
13.67600	733.00000
13.69800	719.00000
13.72000	705.00000
13.74200	723.00000
13.76400	727.00000
13.78600	709.00000
13.80800	716.00000
13.83000	775.00000
13.85200	701.00000
13.87400	704.00000
13.89600	765.00000
13.91800	686.00000
13.94000	690.00000
13.96200	716.00000
13.98400	748.00000
14.00600	719.00000
14.02800	694.00000
14.05000	707.00000
14.07200	735.00000
14.09400	735.00000
14.11600	714.00000
14.13800	648.00000
14.16000	709.00000
14.18200	679.00000
14.20400	686.00000
14.22600	681.00000
14.24800	726.00000
14.27000	651.00000
14.29200	705.00000
14.31400	673.00000
14.33600	707.00000
14.35800	747.00000
14.38000	668.00000
14.40200	696.00000
14.42400	670.00000
14.44600	720.00000
14.46800	692.00000
14.49000	693.00000
14.51200	681.00000
14.53400	641.00000
14.55600	677.00000
14.57800	722.00000
14.60000	685.00000
14.62200	672.00000
14.64400	700.00000
14.66600	702.00000
14.68800	676.00000
14.71000	689.00000
14.73200	639.00000
14.75400	657.00000
14.77600	622.00000
14.79800	717.00000
14.82000	680.00000
14.84200	712.00000
14.86400	706.00000
14.88600	635.00000
14.90800	639.00000
14.93000	632.00000
14.95200	673.00000
14.97400	660.00000
14.99600	720.00000
15.01800	697.00000
15.04000	664.00000
15.06200	662.00000
15.08400	742.00000
15.10600	645.00000
15.12800	661.00000
15.15000	699.00000
15.17200	656.00000
15.19400	691.00000
15.21600	666.00000
15.23800	658.00000
15.26000	700.00000
15.28200	625.00000
15.30400	700.00000
15.32600	689.00000
15.34800	631.00000
15.37000	688.00000
15.39200	627.00000
15.41400	642.00000
15.43600	633.00000
15.45800	705.00000
15.48000	627.00000
15.50200	658.00000
15.52400	655.00000
15.54600	668.00000
15.56800	692.00000
15.59000	645.00000
15.61200	645.00000
15.63400	618.00000
15.65600	608.00000
15.67800	679.00000
15.70000	600.00000
15.72200	637.00000
15.74400	680.00000
15.76600	601.00000
15.78800	687.00000
15.81000	638.00000
15.83200	634.00000
15.85400	603.00000
15.87600	712.00000
15.89800	590.00000
15.92000	623.00000
15.94200	668.00000
15.96400	610.00000
15.98600	616.00000
16.00800	640.00000
16.03000	631.00000
16.05200	623.00000
16.07400	654.00000
16.09600	646.00000
16.11800	616.00000
16.14000	617.00000
16.16200	654.00000
16.18400	636.00000
16.20600	627.00000
16.22800	613.00000
16.25000	629.00000
16.27200	605.00000
16.29400	602.00000
16.31600	623.00000
16.33800	618.00000
16.36000	593.00000
16.38200	628.00000
16.40400	638.00000
16.42600	613.00000
16.44800	623.00000
16.47000	649.00000
16.49200	609.00000
16.51400	630.00000
16.53600	613.00000
16.55800	639.00000
16.58000	613.00000
16.60200	614.00000
16.62400	622.00000
16.64600	625.00000
16.66800	622.00000
16.69000	607.00000
16.71200	613.00000
16.73400	626.00000
16.75600	650.00000
16.77800	626.00000
16.80000	643.00000
16.82200	629.00000
16.84400	629.00000
16.86600	607.00000
16.88800	612.00000
16.91000	584.00000
16.93200	631.00000
16.95400	607.00000
16.97600	625.00000
16.99800	600.00000
17.02000	613.00000
17.04200	599.00000
17.06400	587.00000
17.08600	573.00000
17.10800	605.00000
17.13000	600.00000
17.15200	560.00000
17.17400	642.00000
17.19600	602.00000
17.21800	577.00000
17.24000	622.00000
17.26200	630.00000
17.28400	616.00000
17.30600	595.00000
17.32800	588.00000
17.35000	594.00000
17.37200	605.00000
17.39400	583.00000
17.41600	631.00000
17.43800	578.00000
17.46000	614.00000
17.48200	625.00000
17.50400	601.00000
17.52600	620.00000
17.54800	604.00000
17.57000	622.00000
17.59200	589.00000
17.61400	607.00000
17.63600	605.00000
17.65800	581.00000
17.68000	618.00000
17.70200	592.00000
17.72400	644.00000
17.74600	600.00000
17.76800	601.00000
17.79000	624.00000
17.81200	606.00000
17.83400	619.00000
17.85600	611.00000
17.87800	590.00000
17.90000	633.00000
17.92200	603.00000
17.94400	618.00000
17.96600	621.00000
17.98800	628.00000
18.01000	623.00000
18.03200	548.00000
18.05400	601.00000
18.07600	567.00000
18.09800	598.00000
18.12000	566.00000
18.14200	627.00000
18.16400	640.00000
18.18600	571.00000
18.20800	646.00000
18.23000	639.00000
18.25200	641.00000
18.27400	658.00000
18.29600	648.00000
18.31800	708.00000
18.34000	704.00000
18.36200	685.00000
18.38400	631.00000
18.40600	624.00000
18.42800	587.00000
18.45000	595.00000
18.47200	593.00000
18.49400	595.00000
18.51600	598.00000
18.53800	641.00000
18.56000	583.00000
18.58200	573.00000
18.60400	594.00000
18.62600	643.00000
18.64800	624.00000
18.67000	651.00000
18.69200	589.00000
18.71400	577.00000
18.73600	582.00000
18.75800	570.00000
18.78000	606.00000
18.80200	615.00000
18.82400	595.00000
18.84600	624.00000
18.86800	586.00000
18.89000	575.00000
18.91200	570.00000
18.93400	581.00000
18.95600	595.00000
18.97800	621.00000
19.00000	577.00000
19.02200	627.00000
19.04400	656.00000
19.06600	590.00000
19.08800	593.00000
19.11000	621.00000
19.13200	611.00000
19.15400	644.00000
19.17600	623.00000
19.19800	566.00000
19.22000	618.00000
19.24200	595.00000
19.26400	576.00000
19.28600	606.00000
19.30800	598.00000
19.33000	628.00000
19.35200	595.00000
19.37400	590.00000
19.39600	618.00000
19.41800	619.00000
19.44000	666.00000
19.46200	632.00000
19.48400	679.00000
19.50600	625.00000
19.52800	689.00000
19.55000	702.00000
19.57200	687.00000
19.59400	630.00000
19.61600	667.00000
19.63800	650.00000
19.66000	625.00000
19.68200	630.00000
19.70400	633.00000
19.72600	604.00000
19.74800	619.00000
19.77000	609.00000
19.79200	619.00000
19.81400	669.00000
19.83600	590.00000
19.85800	665.00000
19.88000	648.00000
19.90200	586.00000
19.92400	635.00000
19.94600	572.00000
19.96800	570.00000
19.99000	633.00000
20.01200	593.00000
20.03400	630.00000
20.05600	608.00000
20.07800	565.00000
20.10000	593.00000
20.12200	570.00000
20.14400	554.00000
20.16600	648.00000
20.18800	609.00000
20.21000	601.00000
20.23200	625.00000
20.25400	643.00000
20.27600	587.00000
20.29800	608.00000
20.32000	575.00000
20.34200	571.00000
20.36400	618.00000
20.38600	593.00000
20.40800	637.00000
20.43000	589.00000
20.45200	606.00000
20.47400	599.00000
20.49600	587.00000
20.51800	629.00000
20.54000	547.00000
20.56200	598.00000
20.58400	613.00000
20.60600	596.00000
20.62800	610.00000
20.65000	624.00000
20.67200	666.00000
20.69400	630.00000
20.71600	673.00000
20.73800	661.00000
20.76000	686.00000
20.78200	667.00000
20.80400	730.00000
20.82600	671.00000
20.84800	705.00000
20.87000	662.00000
20.89200	681.00000
20.91400	665.00000
20.93600	666.00000
20.95800	707.00000
20.98000	672.00000
21.00200	686.00000
21.02400	698.00000
21.04600	732.00000
21.06800	692.00000
21.09000	684.00000
21.11200	671.00000
21.13400	640.00000
21.15600	647.00000
21.17800	629.00000
21.20000	669.00000
21.22200	649.00000
21.24400	671.00000
21.26600	651.00000
21.28800	623.00000
21.31000	688.00000
21.33200	652.00000
21.35400	641.00000
21.37600	635.00000
21.39800	670.00000
21.42000	687.00000
21.44200	682.00000
21.46400	700.00000
21.48600	784.00000
21.50800	822.00000
21.53000	990.00000
21.55200	1200.00000
21.57400	1331.00000
21.59600	1670.00000
21.61800	2071.00000
21.64000	2301.00000
21.66200	2325.00000
21.68400	2177.00000
21.70600	1764.00000
21.72800	1385.00000
21.75000	1088.00000
21.77200	869.00000
21.79400	764.00000
21.81600	712.00000
21.83800	661.00000
21.86000	623.00000
21.88200	646.00000
21.90400	666.00000
21.92600	656.00000
21.94800	687.00000
21.97000	678.00000
21.99200	671.00000
22.01400	655.00000
22.03600	670.00000
22.05800	651.00000
22.08000	681.00000
22.10200	678.00000
22.12400	648.00000
22.14600	679.00000
22.16800	730.00000
22.19000	673.00000
22.21200	632.00000
22.23400	699.00000
22.25600	640.00000
22.27800	739.00000
22.30000	705.00000
22.32200	683.00000
22.34400	670.00000
22.36600	675.00000
22.38800	690.00000
22.41000	730.00000
22.43200	695.00000
22.45400	694.00000
22.47600	688.00000
22.49800	700.00000
22.52000	764.00000
22.54200	727.00000
22.56400	744.00000
22.58600	680.00000
22.60800	717.00000
22.63000	700.00000
22.65200	645.00000
22.67400	759.00000
22.69600	790.00000
22.71800	796.00000
22.74000	756.00000
22.76200	786.00000
22.78400	777.00000
22.80600	847.00000
22.82800	801.00000
22.85000	881.00000
22.87200	1045.00000
22.89400	1326.00000
22.91600	1844.00000
22.93800	2712.00000
22.96000	3825.00000
22.98200	5079.00000
23.00400	6478.00000
23.02600	7045.00000
23.04800	6884.00000
23.07000	5777.00000
23.09200	4116.00000
23.11400	2832.00000
23.13600	1800.00000
23.15800	1248.00000
23.18000	902.00000
23.20200	817.00000
23.22400	766.00000
23.24600	718.00000
23.26800	679.00000
23.29000	729.00000
23.31200	676.00000
23.33400	691.00000
23.35600	643.00000
23.37800	614.00000
23.40000	637.00000
23.42200	613.00000
23.44400	629.00000
23.46600	635.00000
23.48800	650.00000
23.51000	658.00000
23.53200	677.00000
23.55400	667.00000
23.57600	669.00000
23.59800	660.00000
23.62000	704.00000
23.64200	672.00000
23.66400	770.00000
23.68600	789.00000
23.70800	759.00000
23.73000	765.00000
23.75200	800.00000
23.77400	743.00000
23.79600	807.00000
23.81800	751.00000
23.84000	786.00000
23.86200	753.00000
23.88400	824.00000
23.90600	774.00000
23.92800	776.00000
23.95000	811.00000
23.97200	809.00000
23.99400	805.00000
24.01600	779.00000
24.03800	809.00000
24.06000	755.00000
24.08200	664.00000
24.10400	646.00000
24.12600	681.00000
24.14800	653.00000
24.17000	644.00000
24.19200	631.00000
24.21400	656.00000
24.23600	654.00000
24.25800	603.00000
24.28000	676.00000
24.30200	614.00000
24.32400	628.00000
24.34600	634.00000
24.36800	698.00000
24.39000	589.00000
24.41200	612.00000
24.43400	645.00000
24.45600	611.00000
24.47800	644.00000
24.50000	696.00000
24.52200	681.00000
24.54400	678.00000
24.56600	691.00000
24.58800	666.00000
24.61000	637.00000
24.63200	696.00000
24.65400	701.00000
24.67600	669.00000
24.69800	652.00000
24.72000	661.00000
24.74200	611.00000
24.76400	668.00000
24.78600	730.00000
24.80800	679.00000
24.83000	669.00000
24.85200	656.00000
24.87400	674.00000
24.89600	696.00000
24.91800	707.00000
24.94000	676.00000
24.96200	670.00000
24.98400	686.00000
25.00600	679.00000
25.02800	692.00000
25.05000	709.00000
25.07200	729.00000
25.09400	691.00000
25.11600	707.00000
25.13800	707.00000
25.16000	734.00000
25.18200	771.00000
25.20400	726.00000
25.22600	716.00000
25.24800	733.00000
25.27000	712.00000
25.29200	703.00000
25.31400	668.00000
25.33600	764.00000
25.35800	691.00000
25.38000	794.00000
25.40200	780.00000
25.42400	765.00000
25.44600	795.00000
25.46800	797.00000
25.49000	814.00000
25.51200	805.00000
25.53400	758.00000
25.55600	788.00000
25.57800	780.00000
25.60000	840.00000
25.62200	810.00000
25.64400	806.00000
25.66600	800.00000
25.68800	855.00000
25.71000	818.00000
25.73200	837.00000
25.75400	890.00000
25.77600	856.00000
25.79800	815.00000
25.82000	835.00000
25.84200	822.00000
25.86400	867.00000
25.88600	882.00000
25.90800	850.00000
25.93000	832.00000
25.95200	862.00000
25.97400	925.00000
25.99600	928.00000
26.01800	941.00000
26.04000	941.00000
26.06200	1029.00000
26.08400	1083.00000
26.10600	1115.00000
26.12800	1365.00000
26.15000	1694.00000
26.17200	2220.00000
26.19400	3621.00000
26.21600	5636.00000
26.23800	8544.00000
26.26000	12048.00000
26.28200	15097.00000
26.30400	16810.00000
26.32600	16967.00000
26.34800	14985.00000
26.37000	11724.00000
26.39200	8311.00000
26.41400	5641.00000
26.43600	3532.00000
26.45800	2058.00000
26.48000	1325.00000
26.50200	1023.00000
26.52400	906.00000
26.54600	831.00000
26.56800	881.00000
26.59000	857.00000
26.61200	782.00000
26.63400	775.00000
26.65600	725.00000
26.67800	724.00000
26.70000	741.00000
26.72200	762.00000
26.74400	754.00000
26.76600	744.00000
26.78800	748.00000
26.81000	785.00000
26.83200	719.00000
26.85400	832.00000
26.87600	735.00000
26.89800	692.00000
26.92000	770.00000
26.94200	716.00000
26.96400	687.00000
26.98600	730.00000
27.00800	774.00000
27.03000	722.00000
27.05200	709.00000
27.07400	730.00000
27.09600	735.00000
27.11800	753.00000
27.14000	756.00000
27.16200	751.00000
27.18400	720.00000
27.20600	736.00000
27.22800	700.00000
27.25000	730.00000
27.27200	715.00000
27.29400	807.00000
27.31600	847.00000
27.33800	1014.00000
27.36000	1316.00000
27.38200	1758.00000
27.40400	2566.00000
27.42600	3088.00000
27.44800	3606.00000
27.47000	3607.00000
27.49200	3536.00000
27.51400	2932.00000
27.53600	2189.00000
27.55800	1720.00000
27.58000	1304.00000
27.60200	976.00000
27.62400	730.00000
27.64600	762.00000
27.66800	644.00000
27.69000	615.00000
27.71200	644.00000
27.73400	639.00000
27.75600	633.00000
27.77800	630.00000
27.80000	568.00000
27.82200	641.00000
27.84400	624.00000
27.86600	573.00000
27.88800	611.00000
27.91000	592.00000
27.93200	615.00000
27.95400	594.00000
27.97600	627.00000
27.99800	625.00000
28.02000	633.00000
28.04200	626.00000
28.06400	659.00000
28.08600	713.00000
28.10800	788.00000
28.13000	982.00000
28.15200	1169.00000
28.17400	1490.00000
28.19600	1804.00000
28.21800	1767.00000
28.24000	1805.00000
28.26200	1618.00000
28.28400	1363.00000
28.30600	1108.00000
28.32800	1026.00000
28.35000	743.00000
28.37200	726.00000
28.39400	615.00000
28.41600	652.00000
28.43800	603.00000
28.46000	620.00000
28.48200	590.00000
28.50400	583.00000
28.52600	592.00000
28.54800	587.00000
28.57000	598.00000
28.59200	604.00000
28.61400	590.00000
28.63600	583.00000
28.65800	604.00000
28.68000	620.00000
28.70200	583.00000
28.72400	596.00000
28.74600	627.00000
28.76800	566.00000
28.79000	610.00000
28.81200	569.00000
28.83400	654.00000
28.85600	586.00000
28.87800	644.00000
28.90000	632.00000
28.92200	601.00000
28.94400	613.00000
28.96600	614.00000
28.98800	591.00000
29.01000	617.00000
29.03200	608.00000
29.05400	603.00000
29.07600	642.00000
29.09800	585.00000
29.12000	638.00000
29.14200	616.00000
29.16400	595.00000
29.18600	609.00000
29.20800	601.00000
29.23000	658.00000
29.25200	593.00000
29.27400	603.00000
29.29600	636.00000
29.31800	616.00000
29.34000	620.00000
29.36200	627.00000
29.38400	647.00000
29.40600	615.00000
29.42800	644.00000
29.45000	649.00000
29.47200	654.00000
29.49400	658.00000
29.51600	684.00000
29.53800	733.00000
29.56000	722.00000
29.58200	730.00000
29.60400	866.00000
29.62600	984.00000
29.64800	1220.00000
29.67000	1660.00000
29.69200	2394.00000
29.71400	3632.00000
29.73600	5057.00000
29.75800	6255.00000
29.78000	6914.00000
29.80200	6751.00000
29.82400	6328.00000
29.84600	4753.00000
29.86800	3443.00000
29.89000	2578.00000
29.91200	1895.00000
29.93400	1159.00000
29.95600	839.00000
29.97800	724.00000
30.00000	671.00000
30.02200	666.00000
30.04400	641.00000
30.06600	650.00000
30.08800	651.00000
30.11000	632.00000
30.13200	610.00000
30.15400	594.00000
30.17600	644.00000
30.19800	608.00000
30.22000	677.00000
30.24200	723.00000
30.26400	901.00000
30.28600	1030.00000
30.30800	1144.00000
30.33000	1210.00000
30.35200	1189.00000
30.37400	1125.00000
30.39600	992.00000
30.41800	880.00000
30.44000	802.00000
30.46200	683.00000
30.48400	588.00000
30.50600	564.00000
30.52800	590.00000
30.55000	583.00000
30.57200	565.00000
30.59400	556.00000
30.61600	521.00000
30.63800	525.00000
30.66000	529.00000
30.68200	551.00000
30.70400	546.00000
30.72600	548.00000
30.74800	567.00000
30.77000	543.00000
30.79200	584.00000
30.81400	544.00000
30.83600	536.00000
30.85800	528.00000
30.88000	561.00000
30.90200	552.00000
30.92400	504.00000
30.94600	530.00000
30.96800	527.00000
30.99000	487.00000
31.01200	532.00000
31.03400	502.00000
31.05600	505.00000
31.07800	487.00000
31.10000	532.00000
31.12200	563.00000
31.14400	533.00000
31.16600	540.00000
31.18800	545.00000
31.21000	516.00000
31.23200	490.00000
31.25400	551.00000
31.27600	512.00000
31.29800	495.00000
31.32000	481.00000
31.34200	479.00000
31.36400	470.00000
31.38600	512.00000
31.40800	486.00000
31.43000	499.00000
31.45200	535.00000
31.47400	490.00000
31.49600	505.00000
31.51800	462.00000
31.54000	513.00000
31.56200	487.00000
31.58400	520.00000
31.60600	539.00000
31.62800	558.00000
31.65000	715.00000
31.67200	816.00000
31.69400	1058.00000
31.71600	1215.00000
31.73800	1291.00000
31.76000	1301.00000
31.78200	1295.00000
31.80400	1219.00000
31.82600	1015.00000
31.84800	818.00000
31.87000	820.00000
31.89200	678.00000
31.91400	673.00000
31.93600	630.00000
31.95800	649.00000
31.98000	735.00000
32.00200	658.00000
32.02400	626.00000
32.04600	608.00000
32.06800	592.00000
32.09000	552.00000
32.11200	574.00000
32.13400	467.00000
32.15600	513.00000
32.17800	498.00000
32.20000	510.00000
32.22200	501.00000
32.24400	467.00000
32.26600	460.00000
32.28800	478.00000
32.31000	463.00000
32.33200	494.00000
32.35400	499.00000
32.37600	471.00000
32.39800	476.00000
32.42000	512.00000
32.44200	521.00000
32.46400	533.00000
32.48600	487.00000
32.50800	570.00000
32.53000	649.00000
32.55200	708.00000
32.57400	902.00000
32.59600	1153.00000
32.61800	1460.00000
32.64000	1698.00000
32.66200	1931.00000
32.68400	1947.00000
32.70600	1998.00000
32.72800	1734.00000
32.75000	1350.00000
32.77200	1136.00000
32.79400	954.00000
32.81600	784.00000
32.83800	616.00000
32.86000	538.00000
32.88200	456.00000
32.90400	501.00000
32.92600	514.00000
32.94800	494.00000
32.97000	487.00000
32.99200	451.00000
33.01400	489.00000
33.03600	444.00000
33.05800	511.00000
33.08000	487.00000
33.10200	443.00000
33.12400	490.00000
33.14600	448.00000
33.16800	462.00000
33.19000	446.00000
33.21200	485.00000
33.23400	468.00000
33.25600	443.00000
33.27800	485.00000
33.30000	470.00000
33.32200	445.00000
33.34400	481.00000
33.36600	484.00000
33.38800	468.00000
33.41000	478.00000
33.43200	525.00000
33.45400	470.00000
33.47600	493.00000
33.49800	496.00000
33.52000	520.00000
33.54200	488.00000
33.56400	522.00000
33.58600	533.00000
33.60800	500.00000
33.63000	531.00000
33.65200	529.00000
33.67400	590.00000
33.69600	623.00000
33.71800	617.00000
33.74000	697.00000
33.76200	917.00000
33.78400	1291.00000
33.80600	1902.00000
33.82800	2652.00000
33.85000	3256.00000
33.87200	3639.00000
33.89400	3897.00000
33.91600	3803.00000
33.93800	3403.00000
33.96000	2594.00000
33.98200	1990.00000
34.00400	1609.00000
34.02600	1249.00000
34.04800	891.00000
34.07000	655.00000
34.09200	549.00000
34.11400	545.00000
34.13600	485.00000
34.15800	475.00000
34.18000	427.00000
34.20200	462.00000
34.22400	473.00000
34.24600	487.00000
34.26800	438.00000
34.29000	427.00000
34.31200	477.00000
34.33400	455.00000
34.35600	466.00000
34.37800	417.00000
34.40000	455.00000
34.42200	426.00000
34.44400	423.00000
34.46600	424.00000
34.48800	433.00000
34.51000	410.00000
34.53200	444.00000
34.55400	384.00000
34.57600	382.00000
34.59800	406.00000
34.62000	422.00000
34.64200	433.00000
34.66400	423.00000
34.68600	391.00000
34.70800	418.00000
34.73000	396.00000
34.75200	409.00000
34.77400	392.00000
34.79600	425.00000
34.81800	374.00000
34.84000	368.00000
34.86200	367.00000
34.88400	387.00000
34.90600	415.00000
34.92800	399.00000
34.95000	375.00000
34.97200	362.00000
34.99400	371.00000
35.01600	405.00000
35.03800	408.00000
35.06000	355.00000
35.08200	370.00000
35.10400	395.00000
35.12600	386.00000
35.14800	358.00000
35.17000	378.00000
35.19200	356.00000
35.21400	389.00000
35.23600	382.00000
35.25800	400.00000
35.28000	395.00000
35.30200	362.00000
35.32400	367.00000
35.34600	390.00000
35.36800	380.00000
35.39000	394.00000
35.41200	386.00000
35.43400	410.00000
35.45600	362.00000
35.47800	361.00000
35.50000	354.00000
35.52200	385.00000
35.54400	376.00000
35.56600	378.00000
35.58800	384.00000
35.61000	358.00000
35.63200	369.00000
35.65400	395.00000
35.67600	394.00000
35.69800	394.00000
35.72000	358.00000
35.74200	400.00000
35.76400	392.00000
35.78600	376.00000
35.80800	349.00000
35.83000	377.00000
35.85200	366.00000
35.87400	385.00000
35.89600	376.00000
35.91800	357.00000
35.94000	383.00000
35.96200	394.00000
35.98400	368.00000
36.00600	342.00000
36.02800	369.00000
36.05000	416.00000
36.07200	368.00000
36.09400	395.00000
36.11600	438.00000
36.13800	363.00000
36.16000	444.00000
36.18200	375.00000
36.20400	387.00000
36.22600	374.00000
36.24800	383.00000
36.27000	374.00000
36.29200	357.00000
36.31400	364.00000
36.33600	375.00000
36.35800	375.00000
36.38000	376.00000
36.40200	402.00000
36.42400	397.00000
36.44600	406.00000
36.46800	363.00000
36.49000	395.00000
36.51200	373.00000
36.53400	340.00000
36.55600	370.00000
36.57800	379.00000
36.60000	366.00000
36.62200	393.00000
36.64400	414.00000
36.66600	404.00000
36.68800	398.00000
36.71000	409.00000
36.73200	364.00000
36.75400	355.00000
36.77600	384.00000
36.79800	377.00000
36.82000	372.00000
36.84200	412.00000
36.86400	420.00000
36.88600	447.00000
36.90800	471.00000
36.93000	479.00000
36.95200	591.00000
36.97400	784.00000
36.99600	1044.00000
37.01800	1374.00000
37.04000	1723.00000
37.06200	1920.00000
37.08400	2022.00000
37.10600	1971.00000
37.12800	1972.00000
37.15000	1666.00000
37.17200	1398.00000
37.19400	1139.00000
37.21600	916.00000
37.23800	808.00000
37.26000	610.00000
37.28200	505.00000
37.30400	424.00000
37.32600	420.00000
37.34800	401.00000
37.37000	390.00000
37.39200	397.00000
37.41400	343.00000
37.43600	378.00000
37.45800	391.00000
37.48000	412.00000
37.50200	353.00000
37.52400	396.00000
37.54600	408.00000
37.56800	385.00000
37.59000	399.00000
37.61200	369.00000
37.63400	354.00000
37.65600	395.00000
37.67800	388.00000
37.70000	393.00000
37.72200	403.00000
37.74400	415.00000
37.76600	443.00000
37.78800	424.00000
37.81000	472.00000
37.83200	569.00000
37.85400	730.00000
37.87600	1054.00000
37.89800	1447.00000
37.92000	1772.00000
37.94200	2069.00000
37.96400	2220.00000
37.98600	2281.00000
38.00800	2212.00000
38.03000	1759.00000
38.05200	1373.00000
38.07400	1116.00000
38.09600	999.00000
38.11800	803.00000
38.14000	611.00000
38.16200	457.00000
38.18400	429.00000
38.20600	408.00000
38.22800	411.00000
38.25000	381.00000
38.27200	351.00000
38.29400	353.00000
38.31600	339.00000
38.33800	381.00000
38.36000	326.00000
38.38200	335.00000
38.40400	361.00000
38.42600	320.00000
38.44800	361.00000
38.47000	370.00000
38.49200	367.00000
38.51400	334.00000
38.53600	337.00000
38.55800	322.00000
38.58000	351.00000
38.60200	299.00000
38.62400	354.00000
38.64600	335.00000
38.66800	331.00000
38.69000	345.00000
38.71200	321.00000
38.73400	320.00000
38.75600	304.00000
38.77800	313.00000
38.80000	348.00000
38.82200	321.00000
38.84400	295.00000
38.86600	321.00000
38.88800	364.00000
38.91000	326.00000
38.93200	360.00000
38.95400	336.00000
38.97600	330.00000
38.99800	301.00000
39.02000	316.00000
39.04200	320.00000
39.06400	329.00000
39.08600	307.00000
39.10800	355.00000
39.13000	334.00000
39.15200	312.00000
39.17400	289.00000
39.19600	305.00000
39.21800	337.00000
39.24000	327.00000
39.26200	308.00000
39.28400	330.00000
39.30600	320.00000
39.32800	274.00000
39.35000	306.00000
39.37200	327.00000
39.39400	284.00000
39.41600	313.00000
39.43800	316.00000
39.46000	293.00000
39.48200	317.00000
39.50400	343.00000
39.52600	337.00000
39.54800	320.00000
39.57000	340.00000
39.59200	345.00000
39.61400	319.00000
39.63600	313.00000
39.65800	333.00000
39.68000	322.00000
39.70200	340.00000
39.72400	326.00000
39.74600	332.00000
39.76800	302.00000
39.79000	299.00000
39.81200	361.00000
39.83400	297.00000
39.85600	320.00000
39.87800	313.00000
39.90000	298.00000
39.92200	346.00000
39.94400	305.00000
39.96600	335.00000
39.98800	311.00000
40.01000	358.00000
40.03200	341.00000
40.05400	308.00000
40.07600	325.00000
40.09800	338.00000
40.12000	309.00000
40.14200	332.00000
40.16400	371.00000
40.18600	333.00000
40.20800	338.00000
40.23000	352.00000
40.25200	329.00000
40.27400	336.00000
40.29600	324.00000
40.31800	376.00000
40.34000	408.00000
40.36200	422.00000
40.38400	471.00000
40.40600	458.00000
40.42800	465.00000
40.45000	446.00000
40.47200	414.00000
40.49400	405.00000
40.51600	361.00000
40.53800	393.00000
40.56000	356.00000
40.58200	380.00000
40.60400	347.00000
40.62600	334.00000
40.64800	315.00000
40.67000	332.00000
40.69200	324.00000
40.71400	298.00000
40.73600	325.00000
40.75800	285.00000
40.78000	343.00000
40.80200	319.00000
40.82400	329.00000
40.84600	283.00000
40.86800	344.00000
40.89000	319.00000
40.91200	344.00000
40.93400	342.00000
40.95600	319.00000
40.97800	314.00000
41.00000	318.00000
41.02200	307.00000
41.04400	309.00000
41.06600	342.00000
41.08800	324.00000
41.11000	314.00000
41.13200	332.00000
41.15400	338.00000
41.17600	343.00000
41.19800	340.00000
41.22000	318.00000
41.24200	317.00000
41.26400	350.00000
41.28600	354.00000
41.30800	385.00000
41.33000	392.00000
41.35200	444.00000
41.37400	516.00000
41.39600	652.00000
41.41800	761.00000
41.44000	808.00000
41.46200	868.00000
41.48400	982.00000
41.50600	1077.00000
41.52800	916.00000
41.55000	803.00000
41.57200	693.00000
41.59400	591.00000
41.61600	596.00000
41.63800	521.00000
41.66000	459.00000
41.68200	356.00000
41.70400	370.00000
41.72600	374.00000
41.74800	381.00000
41.77000	325.00000
41.79200	361.00000
41.81400	340.00000
41.83600	359.00000
41.85800	415.00000
41.88000	405.00000
41.90200	512.00000
41.92400	548.00000
41.94600	604.00000
41.96800	578.00000
41.99000	613.00000
42.01200	580.00000
42.03400	582.00000
42.05600	502.00000
42.07800	484.00000
42.10000	432.00000
42.12200	448.00000
42.14400	407.00000
42.16600	382.00000
42.18800	359.00000
42.21000	369.00000
42.23200	359.00000
42.25400	355.00000
42.27600	340.00000
42.29800	419.00000
42.32000	404.00000
42.34200	438.00000
42.36400	541.00000
42.38600	677.00000
42.40800	832.00000
42.43000	1171.00000
42.45200	1551.00000
42.47400	1680.00000
42.49600	1816.00000
42.51800	1919.00000
42.54000	2015.00000
42.56200	1868.00000
42.58400	1522.00000
42.60600	1279.00000
42.62800	1038.00000
42.65000	910.00000
42.67200	828.00000
42.69400	661.00000
42.71600	471.00000
42.73800	437.00000
42.76000	378.00000
42.78200	328.00000
42.80400	349.00000
42.82600	354.00000
42.84800	366.00000
42.87000	360.00000
42.89200	386.00000
42.91400	399.00000
42.93600	480.00000
42.95800	505.00000
42.98000	526.00000
43.00200	546.00000
43.02400	565.00000
43.04600	565.00000
43.06800	550.00000
43.09000	494.00000
43.11200	487.00000
43.13400	490.00000
43.15600	568.00000
43.17800	631.00000
43.20000	566.00000
43.22200	638.00000
43.24400	686.00000
43.26600	646.00000
43.28800	624.00000
43.31000	584.00000
43.33200	461.00000
43.35400	429.00000
43.37600	431.00000
43.39800	400.00000
43.42000	426.00000
43.44200	356.00000
43.46400	355.00000
43.48600	331.00000
43.50800	347.00000
43.53000	302.00000
43.55200	333.00000
43.57400	326.00000
43.59600	321.00000
43.61800	343.00000
43.64000	308.00000
43.66200	303.00000
43.68400	322.00000
43.70600	309.00000
43.72800	316.00000
43.75000	328.00000
43.77200	313.00000
43.79400	303.00000
43.81600	316.00000
43.83800	335.00000
43.86000	294.00000
43.88200	316.00000
43.90400	343.00000
43.92600	411.00000
43.94800	468.00000
43.97000	487.00000
43.99200	500.00000
44.01400	587.00000
44.03600	652.00000
44.05800	739.00000
44.08000	813.00000
44.10200	801.00000
44.12400	805.00000
44.14600	796.00000
44.16800	699.00000
44.19000	616.00000
44.21200	550.00000
44.23400	474.00000
44.25600	461.00000
44.27800	454.00000
44.30000	386.00000
44.32200	367.00000
44.34400	331.00000
44.36600	328.00000
44.38800	297.00000
44.41000	330.00000
44.43200	305.00000
44.45400	345.00000
44.47600	307.00000
44.49800	321.00000
44.52000	340.00000
44.54200	319.00000
44.56400	343.00000
44.58600	387.00000
44.60800	405.00000
44.63000	474.00000
44.65200	582.00000
44.67400	743.00000
44.69600	929.00000
44.71800	1063.00000
44.74000	1226.00000
44.76200	1284.00000
44.78400	1325.00000
44.80600	1261.00000
44.82800	1182.00000
44.85000	1052.00000
44.87200	889.00000
44.89400	716.00000
44.91600	679.00000
44.93800	620.00000
44.96000	503.00000
44.98200	410.00000
45.00400	337.00000
45.02600	337.00000
45.04800	295.00000
45.07000	285.00000
45.09200	297.00000
45.11400	332.00000
45.13600	266.00000
45.15800	333.00000
45.18000	284.00000
45.20200	314.00000
45.22400	292.00000
45.24600	258.00000
45.26800	297.00000
45.29000	292.00000
45.31200	296.00000
45.33400	280.00000
45.35600	291.00000
45.37800	292.00000
45.40000	291.00000
45.42200	281.00000
45.44400	281.00000
45.46600	274.00000
45.48800	271.00000
45.51000	304.00000
45.53200	252.00000
45.55400	281.00000
45.57600	287.00000
45.59800	261.00000
45.62000	281.00000
45.64200	271.00000
45.66400	286.00000
45.68600	279.00000
45.70800	278.00000
45.73000	285.00000
45.75200	301.00000
45.77400	262.00000
45.79600	315.00000
45.81800	281.00000
45.84000	267.00000
45.86200	296.00000
45.88400	298.00000
45.90600	282.00000
45.92800	248.00000
45.95000	292.00000
45.97200	264.00000
45.99400	266.00000
46.01600	258.00000
46.03800	278.00000
46.06000	295.00000
46.08200	308.00000
46.10400	281.00000
46.12600	261.00000
46.14800	289.00000
46.17000	260.00000
46.19200	299.00000
46.21400	265.00000
46.23600	284.00000
46.25800	283.00000
46.28000	336.00000
46.30200	280.00000
46.32400	262.00000
46.34600	284.00000
46.36800	261.00000
46.39000	263.00000
46.41200	284.00000
46.43400	309.00000
46.45600	274.00000
46.47800	294.00000
46.50000	293.00000
46.52200	299.00000
46.54400	284.00000
46.56600	270.00000
46.58800	332.00000
46.61000	348.00000
46.63200	391.00000
46.65400	401.00000
46.67600	456.00000
46.69800	467.00000
46.72000	447.00000
46.74200	499.00000
46.76400	478.00000
46.78600	410.00000
46.80800	375.00000
46.83000	381.00000
46.85200	352.00000
46.87400	322.00000
46.89600	319.00000
46.91800	326.00000
46.94000	287.00000
46.96200	295.00000
46.98400	267.00000
47.00600	294.00000
47.02800	268.00000
47.05000	298.00000
47.07200	290.00000
47.09400	323.00000
47.11600	296.00000
47.13800	277.00000
47.16000	309.00000
47.18200	277.00000
47.20400	280.00000
47.22600	296.00000
47.24800	299.00000
47.27000	280.00000
47.29200	260.00000
47.31400	271.00000
47.33600	261.00000
47.35800	254.00000
47.38000	292.00000
47.40200	285.00000
47.42400	268.00000
47.44600	272.00000
47.46800	320.00000
47.49000	269.00000
47.51200	236.00000
47.53400	233.00000
47.55600	279.00000
47.57800	275.00000
47.60000	300.00000
47.62200	259.00000
47.64400	252.00000
47.66600	275.00000
47.68800	260.00000
47.71000	271.00000
47.73200	265.00000
47.75400	266.00000
47.77600	282.00000
47.79800	292.00000
47.82000	327.00000
47.84200	297.00000
47.86400	285.00000
47.88600	293.00000
47.90800	307.00000
47.93000	315.00000
47.95200	290.00000
47.97400	317.00000
47.99600	273.00000
48.01800	288.00000
48.04000	293.00000
48.06200	279.00000
48.08400	308.00000
48.10600	329.00000
48.12800	409.00000
48.15000	524.00000
48.17200	724.00000
48.19400	800.00000
48.21600	716.00000
48.23800	833.00000
48.26000	880.00000
48.28200	921.00000
48.30400	941.00000
48.32600	726.00000
48.34800	568.00000
48.37000	543.00000
48.39200	521.00000
48.41400	500.00000
48.43600	473.00000
48.45800	370.00000
48.48000	322.00000
48.50200	320.00000
48.52400	313.00000
48.54600	286.00000
48.56800	282.00000
48.59000	286.00000
48.61200	275.00000
48.63400	272.00000
48.65600	280.00000
48.67800	287.00000
48.70000	256.00000
48.72200	275.00000
48.74400	284.00000
48.76600	254.00000
48.78800	260.00000
48.81000	298.00000
48.83200	321.00000
48.85400	265.00000
48.87600	270.00000
48.89800	281.00000
48.92000	284.00000
48.94200	290.00000
48.96400	272.00000
48.98600	277.00000
49.00800	269.00000
49.03000	266.00000
49.05200	269.00000
49.07400	306.00000
49.09600	259.00000
49.11800	266.00000
49.14000	278.00000
49.16200	277.00000
49.18400	271.00000
49.20600	268.00000
49.22800	299.00000
49.25000	274.00000
49.27200	280.00000
49.29400	253.00000
49.31600	298.00000
49.33800	256.00000
49.36000	253.00000
49.38200	305.00000
49.40400	264.00000
49.42600	283.00000
49.44800	299.00000
49.47000	318.00000
49.49200	297.00000
49.51400	316.00000
49.53600	297.00000
49.55800	276.00000
49.58000	324.00000
49.60200	344.00000
49.62400	302.00000
49.64600	302.00000
49.66800	350.00000
49.69000	354.00000
49.71200	355.00000
49.73400	394.00000
49.75600	387.00000
49.77800	372.00000
49.80000	381.00000
49.82200	368.00000
49.84400	431.00000
49.86600	486.00000
49.88800	501.00000
49.91000	541.00000
49.93200	552.00000
49.95400	605.00000
49.97600	614.00000
49.99800	606.00000
50.02000	594.00000
50.04200	572.00000
50.06400	444.00000
50.08600	381.00000
50.10800	387.00000
50.13000	435.00000
50.15200	378.00000
50.17400	353.00000
50.19600	338.00000
50.21800	322.00000
50.24000	327.00000
50.26200	324.00000
50.28400	351.00000
50.30600	339.00000
50.32800	373.00000
50.35000	347.00000
50.37200	319.00000
50.39400	356.00000
50.41600	331.00000
50.43800	343.00000
50.46000	369.00000
50.48200	351.00000
50.50400	335.00000
50.52600	342.00000
50.54800	352.00000
50.57000	342.00000
50.59200	344.00000
50.61400	407.00000
50.63600	482.00000
50.65800	751.00000
50.68000	887.00000
50.70200	1014.00000
50.72400	1095.00000
50.74600	1206.00000
50.76800	1314.00000
50.79000	1382.00000
50.81200	1293.00000
50.83400	1098.00000
50.85600	895.00000
50.87800	763.00000
50.90000	716.00000
50.92200	747.00000
50.94400	700.00000
50.96600	588.00000
50.98800	513.00000
51.01000	424.00000
51.03200	355.00000
51.05400	317.00000
51.07600	331.00000
51.09800	298.00000
51.12000	323.00000
51.14200	286.00000
51.16400	281.00000
51.18600	287.00000
51.20800	269.00000
51.23000	278.00000
51.25200	301.00000
51.27400	314.00000
51.29600	314.00000
51.31800	340.00000
51.34000	353.00000
51.36200	365.00000
51.38400	405.00000
51.40600	430.00000
51.42800	437.00000
51.45000	480.00000
51.47200	423.00000
51.49400	411.00000
51.51600	359.00000
51.53800	369.00000
51.56000	327.00000
51.58200	348.00000
51.60400	339.00000
51.62600	329.00000
51.64800	288.00000
51.67000	261.00000
51.69200	280.00000
51.71400	270.00000
51.73600	273.00000
51.75800	278.00000
51.78000	289.00000
51.80200	271.00000
51.82400	254.00000
51.84600	280.00000
51.86800	268.00000
51.89000	227.00000
51.91200	282.00000
51.93400	286.00000
51.95600	233.00000
51.97800	276.00000
52.00000	276.00000
52.02200	280.00000
52.04400	293.00000
52.06600	293.00000
52.08800	280.00000
52.11000	287.00000
52.13200	276.00000
52.15400	256.00000
52.17600	288.00000
52.19800	321.00000
52.22000	371.00000
52.24200	418.00000
52.26400	438.00000
52.28600	429.00000
52.30800	462.00000
52.33000	455.00000
52.35200	454.00000
52.37400	400.00000
52.39600	376.00000
52.41800	376.00000
52.44000	379.00000
52.46200	373.00000
52.48400	351.00000
52.50600	330.00000
52.52800	322.00000
52.55000	311.00000
52.57200	361.00000
52.59400	361.00000
52.61600	386.00000
52.63800	415.00000
52.66000	415.00000
52.68200	404.00000
52.70400	435.00000
52.72600	481.00000
52.74800	446.00000
52.77000	383.00000
52.79200	379.00000
52.81400	336.00000
52.83600	348.00000
52.85800	355.00000
52.88000	336.00000
52.90200	304.00000
52.92400	318.00000
52.94600	290.00000
52.96800	256.00000
52.99000	262.00000
53.01200	271.00000
53.03400	274.00000
53.05600	258.00000
53.07800	282.00000
53.10000	271.00000
53.12200	262.00000
53.14400	266.00000
53.16600	272.00000
53.18800	253.00000
53.21000	265.00000
53.23200	287.00000
53.25400	271.00000
53.27600	260.00000
53.29800	289.00000
53.32000	279.00000
53.34200	270.00000
53.36400	272.00000
53.38600	271.00000
53.40800	249.00000
53.43000	254.00000
53.45200	250.00000
53.47400	292.00000
53.49600	288.00000
53.51800	277.00000
53.54000	264.00000
53.56200	268.00000
53.58400	299.00000
53.60600	273.00000
53.62800	277.00000
53.65000	266.00000
53.67200	295.00000
53.69400	241.00000
53.71600	292.00000
53.73800	261.00000
53.76000	270.00000
53.78200	271.00000
53.80400	261.00000
53.82600	277.00000
53.84800	300.00000
53.87000	264.00000
53.89200	284.00000
53.91400	326.00000
53.93600	326.00000
53.95800	359.00000
53.98000	389.00000
54.00200	441.00000
54.02400	552.00000
54.04600	624.00000
54.06800	593.00000
54.09000	673.00000
54.11200	718.00000
54.13400	716.00000
54.15600	644.00000
54.17800	618.00000
54.20000	609.00000
54.22200	540.00000
54.24400	539.00000
54.26600	469.00000
54.28800	482.00000
54.31000	443.00000
54.33200	421.00000
54.35400	338.00000
54.37600	341.00000
54.39800	355.00000
54.42000	271.00000
54.44200	302.00000
54.46400	299.00000
54.48600	285.00000
54.50800	282.00000
54.53000	273.00000
54.55200	271.00000
54.57400	266.00000
54.59600	281.00000
54.61800	284.00000
54.64000	275.00000
54.66200	281.00000
54.68400	281.00000
54.70600	269.00000
54.72800	260.00000
54.75000	274.00000
54.77200	270.00000
54.79400	304.00000
54.81600	321.00000
54.83800	272.00000
54.86000	270.00000
54.88200	287.00000
54.90400	281.00000
54.92600	248.00000
54.94800	289.00000
54.97000	250.00000
54.99200	272.00000
55.01400	275.00000
55.03600	268.00000
55.05800	264.00000
55.08000	256.00000
55.10200	285.00000
55.12400	244.00000
55.14600	298.00000
55.16800	320.00000
55.19000	273.00000
55.21200	327.00000
55.23400	318.00000
55.25600	288.00000
55.27800	293.00000
55.30000	295.00000
55.32200	269.00000
55.34400	297.00000
55.36600	341.00000
55.38800	379.00000
55.41000	443.00000
55.43200	494.00000
55.45400	495.00000
55.47600	533.00000
55.49800	538.00000
55.52000	588.00000
55.54200	572.00000
55.56400	558.00000
55.58600	479.00000
55.60800	418.00000
55.63000	394.00000
55.65200	404.00000
55.67400	398.00000
55.69600	342.00000
55.71800	343.00000
55.74000	352.00000
55.76200	323.00000
55.78400	271.00000
55.80600	282.00000
55.82800	287.00000
55.85000	274.00000
55.87200	292.00000
55.89400	267.00000
55.91600	291.00000
55.93800	312.00000
55.96000	266.00000
55.98200	258.00000
56.00400	263.00000
56.02600	283.00000
56.04800	275.00000
56.07000	238.00000
56.09200	271.00000
56.11400	273.00000
56.13600	283.00000
56.15800	276.00000
56.18000	319.00000
56.20200	276.00000
56.22400	307.00000
56.24600	309.00000
56.26800	284.00000
56.29000	303.00000
56.31200	335.00000
56.33400	307.00000
56.35600	366.00000
56.37800	459.00000
56.40000	552.00000
56.42200	638.00000
56.44400	689.00000
56.46600	748.00000
56.48800	746.00000
56.51000	795.00000
56.53200	852.00000
56.55400	801.00000
56.57600	687.00000
56.59800	635.00000
56.62000	538.00000
56.64200	504.00000
56.66400	574.00000
56.68600	488.00000
56.70800	537.00000
56.73000	428.00000
56.75200	383.00000
56.77400	351.00000
56.79600	321.00000
56.81800	294.00000
56.84000	297.00000
56.86200	315.00000
56.88400	266.00000
56.90600	296.00000
56.92800	258.00000
56.95000	277.00000
56.97200	316.00000
56.99400	285.00000
57.01600	292.00000
57.03800	254.00000
57.06000	285.00000
57.08200	259.00000
57.10400	246.00000
57.12600	278.00000
57.14800	241.00000
57.17000	317.00000
57.19200	265.00000
57.21400	282.00000
57.23600	312.00000
57.25800	292.00000
57.28000	277.00000
57.30200	270.00000
57.32400	280.00000
57.34600	266.00000
57.36800	257.00000
57.39000	288.00000
57.41200	256.00000
57.43400	255.00000
57.45600	257.00000
57.47800	264.00000
57.50000	289.00000
57.52200	260.00000
57.54400	279.00000
57.56600	294.00000
57.58800	261.00000
57.61000	289.00000
57.63200	271.00000
57.65400	286.00000
57.67600	259.00000
57.69800	279.00000
57.72000	260.00000
57.74200	259.00000
57.76400	253.00000
57.78600	303.00000
57.80800	284.00000
57.83000	280.00000
57.85200	275.00000
57.87400	280.00000
57.89600	294.00000
57.91800	256.00000
57.94000	306.00000
57.96200	295.00000
57.98400	249.00000
58.00600	301.00000
58.02800	321.00000
58.05000	377.00000
58.07200	424.00000
58.09400	382.00000
58.11600	449.00000
58.13800	449.00000
58.16000	487.00000
58.18200	511.00000
58.20400	545.00000
58.22600	514.00000
58.24800	506.00000
58.27000	463.00000
58.29200	468.00000
58.31400	454.00000
58.33600	473.00000
58.35800	436.00000
58.38000	412.00000
58.40200	422.00000
58.42400	364.00000
58.44600	347.00000
58.46800	358.00000
58.49000	296.00000
58.51200	329.00000
58.53400	297.00000
58.55600	297.00000
58.57800	299.00000
58.60000	272.00000
58.62200	252.00000
58.64400	266.00000
58.66600	270.00000
58.68800	268.00000
58.71000	277.00000
58.73200	284.00000
58.75400	289.00000
58.77600	270.00000
58.79800	268.00000
58.82000	256.00000
58.84200	279.00000
58.86400	284.00000
58.88600	275.00000
58.90800	285.00000
58.93000	279.00000
58.95200	263.00000
58.97400	273.00000
58.99600	290.00000
59.01800	283.00000
59.04000	284.00000
59.06200	281.00000
59.08400	284.00000
59.10600	335.00000
59.12800	349.00000
59.15000	368.00000
59.17200	417.00000
59.19400	463.00000
59.21600	498.00000
59.23800	480.00000
59.26000	518.00000
59.28200	522.00000
59.30400	469.00000
59.32600	439.00000
59.34800	396.00000
59.37000	371.00000
59.39200	354.00000
59.41400	363.00000
59.43600	358.00000
59.45800	317.00000
59.48000	343.00000
59.50200	306.00000
59.52400	302.00000
59.54600	298.00000
59.56800	267.00000
59.59000	301.00000
59.61200	274.00000
59.63400	286.00000
59.65600	253.00000
59.67800	277.00000
59.70000	273.00000
59.72200	271.00000
59.74400	282.00000
59.76600	272.00000
59.78800	260.00000
59.81000	258.00000
59.83200	259.00000
59.85400	290.00000
59.87600	289.00000
59.89800	293.00000
59.92000	263.00000
59.94200	285.00000
59.96400	282.00000
59.98600	270.00000
60.00800	300.00000
60.03000	262.00000
60.05200	271.00000
60.07400	280.00000
60.09600	256.00000
60.11800	270.00000
60.14000	282.00000
60.16200	289.00000
60.18400	280.00000
60.20600	290.00000
60.22800	274.00000
60.25000	278.00000
60.27200	279.00000
60.29400	254.00000
60.31600	292.00000
60.33800	309.00000
60.36000	364.00000
60.38200	376.00000
60.40400	435.00000
60.42600	437.00000
60.44800	528.00000
60.47000	535.00000
60.49200	582.00000
60.51400	581.00000
60.53600	622.00000
60.55800	589.00000
60.58000	602.00000
60.60200	548.00000
60.62400	486.00000
60.64600	393.00000
60.66800	385.00000
60.69000	383.00000
60.71200	390.00000
60.73400	386.00000
60.75600	380.00000
60.77800	335.00000
60.80000	289.00000
60.82200	269.00000
60.84400	302.00000
60.86600	311.00000
60.88800	270.00000
60.91000	262.00000
60.93200	249.00000
60.95400	290.00000
60.97600	263.00000
60.99800	304.00000
61.02000	310.00000
61.04200	282.00000
61.06400	299.00000
61.08600	259.00000
61.10800	249.00000
61.13000	290.00000
61.15200	279.00000
61.17400	298.00000
61.19600	287.00000
61.21800	272.00000
61.24000	276.00000
61.26200	244.00000
61.28400	325.00000
61.30600	315.00000
61.32800	325.00000
61.35000	337.00000
61.37200	329.00000
61.39400	328.00000
61.41600	316.00000
61.43800	322.00000
61.46000	289.00000
61.48200	320.00000
61.50400	295.00000
61.52600	286.00000
61.54800	318.00000
61.57000	334.00000
61.59200	395.00000
61.61400	399.00000
61.63600	431.00000
61.65800	507.00000
61.68000	540.00000
61.70200	623.00000
61.72400	700.00000
61.74600	750.00000
61.76800	775.00000
61.79000	802.00000
61.81200	800.00000
61.83400	721.00000
61.85600	666.00000
61.87800	632.00000
61.90000	583.00000
61.92200	533.00000
61.94400	492.00000
61.96600	464.00000
61.98800	432.00000
62.01000	426.00000
62.03200	396.00000
62.05400	359.00000
62.07600	298.00000
62.09800	272.00000
62.12000	304.00000
62.14200	282.00000
62.16400	292.00000
62.18600	279.00000
62.20800	315.00000
62.23000	281.00000
62.25200	302.00000
62.27400	286.00000
62.29600	307.00000
62.31800	341.00000
62.34000	310.00000
62.36200	312.00000
62.38400	316.00000
62.40600	273.00000
62.42800	302.00000
62.45000	263.00000
62.47200	297.00000
62.49400	262.00000
62.51600	250.00000
62.53800	283.00000
62.56000	252.00000
62.58200	250.00000
62.60400	278.00000
62.62600	252.00000
62.64800	251.00000
62.67000	238.00000
62.69200	280.00000
62.71400	289.00000
62.73600	268.00000
62.75800	258.00000
62.78000	295.00000
62.80200	264.00000
62.82400	257.00000
62.84600	280.00000
62.86800	255.00000
62.89000	298.00000
62.91200	297.00000
62.93400	312.00000
62.95600	323.00000
62.97800	354.00000
63.00000	305.00000
63.02200	320.00000
63.04400	286.00000
63.06600	309.00000
63.08800	284.00000
63.11000	300.00000
63.13200	305.00000
63.15400	312.00000
63.17600	315.00000
63.19800	343.00000
63.22000	332.00000
63.24200	378.00000
63.26400	363.00000
63.28600	372.00000
63.30800	373.00000
63.33000	347.00000
63.35200	353.00000
63.37400	363.00000
63.39600	362.00000
63.41800	394.00000
63.44000	407.00000
63.46200	360.00000
63.48400	394.00000
63.50600	401.00000
63.52800	348.00000
63.55000	320.00000
63.57200	273.00000
63.59400	307.00000
63.61600	307.00000
63.63800	307.00000
63.66000	281.00000
63.68200	266.00000
63.70400	283.00000
63.72600	270.00000
63.74800	274.00000
63.77000	256.00000
63.79200	241.00000
63.81400	270.00000
63.83600	281.00000
63.85800	261.00000
63.88000	242.00000
63.90200	271.00000
63.92400	290.00000
63.94600	247.00000
63.96800	291.00000
63.99000	273.00000
64.01200	247.00000
64.03400	235.00000
64.05600	268.00000
64.07800	282.00000
64.10000	266.00000
64.12200	276.00000
64.14400	242.00000
64.16600	275.00000
64.18800	238.00000
64.21000	271.00000
64.23200	267.00000
64.25400	244.00000
64.27600	237.00000
64.29800	269.00000
64.32000	251.00000
64.34200	268.00000
64.36400	228.00000
64.38600	255.00000
64.40800	235.00000
64.43000	262.00000
64.45200	258.00000
64.47400	248.00000
64.49600	242.00000
64.51800	271.00000
64.54000	242.00000
64.56200	298.00000
64.58400	244.00000
64.60600	222.00000
64.62800	245.00000
64.65000	265.00000
64.67200	261.00000
64.69400	264.00000
64.71600	248.00000
64.73800	259.00000
64.76000	216.00000
64.78200	274.00000
64.80400	235.00000
64.82600	264.00000
64.84800	245.00000
64.87000	244.00000
64.89200	239.00000
64.91400	281.00000
64.93600	282.00000
64.95800	269.00000
64.98000	255.00000
65.00200	284.00000
65.02400	301.00000
65.04600	361.00000
65.06800	353.00000
65.09000	356.00000
65.11200	334.00000
65.13400	367.00000
65.15600	355.00000
65.17800	363.00000
65.20000	378.00000
65.22200	389.00000
65.24400	373.00000
65.26600	360.00000
65.28800	353.00000
65.31000	316.00000
65.33200	326.00000
65.35400	298.00000
65.37600	305.00000
65.39800	306.00000
65.42000	303.00000
65.44200	297.00000
65.46400	312.00000
65.48600	293.00000
65.50800	279.00000
65.53000	279.00000
65.55200	264.00000
65.57400	257.00000
65.59600	227.00000
65.61800	284.00000
65.64000	250.00000
65.66200	275.00000
65.68400	279.00000
65.70600	278.00000
65.72800	251.00000
65.75000	227.00000
65.77200	261.00000
65.79400	248.00000
65.81600	259.00000
65.83800	272.00000
65.86000	274.00000
65.88200	307.00000
65.90400	293.00000
65.92600	319.00000
65.94800	332.00000
65.97000	353.00000
65.99200	361.00000
66.01400	312.00000
66.03600	348.00000
66.05800	331.00000
66.08000	313.00000
66.10200	282.00000
66.12400	283.00000
66.14600	310.00000
66.16800	317.00000
66.19000	272.00000
66.21200	306.00000
66.23400	310.00000
66.25600	302.00000
66.27800	264.00000
66.30000	286.00000
66.32200	294.00000
66.34400	295.00000
66.36600	293.00000
66.38800	290.00000
66.41000	272.00000
66.43200	264.00000
66.45400	251.00000
66.47600	272.00000
66.49800	259.00000
66.52000	311.00000
66.54200	277.00000
66.56400	259.00000
66.58600	256.00000
66.60800	263.00000
66.63000	237.00000
66.65200	258.00000
66.67400	260.00000
66.69600	309.00000
66.71800	326.00000
66.74000	337.00000
66.76200	362.00000
66.78400	428.00000
66.80600	429.00000
66.82800	456.00000
66.85000	471.00000
66.87200	469.00000
66.89400	478.00000
66.91600	489.00000
66.93800	425.00000
66.96000	331.00000
66.98200	341.00000
67.00400	346.00000
67.02600	385.00000
67.04800	362.00000
67.07000	318.00000
67.09200	322.00000
67.11400	335.00000
67.13600	291.00000
67.15800	292.00000
67.18000	299.00000
67.20200	303.00000
67.22400	285.00000
67.24600	276.00000
67.26800	308.00000
67.29000	362.00000
67.31200	340.00000
67.33400	370.00000
67.35600	357.00000
67.37800	357.00000
67.40000	339.00000
67.42200	347.00000
67.44400	296.00000
67.46600	302.00000
67.48800	297.00000
67.51000	339.00000
67.53200	372.00000
67.55400	322.00000
67.57600	297.00000
67.59800	286.00000
67.62000	250.00000
67.64200	294.00000
67.66400	255.00000
67.68600	267.00000
67.70800	243.00000
67.73000	266.00000
67.75200	250.00000
67.77400	257.00000
67.79600	235.00000
67.81800	252.00000
67.84000	260.00000
67.86200	264.00000
67.88400	254.00000
67.90600	266.00000
67.92800	240.00000
67.95000	245.00000
67.97200	245.00000
67.99400	238.00000
68.01600	265.00000
68.03800	252.00000
68.06000	237.00000
68.08200	237.00000
68.10400	242.00000
68.12600	250.00000
68.14800	217.00000
68.17000	273.00000
68.19200	234.00000
68.21400	263.00000
68.23600	214.00000
68.25800	235.00000
68.28000	267.00000
68.30200	240.00000
68.32400	216.00000
68.34600	223.00000
68.36800	255.00000
68.39000	235.00000
68.41200	272.00000
68.43400	272.00000
68.45600	246.00000
68.47800	251.00000
68.50000	237.00000
68.52200	248.00000
68.54400	243.00000
68.56600	240.00000
68.58800	272.00000
68.61000	238.00000
68.63200	212.00000
68.65400	248.00000
68.67600	257.00000
68.69800	262.00000
68.72000	248.00000
68.74200	247.00000
68.76400	230.00000
68.78600	221.00000
68.80800	235.00000
68.83000	237.00000
68.85200	218.00000
68.87400	235.00000
68.89600	236.00000
68.91800	213.00000
68.94000	237.00000
68.96200	251.00000
68.98400	257.00000
69.00600	239.00000
69.02800	242.00000
69.05000	245.00000
69.07200	230.00000
69.09400	210.00000
69.11600	230.00000
69.13800	221.00000
69.16000	243.00000
69.18200	251.00000
69.20400	269.00000
69.22600	269.00000
69.24800	278.00000
69.27000	275.00000
69.29200	303.00000
69.31400	336.00000
69.33600	325.00000
69.35800	301.00000
69.38000	269.00000
69.40200	306.00000
69.42400	289.00000
69.44600	286.00000
69.46800	272.00000
69.49000	271.00000
69.51200	285.00000
69.53400	308.00000
69.55600	295.00000
69.57800	275.00000
69.60000	287.00000
69.62200	313.00000
69.64400	305.00000
69.66600	291.00000
69.68800	335.00000
69.71000	329.00000
69.73200	366.00000
69.75400	283.00000
69.77600	320.00000
69.79800	302.00000
69.82000	272.00000
69.84200	273.00000
69.86400	277.00000
69.88600	318.00000
69.90800	313.00000
69.93000	319.00000
69.95200	331.00000
69.97400	324.00000
69.99600	329.00000
70.01800	319.00000
70.04000	301.00000
70.06200	285.00000
70.08400	270.00000
70.10600	252.00000
70.12800	281.00000
70.15000	262.00000
70.17200	289.00000
70.19400	326.00000
70.21600	280.00000
70.23800	306.00000
70.26000	269.00000
70.28200	354.00000
70.30400	306.00000
70.32600	324.00000
70.34800	311.00000
70.37000	343.00000
70.39200	293.00000
70.41400	304.00000
70.43600	274.00000
70.45800	292.00000
70.48000	300.00000
70.50200	337.00000
70.52400	322.00000
70.54600	316.00000
70.56800	343.00000
70.59000	356.00000
70.61200	325.00000
70.63400	346.00000
70.65600	336.00000
70.67800	265.00000
70.70000	277.00000
70.72200	259.00000
70.74400	247.00000
70.76600	248.00000
70.78800	245.00000
70.81000	270.00000
70.83200	293.00000
70.85400	259.00000
70.87600	258.00000
70.89800	225.00000
70.92000	231.00000
70.94200	227.00000
70.96400	230.00000
70.98600	251.00000
71.00800	233.00000
71.03000	240.00000
71.05200	219.00000
71.07400	233.00000
71.09600	228.00000
71.11800	246.00000
71.14000	268.00000
71.16200	252.00000
71.18400	240.00000
71.20600	211.00000
71.22800	217.00000
71.25000	255.00000
71.27200	220.00000
71.29400	248.00000
71.31600	244.00000
71.33800	230.00000
71.36000	229.00000
71.38200	261.00000
71.40400	243.00000
71.42600	244.00000
71.44800	238.00000
71.47000	210.00000
71.49200	223.00000
71.51400	224.00000
71.53600	243.00000
71.55800	247.00000
71.58000	255.00000
71.60200	301.00000
71.62400	297.00000
71.64600	315.00000
71.66800	344.00000
71.69000	330.00000
71.71200	337.00000
71.73400	367.00000
71.75600	323.00000
71.77800	314.00000
71.80000	268.00000
71.82200	269.00000
71.84400	283.00000
71.86600	275.00000
71.88800	296.00000
71.91000	293.00000
71.93200	310.00000
71.95400	270.00000
71.97600	262.00000
71.99800	254.00000
72.02000	231.00000
72.04200	303.00000
72.06400	240.00000
72.08600	266.00000
72.10800	253.00000
72.13000	251.00000
72.15200	244.00000
72.17400	228.00000
72.19600	205.00000
72.21800	243.00000
72.24000	225.00000
72.26200	237.00000
72.28400	215.00000
72.30600	246.00000
72.32800	253.00000
72.35000	236.00000
72.37200	242.00000
72.39400	227.00000
72.41600	211.00000
72.43800	235.00000
72.46000	231.00000
72.48200	223.00000
72.50400	227.00000
72.52600	219.00000
72.54800	226.00000
72.57000	245.00000
72.59200	222.00000
72.61400	243.00000
72.63600	214.00000
72.65800	227.00000
72.68000	210.00000
72.70200	215.00000
72.72400	201.00000
72.74600	228.00000
72.76800	237.00000
72.79000	219.00000
72.81200	229.00000
72.83400	225.00000
72.85600	236.00000
72.87800	215.00000
72.90000	237.00000
72.92200	224.00000
72.94400	226.00000
72.96600	240.00000
72.98800	260.00000
73.01000	262.00000
73.03200	225.00000
73.05400	240.00000
73.07600	234.00000
73.09800	238.00000
73.12000	247.00000
73.14200	259.00000
73.16400	334.00000
73.18600	326.00000
73.20800	349.00000
73.23000	354.00000
73.25200	396.00000
73.27400	395.00000
73.29600	393.00000
73.31800	353.00000
73.34000	314.00000
73.36200	306.00000
73.38400	300.00000
73.40600	295.00000
73.42800	308.00000
73.45000	324.00000
73.47200	305.00000
73.49400	311.00000
73.51600	288.00000
73.53800	271.00000
73.56000	253.00000
73.58200	268.00000
73.60400	249.00000
73.62600	222.00000
73.64800	264.00000
73.67000	253.00000
73.69200	235.00000
73.71400	239.00000
73.73600	228.00000
73.75800	235.00000
73.78000	226.00000
73.80200	242.00000
73.82400	237.00000
73.84600	217.00000
73.86800	247.00000
73.89000	232.00000
73.91200	218.00000
73.93400	236.00000
73.95600	210.00000
73.97800	225.00000
74.00000	232.00000
74.02200	225.00000
74.04400	235.00000
74.06600	229.00000
74.08800	232.00000
74.11000	254.00000
74.13200	217.00000
74.15400	240.00000
74.17600	231.00000
74.19800	256.00000
74.22000	274.00000
74.24200	262.00000
74.26400	301.00000
74.28600	297.00000
74.30800	296.00000
74.33000	339.00000
74.35200	324.00000
74.37400	294.00000
74.39600	301.00000
74.41800	255.00000
74.44000	278.00000
74.46200	263.00000
74.48400	237.00000
74.50600	274.00000
74.52800	296.00000
74.55000	299.00000
74.57200	277.00000
74.59400	298.00000
74.61600	313.00000
74.63800	306.00000
74.66000	246.00000
74.68200	319.00000
74.70400	271.00000
74.72600	293.00000
74.74800	299.00000
74.77000	259.00000
74.79200	257.00000
74.81400	258.00000
74.83600	264.00000
74.85800	248.00000
74.88000	233.00000
74.90200	274.00000
74.92400	289.00000
74.94600	263.00000
74.96800	226.00000
74.99000	235.00000
75.01200	244.00000
75.03400	219.00000
75.05600	243.00000
75.07800	254.00000
75.10000	236.00000
75.12200	234.00000
75.14400	275.00000
75.16600	281.00000
75.18800	285.00000
75.21000	320.00000
75.23200	309.00000
75.25400	275.00000
75.27600	345.00000
75.29800	374.00000
75.32000	357.00000
75.34200	338.00000
75.36400	309.00000
75.38600	332.00000
75.40800	269.00000
75.43000	336.00000
75.45200	342.00000
75.47400	348.00000
75.49600	392.00000
75.51800	352.00000
75.54000	394.00000
75.56200	413.00000
75.58400	360.00000
75.60600	294.00000
75.62800	285.00000
75.65000	282.00000
75.67200	253.00000
75.69400	304.00000
75.71600	274.00000
75.73800	253.00000
75.76000	277.00000
75.78200	298.00000
75.80400	263.00000
75.82600	239.00000
75.84800	257.00000
75.87000	262.00000
75.89200	244.00000
75.91400	257.00000
75.93600	230.00000
75.95800	241.00000
75.98000	254.00000
76.00200	256.00000
76.02400	222.00000
76.04600	202.00000
76.06800	233.00000
76.09000	229.00000
76.11200	223.00000
76.13400	220.00000
76.15600	245.00000
76.17800	199.00000
76.20000	245.00000
76.22200	235.00000
76.24400	247.00000
76.26600	235.00000
76.28800	252.00000
76.31000	224.00000
76.33200	265.00000
76.35400	259.00000
76.37600	242.00000
76.39800	264.00000
76.42000	263.00000
76.44200	245.00000
76.46400	260.00000
76.48600	259.00000
76.50800	231.00000
76.53000	219.00000
76.55200	217.00000
76.57400	246.00000
76.59600	259.00000
76.61800	220.00000
76.64000	252.00000
76.66200	262.00000
76.68400	265.00000
76.70600	287.00000
76.72800	306.00000
76.75000	313.00000
76.77200	335.00000
76.79400	314.00000
76.81600	337.00000
76.83800	305.00000
76.86000	302.00000
76.88200	314.00000
76.90400	258.00000
76.92600	234.00000
76.94800	252.00000
76.97000	250.00000
76.99200	286.00000
77.01400	234.00000
77.03600	262.00000
77.05800	258.00000
77.08000	250.00000
77.10200	281.00000
77.12400	230.00000
77.14600	224.00000
77.16800	209.00000
77.19000	217.00000
77.21200	224.00000
77.23400	247.00000
77.25600	205.00000
77.27800	232.00000
77.30000	232.00000
77.32200	228.00000
77.34400	231.00000
77.36600	219.00000
77.38800	256.00000
77.41000	242.00000
77.43200	234.00000
77.45400	241.00000
77.47600	219.00000
77.49800	238.00000
77.52000	230.00000
77.54200	279.00000
77.56400	270.00000
77.58600	263.00000
77.60800	223.00000
77.63000	237.00000
77.65200	213.00000
77.67400	250.00000
77.69600	222.00000
77.71800	225.00000
77.74000	219.00000
77.76200	227.00000
77.78400	243.00000
77.80600	255.00000
77.82800	252.00000
77.85000	229.00000
77.87200	209.00000
77.89400	222.00000
77.91600	244.00000
77.93800	194.00000
77.96000	230.00000
77.98200	249.00000
78.00400	202.00000
78.02600	260.00000
78.04800	224.00000
78.07000	257.00000
78.09200	250.00000
78.11400	259.00000
78.13600	305.00000
78.15800	280.00000
78.18000	300.00000
78.20200	336.00000
78.22400	298.00000
78.24600	256.00000
78.26800	248.00000
78.29000	232.00000
78.31200	261.00000
78.33400	249.00000
78.35600	230.00000
78.37800	260.00000
78.40000	248.00000
78.42200	244.00000
78.44400	244.00000
78.46600	259.00000
78.48800	234.00000
78.51000	234.00000
78.53200	236.00000
78.55400	221.00000
78.57600	241.00000
78.59800	239.00000
78.62000	253.00000
78.64200	227.00000
78.66400	246.00000
78.68600	204.00000
78.70800	249.00000
78.73000	193.00000
78.75200	203.00000
78.77400	214.00000
78.79600	221.00000
78.81800	230.00000
78.84000	227.00000
78.86200	244.00000
78.88400	219.00000
78.90600	269.00000
78.92800	259.00000
78.95000	306.00000
78.97200	314.00000
78.99400	344.00000
79.01600	320.00000
79.03800	310.00000
79.06000	302.00000
79.08200	275.00000
79.10400	256.00000
79.12600	242.00000
79.14800	265.00000
79.17000	255.00000
79.19200	247.00000
79.21400	261.00000
79.23600	281.00000
79.25800	261.00000
79.28000	312.00000
79.30200	269.00000
79.32400	283.00000
79.34600	228.00000
79.36800	234.00000
79.39000	254.00000
79.41200	276.00000
79.43400	269.00000
79.45600	289.00000
79.47800	217.00000
79.50000	251.00000
79.52200	235.00000
79.54400	222.00000
79.56600	222.00000
79.58800	216.00000
79.61000	235.00000
79.63200	232.00000
79.65400	227.00000
79.67600	237.00000
79.69800	241.00000
79.72000	223.00000
79.74200	210.00000
79.76400	202.00000
79.78600	235.00000
79.80800	226.00000
79.83000	214.00000
79.85200	204.00000
79.87400	233.00000
79.89600	229.00000
79.91800	207.00000
79.94000	240.00000
79.96200	200.00000
79.98400	238.00000
80.00600	228.00000
80.02800	211.00000
80.05000	212.00000
80.07200	198.00000
80.09400	215.00000
80.11600	226.00000
80.13800	199.00000
80.16000	216.00000
80.18200	203.00000
80.20400	264.00000
80.22600	223.00000
80.24800	196.00000
80.27000	191.00000
80.29200	211.00000
80.31400	190.00000
80.33600	207.00000
80.35800	197.00000
80.38000	249.00000
80.40200	220.00000
80.42400	206.00000
80.44600	250.00000
80.46800	206.00000
80.49000	207.00000
80.51200	229.00000
80.53400	207.00000
80.55600	200.00000
80.57800	241.00000
80.60000	221.00000
80.62200	231.00000
80.64400	228.00000
80.66600	238.00000
80.68800	213.00000
80.71000	214.00000
80.73200	222.00000
80.75400	207.00000
80.77600	246.00000
80.79800	244.00000
80.82000	234.00000
80.84200	246.00000
80.86400	223.00000
80.88600	283.00000
80.90800	251.00000
80.93000	284.00000
80.95200	257.00000
80.97400	311.00000
80.99600	267.00000
81.01800	272.00000
81.04000	265.00000
81.06200	320.00000
81.08400	312.00000
81.10600	334.00000
81.12800	297.00000
81.15000	277.00000
81.17200	300.00000
81.19400	341.00000
81.21600	259.00000
81.23800	278.00000
81.26000	272.00000
81.28200	286.00000
81.30400	292.00000
81.32600	255.00000
81.34800	260.00000
81.37000	304.00000
81.39200	240.00000
81.41400	283.00000
81.43600	238.00000
81.45800	251.00000
81.48000	239.00000
81.50200	241.00000
81.52400	238.00000
81.54600	223.00000
81.56800	206.00000
81.59000	230.00000
81.61200	234.00000
81.63400	223.00000
81.65600	223.00000
81.67800	281.00000
81.70000	254.00000
81.72200	267.00000
81.74400	237.00000
81.76600	258.00000
81.78800	245.00000
81.81000	248.00000
81.83200	266.00000
81.85400	246.00000
81.87600	262.00000
81.89800	251.00000
81.92000	228.00000
81.94200	226.00000
81.96400	230.00000
81.98600	237.00000
82.00800	295.00000
82.03000	278.00000
82.05200	258.00000
82.07400	267.00000
82.09600	239.00000
82.11800	253.00000
82.14000	219.00000
82.16200	216.00000
82.18400	198.00000
82.20600	228.00000
82.22800	239.00000
82.25000	238.00000
82.27200	212.00000
82.29400	204.00000
82.31600	214.00000
82.33800	201.00000
82.36000	223.00000
82.38200	232.00000
82.40400	206.00000
82.42600	231.00000
82.44800	223.00000
82.47000	205.00000
82.49200	211.00000
82.51400	241.00000
82.53600	202.00000
82.55800	209.00000
82.58000	200.00000
82.60200	225.00000
82.62400	246.00000
82.64600	210.00000
82.66800	252.00000
82.69000	211.00000
82.71200	228.00000
82.73400	211.00000
82.75600	217.00000
82.77800	225.00000
82.80000	251.00000
82.82200	241.00000
82.84400	196.00000
82.86600	225.00000
82.88800	231.00000
82.91000	239.00000
82.93200	238.00000
82.95400	248.00000
82.97600	236.00000
82.99800	208.00000
83.02000	256.00000
83.04200	210.00000
83.06400	216.00000
83.08600	238.00000
83.10800	219.00000
83.13000	242.00000
83.15200	234.00000
83.17400	245.00000
83.19600	248.00000
83.21800	241.00000
83.24000	233.00000
83.26200	260.00000
83.28400	252.00000
83.30600	294.00000
83.32800	305.00000
83.35000	298.00000
83.37200	313.00000
83.39400	302.00000
83.41600	306.00000
83.43800	292.00000
83.46000	271.00000
83.48200	262.00000
83.50400	278.00000
83.52600	257.00000
83.54800	248.00000
83.57000	273.00000
83.59200	261.00000
83.61400	282.00000
83.63600	288.00000
83.65800	264.00000
83.68000	270.00000
83.70200	275.00000
83.72400	254.00000
83.74600	249.00000
83.76800	247.00000
83.79000	259.00000
83.81200	252.00000
83.83400	281.00000
83.85600	297.00000
83.87800	281.00000
83.90000	317.00000
83.92200	337.00000
83.94400	320.00000
83.96600	350.00000
83.98800	370.00000
84.01000	355.00000
84.03200	278.00000
84.05400	248.00000
84.07600	247.00000
84.09800	265.00000
84.12000	236.00000
84.14200	243.00000
84.16400	237.00000
84.18600	262.00000
84.20800	258.00000
84.23000	246.00000
84.25200	258.00000
84.27400	269.00000
84.29600	228.00000
84.31800	228.00000
84.34000	246.00000
84.36200	213.00000
84.38400	208.00000
84.40600	213.00000
84.42800	224.00000
84.45000	241.00000
84.47200	250.00000
84.49400	222.00000
84.51600	238.00000
84.53800	227.00000
84.56000	233.00000
84.58200	227.00000
84.60400	217.00000
84.62600	207.00000
84.64800	223.00000
84.67000	216.00000
84.69200	207.00000
84.71400	253.00000
84.73600	238.00000
84.75800	240.00000
84.78000	240.00000
84.80200	200.00000
84.82400	229.00000
84.84600	215.00000
84.86800	206.00000
84.89000	232.00000
84.91200	213.00000
84.93400	214.00000
84.95600	174.00000
84.97800	229.00000
85.00000	215.00000
85.02200	222.00000
85.04400	225.00000
85.06600	221.00000
85.08800	189.00000
85.11000	221.00000
85.13200	217.00000
85.15400	226.00000
85.17600	237.00000
85.19800	239.00000
85.22000	226.00000
85.24200	211.00000
85.26400	220.00000
85.28600	247.00000
85.30800	251.00000
85.33000	246.00000
85.35200	233.00000
85.37400	217.00000
85.39600	253.00000
85.41800	240.00000
85.44000	257.00000
85.46200	262.00000
85.48400	230.00000
85.50600	252.00000
85.52800	221.00000
85.55000	238.00000
85.57200	269.00000
85.59400	252.00000
85.61600	251.00000
85.63800	202.00000
85.66000	203.00000
85.68200	200.00000
85.70400	209.00000
85.72600	225.00000
85.74800	216.00000
85.77000	225.00000
85.79200	228.00000
85.81400	196.00000
85.83600	228.00000
85.85800	209.00000
85.88000	196.00000
85.90200	229.00000
85.92400	207.00000
85.94600	239.00000
85.96800	271.00000
85.99000	244.00000
86.01200	220.00000
86.03400	248.00000
86.05600	246.00000
86.07800	289.00000
86.10000	244.00000
86.12200	254.00000
86.14400	252.00000
86.16600	217.00000
86.18800	246.00000
86.21000	219.00000
86.23200	238.00000
86.25400	259.00000
86.27600	223.00000
86.29800	242.00000
86.32000	252.00000
86.34200	269.00000
86.36400	234.00000
86.38600	218.00000
86.40800	216.00000
86.43000	179.00000
86.45200	197.00000
86.47400	239.00000
86.49600	230.00000
86.51800	252.00000
86.54000	234.00000
86.56200	237.00000
86.58400	215.00000
86.60600	218.00000
86.62800	188.00000
86.65000	212.00000
86.67200	226.00000
86.69400	231.00000
86.71600	226.00000
86.73800	225.00000
86.76000	231.00000
86.78200	260.00000
86.80400	236.00000
86.82600	219.00000
86.84800	204.00000
86.87000	200.00000
86.89200	225.00000
86.91400	204.00000
86.93600	215.00000
86.95800	220.00000
86.98000	231.00000
87.00200	234.00000
87.02400	212.00000
87.04600	222.00000
87.06800	256.00000
87.09000	236.00000
87.11200	278.00000
87.13400	232.00000
87.15600	225.00000
87.17800	253.00000
87.20000	235.00000
87.22200	204.00000
87.24400	219.00000
87.26600	212.00000
87.28800	222.00000
87.31000	246.00000
87.33200	218.00000
87.35400	223.00000
87.37600	208.00000
87.39800	231.00000
87.42000	233.00000
87.44200	242.00000
87.46400	244.00000
87.48600	224.00000
87.50800	212.00000
87.53000	216.00000
87.55200	227.00000
87.57400	212.00000
87.59600	262.00000
87.61800	224.00000
87.64000	204.00000
87.66200	227.00000
87.68400	240.00000
87.70600	241.00000
87.72800	254.00000
87.75000	240.00000
87.77200	252.00000
87.79400	289.00000
87.81600	260.00000
87.83800	262.00000
87.86000	239.00000
87.88200	227.00000
87.90400	254.00000
87.92600	213.00000
87.94800	215.00000
87.97000	243.00000
87.99200	219.00000
88.01400	220.00000
88.03600	228.00000
88.05800	250.00000
88.08000	231.00000
88.10200	221.00000
88.12400	224.00000
88.14600	243.00000
88.16800	225.00000
88.19000	241.00000
88.21200	236.00000
88.23400	234.00000
88.25600	196.00000
88.27800	201.00000
88.30000	220.00000
88.32200	206.00000
88.34400	232.00000
88.36600	209.00000
88.38800	233.00000
88.41000	247.00000
88.43200	207.00000
88.45400	229.00000
88.47600	214.00000
88.49800	233.00000
88.52000	233.00000
88.54200	228.00000
88.56400	200.00000
88.58600	204.00000
88.60800	218.00000
88.63000	213.00000
88.65200	240.00000
88.67400	225.00000
88.69600	229.00000
88.71800	222.00000
88.74000	223.00000
88.76200	200.00000
88.78400	222.00000
88.80600	218.00000
88.82800	226.00000
88.85000	204.00000
88.87200	230.00000
88.89400	239.00000
88.91600	212.00000
88.93800	243.00000
88.96000	228.00000
88.98200	234.00000
89.00400	228.00000
89.02600	202.00000
89.04800	230.00000
89.07000	260.00000
89.09200	256.00000
89.11400	250.00000
89.13600	237.00000
89.15800	222.00000
89.18000	220.00000
89.20200	255.00000
89.22400	280.00000
89.24600	276.00000
89.26800	247.00000
89.29000	239.00000
89.31200	242.00000
89.33400	231.00000
89.35600	270.00000
89.37800	234.00000
89.40000	244.00000
89.42200	201.00000
89.44400	268.00000
89.46600	258.00000
89.48800	246.00000
89.51000	270.00000
89.53200	249.00000
89.55400	308.00000
89.57600	279.00000
89.59800	295.00000
89.62000	279.00000
89.64200	311.00000
89.66400	260.00000
89.68600	227.00000
89.70800	259.00000
89.73000	253.00000
89.75200	218.00000
89.77400	255.00000
89.79600	241.00000
89.81800	253.00000
89.84000	244.00000
89.86200	229.00000
89.88400	249.00000
89.90600	230.00000
89.92800	272.00000
89.95000	261.00000
89.97200	219.00000
89.99400	236.00000
