6.00000	200.13882
6.01000	219.29701
6.02000	250.45923
6.03000	242.62546
6.04000	228.79565
6.05000	227.96976
6.06000	237.14774
6.07000	218.32957
6.08000	180.51518
6.09000	199.70456
6.10000	229.89765
6.11000	241.09441
6.12000	245.29480
6.13000	251.49878
6.14000	241.70632
6.15000	237.91736
6.16000	251.13187
6.17000	230.34981
6.18000	227.57113
6.19000	223.79580
6.20000	224.02377
6.21000	242.25501
6.22000	252.48947
6.23000	255.72711
6.24000	243.96788
6.25000	244.21176
6.26000	252.45870
6.27000	245.70865
6.28000	229.96158
6.29000	224.21744
6.30000	229.47619
6.31000	236.73780
6.32000	232.00223
6.33000	224.26942
6.34000	235.53934
6.35000	232.81195
6.36000	237.08721
6.37000	237.36507
6.38000	221.64550
6.39000	208.92846
6.40000	198.21390
6.41000	212.50178
6.42000	244.79206
6.43000	251.08470
6.44000	220.37967
6.45000	212.67691
6.46000	240.97639
6.47000	275.27807
6.48000	290.58190
6.49000	271.88785
6.50000	246.19587
6.51000	238.50592
6.52000	220.81796
6.53000	217.13196
6.54000	221.44786
6.55000	224.76564
6.56000	212.08524
6.57000	193.40662
6.58000	200.72976
6.59000	212.05460
6.60000	217.38110
6.61000	219.70922
6.62000	205.03892
6.63000	203.37017
6.64000	217.70291
6.65000	234.03712
6.66000	256.37274
6.67000	258.70973
6.68000	231.04807
6.69000	227.38769
6.70000	248.72857
6.71000	256.07067
6.72000	245.41393
6.73000	238.75832
6.74000	215.10381
6.75000	193.45034
6.76000	195.79788
6.77000	206.14638
6.78000	222.49582
6.79000	223.84613
6.80000	224.19729
6.81000	243.54925
6.82000	237.90197
6.83000	218.25541
6.84000	222.60954
6.85000	237.96430
6.86000	250.31965
6.87000	245.67557
6.88000	236.03199
6.89000	239.38890
6.90000	255.74623
6.91000	249.10396
6.92000	243.46204
6.93000	257.82043
6.94000	247.17909
6.95000	226.53797
6.96000	217.89705
6.97000	225.25626
6.98000	258.61559
6.99000	265.97498
7.00000	243.33439
7.01000	232.69378
7.02000	249.05312
7.03000	274.41235
7.04000	268.77145
7.05000	247.13036
7.06000	254.48905
7.07000	253.84747
7.08000	249.20559
7.09000	244.56337
7.10000	248.92075
7.11000	240.27771
7.12000	234.63420
7.13000	242.99018
7.14000	241.34561
7.15000	251.70045
7.16000	257.05465
7.17000	253.40818
7.18000	249.76099
7.19000	240.11305
7.20000	237.46431
7.21000	233.81473
7.22000	219.16428
7.23000	232.51290
7.24000	236.86056
7.25000	230.20722
7.26000	227.55284
7.27000	241.89737
7.28000	256.24078
7.29000	251.58302
7.30000	261.92405
7.31000	282.26384
7.32000	262.60233
7.33000	250.93950
7.34000	264.27529
7.35000	268.60968
7.36000	279.94261
7.37000	242.27404
7.38000	217.60394
7.39000	235.93226
7.40000	236.25897
7.41000	251.58401
7.42000	251.90736
7.43000	238.22897
7.44000	245.54880
7.45000	241.86680
7.46000	227.18294
7.47000	220.49717
7.48000	237.80946
7.49000	251.11977
7.50000	258.42804
7.51000	269.73425
7.52000	260.03835
7.53000	243.34030
7.54000	238.64005
7.55000	244.93758
7.56000	251.23283
7.57000	247.52576
7.58000	228.81634
7.59000	224.10453
7.60000	226.39027
7.61000	229.67354
7.62000	240.95429
7.63000	231.23247
7.64000	230.50806
7.65000	217.78100
7.66000	201.05126
7.67000	198.31879
7.68000	213.58356
7.69000	215.84553
7.70000	232.10464
7.71000	245.36087
7.72000	245.61416
7.73000	233.86449
7.74000	216.11180
7.75000	227.35606
7.76000	243.59723
7.77000	264.83526
7.78000	275.07012
7.79000	271.30176
7.80000	287.53014
7.81000	302.75522
7.82000	280.97696
7.83000	257.19533
7.84000	249.41027
7.85000	271.62174
7.86000	256.82972
7.87000	237.03415
7.88000	240.23499
7.89000	233.43221
7.90000	230.62575
7.91000	235.81559
7.92000	236.00168
7.93000	232.18398
7.94000	235.36245
7.95000	243.53704
7.96000	272.70772
7.97000	292.87445
7.98000	297.03717
7.99000	296.19587
8.00000	303.35048
8.01000	303.50097
8.02000	294.64731
8.03000	301.78944
8.04000	295.92733
8.05000	327.06094
8.06000	336.19023
8.07000	320.31515
8.08000	343.43566
8.09000	382.55172
8.10000	419.66330
8.11000	408.77035
8.12000	409.87283
8.13000	417.97070
8.14000	423.06391
8.15000	419.15243
8.16000	438.23622
8.17000	463.31524
8.18000	449.38943
8.19000	430.45877
8.20000	436.52321
8.21000	456.58271
8.22000	450.63724
8.23000	430.68674
8.24000	435.73117
8.25000	452.77051
8.26000	423.80470
8.27000	400.83370
8.28000	407.85748
8.29000	404.87599
8.30000	408.88920
8.31000	397.89705
8.32000	387.89951
8.33000	379.89655
8.34000	369.88811
8.35000	372.87415
8.36000	352.85464
8.37000	340.82954
8.38000	340.79880
8.39000	333.76238
8.40000	333.72025
8.41000	327.67235
8.42000	309.61866
8.43000	297.55912
8.44000	292.49370
8.45000	295.42236
8.46000	293.34505
8.47000	294.26173
8.48000	301.17237
8.49000	291.07693
8.50000	284.97535
8.51000	269.86761
8.52000	255.75365
8.53000	251.63344
8.54000	254.50694
8.55000	249.37411
8.56000	248.23490
8.57000	258.08928
8.58000	268.93719
8.59000	273.77862
8.60000	272.61350
8.61000	273.44180
8.62000	265.26348
8.63000	262.07851
8.64000	244.88682
8.65000	238.68840
8.66000	255.48319
8.67000	280.27115
8.68000	287.05225
8.69000	284.82644
8.70000	279.59368
8.71000	273.35393
8.72000	269.10715
8.73000	262.85330
8.74000	256.59233
8.75000	244.32422
8.76000	261.04890
8.77000	259.76635
8.78000	236.47653
8.79000	256.17938
8.80000	274.87488
8.81000	272.56298
8.82000	268.24364
8.83000	255.91681
8.84000	236.58246
8.85000	258.24055
8.86000	279.89103
8.87000	272.53387
8.88000	263.16902
8.89000	246.79644
8.90000	254.41610
8.91000	263.02794
8.92000	274.63193
8.93000	279.22803
8.94000	282.81620
8.95000	285.39639
8.96000	283.96857
8.97000	275.53269
8.98000	259.08872
8.99000	246.63660
9.00000	251.17631
9.01000	268.70780
9.02000	278.23102
9.03000	282.74595
9.04000	295.25253
9.05000	287.75073
9.06000	275.24050
9.07000	264.72180
9.08000	260.19460
9.09000	278.65885
9.10000	285.11451
9.11000	276.56154
9.12000	259.99990
9.13000	256.42955
9.14000	268.85045
9.15000	280.26255
9.16000	276.66581
9.17000	288.06020
9.18000	287.44567
9.19000	285.82218
9.20000	299.18970
9.21000	281.54817
9.22000	260.89756
9.23000	266.23783
9.24000	288.56894
9.25000	281.89084
9.26000	259.20350
9.27000	265.50687
9.28000	281.80091
9.29000	297.08558
9.30000	321.36085
9.31000	345.62666
9.32000	342.88298
9.33000	337.12977
9.34000	325.36699
9.35000	314.59459
9.36000	333.81254
9.37000	346.02079
9.38000	324.21930
9.39000	311.40804
9.40000	318.58695
9.41000	324.75601
9.42000	325.91516
9.43000	317.06437
9.44000	314.20360
9.45000	337.33280
9.46000	363.45194
9.47000	348.56097
9.48000	346.65985
9.49000	341.74854
9.50000	329.82701
9.51000	330.89520
9.52000	327.95308
9.53000	323.00061
9.54000	327.03775
9.55000	313.06445
9.56000	300.08068
9.57000	305.08638
9.58000	329.08153
9.59000	333.06609
9.60000	308.04000
9.61000	310.00323
9.62000	284.95574
9.63000	275.89749
9.64000	299.82843
9.65000	314.74853
9.66000	310.65774
9.67000	292.55603
9.68000	277.44335
9.69000	286.31965
9.70000	281.18491
9.71000	262.03908
9.72000	259.88212
9.73000	270.71398
9.74000	282.53463
9.75000	302.34403
9.76000	289.14213
9.77000	270.92889
9.78000	277.70427
9.79000	284.46824
9.80000	282.22074
9.81000	299.96175
9.82000	312.69121
9.83000	316.40909
9.84000	320.11534
9.85000	329.80993
9.86000	328.49282
9.87000	335.16396
9.88000	356.82330
9.89000	348.47082
9.90000	336.10648
9.91000	321.73021
9.92000	323.34200
9.93000	340.94179
9.94000	328.52955
9.95000	303.10524
9.96000	309.66881
9.97000	311.22022
9.98000	311.75943
9.99000	309.28641
10.00000	292.80110
10.01000	285.30347
10.02000	296.79348
10.03000	303.27109
10.04000	323.73625
10.05000	330.18893
10.06000	320.62908
10.07000	339.05667
10.08000	359.47164
10.09000	364.87397
10.10000	361.26361
10.11000	369.64051
10.12000	362.00464
10.13000	328.35596
10.14000	331.69443
10.15000	351.02000
10.16000	352.33263
10.17000	362.63229
10.18000	355.91893
10.19000	332.19251
10.20000	323.45298
10.21000	339.70032
10.22000	349.93448
10.23000	355.15541
10.24000	375.36307
10.25000	387.55743
10.26000	393.73845
10.27000	400.90608
10.28000	397.06027
10.29000	405.20100
10.30000	407.32822
10.31000	431.44189
10.32000	436.54196
10.33000	416.62841
10.34000	431.70117
10.35000	426.76022
10.36000	400.80552
10.37000	412.83701
10.38000	444.85467
10.39000	439.85845
10.40000	416.84831
10.41000	409.82421
10.42000	398.78610
10.43000	407.73395
10.44000	431.66772
10.45000	433.58736
10.46000	416.49283
10.47000	420.38410
10.48000	435.26111
10.49000	415.12384
10.50000	370.97224
10.51000	384.80626
10.52000	416.62587
10.53000	420.43103
10.54000	426.22170
10.55000	414.99782
10.56000	398.75937
10.57000	402.50631
10.58000	411.23858
10.59000	409.95616
10.60000	428.65899
10.61000	448.34704
10.62000	432.02027
10.63000	415.67864
10.64000	398.32210
10.65000	395.95061
10.66000	411.56414
10.67000	413.16264
10.68000	422.74607
10.69000	448.31439
10.70000	432.86756
10.71000	407.40554
10.72000	410.92828
10.73000	414.43576
10.74000	398.92791
10.75000	419.40471
10.76000	433.86612
10.77000	426.31208
10.78000	425.74257
10.79000	425.15753
10.80000	427.55694
10.81000	427.94074
10.82000	442.30890
10.83000	443.66138
10.84000	433.99813
10.85000	448.31911
10.86000	463.62429
10.87000	466.91362
10.88000	451.18706
10.89000	441.44457
10.90000	448.68611
10.91000	450.91164
10.92000	462.12111
10.93000	468.31449
10.94000	462.49174
10.95000	472.65281
10.96000	474.79766
10.97000	473.92625
10.98000	465.03854
10.99000	456.13450
11.00000	464.21407
11.01000	458.27722
11.02000	460.32391
11.03000	462.35409
11.04000	463.36773
11.05000	458.36478
11.06000	455.34520
11.07000	468.30896
11.08000	470.25600
11.09000	472.18630
11.10000	473.09980
11.11000	478.99647
11.12000	470.87627
11.13000	443.73916
11.14000	445.58508
11.15000	467.41402
11.16000	468.22591
11.17000	461.02073
11.18000	478.79843
11.19000	493.55896
11.20000	485.30230
11.21000	483.02839
11.22000	488.73720
11.23000	488.42868
11.24000	470.10280
11.25000	460.75951
11.26000	441.39878
11.27000	438.02056
11.28000	473.62480
11.29000	470.21148
11.30000	462.78054
11.31000	492.33196
11.32000	507.86568
11.33000	508.38166
11.34000	508.87987
11.35000	500.36026
11.36000	497.82279
11.37000	504.26743
11.38000	508.69413
11.39000	502.10284
11.40000	490.49353
11.41000	482.86616
11.42000	473.22069
11.43000	480.55707
11.44000	467.87527
11.45000	455.17524
11.46000	453.45694
11.47000	462.72034
11.48000	469.96538
11.49000	451.19203
11.50000	448.40025
11.51000	444.59000
11.52000	434.76124
11.53000	430.91392
11.54000	454.04800
11.55000	475.16345
11.56000	480.26022
11.57000	485.33827
11.58000	482.39756
11.59000	493.43805
11.60000	506.45969
11.61000	531.46246
11.62000	505.44630
11.63000	466.41118
11.64000	482.35705
11.65000	497.28387
11.66000	487.19160
11.67000	472.08021
11.68000	473.94965
11.69000	463.79987
11.70000	474.63084
11.71000	473.44252
11.72000	489.23487
11.73000	500.00784
11.74000	486.76140
11.75000	503.49549
11.76000	524.21009
11.77000	550.90515
11.78000	559.58063
11.79000	554.23649
11.80000	560.87269
11.81000	576.48919
11.82000	614.08594
11.83000	675.66290
11.84000	753.22004
11.85000	812.75731
11.86000	877.27468
11.87000	973.77209
11.88000	1074.24951
11.89000	1175.70691
11.90000	1322.14423
11.91000	1464.56143
11.92000	1659.95849
11.93000	1922.33535
11.94000	2168.69197
11.95000	2449.02831
11.96000	2763.34434
11.97000	3111.64001
11.98000	3507.00000
11.99000	3961.00000
12.00000	4394.00000
12.01000	4888.00000
12.02000	5377.00000
12.03000	6138.74503
12.04000	6681.91889
12.05000	7224.08744
12.06000	7732.25070
12.07000	8272.40869
12.08000	8711.56142
12.09000	9157.70890
12.10000	9569.85116
12.11000	10000.98821
12.12000	10286.12007
12.13000	10475.24674
12.14000	10605.36824
12.15000	10634.48460
12.16000	10594.59582
12.17000	10521.70192
12.18000	10421.80292
12.19000	10218.89883
12.20000	10002.98967
12.21000	9747.07544
12.22000	9411.15617
12.23000	8992.23188
12.24000	8601.30257
12.25000	8199.36826
12.26000	7838.42896
12.27000	7405.48470
12.28000	6947.53549
12.29000	6469.58133
12.30000	6062.62225
12.31000	5632.65826
12.32000	5213.68938
12.33000	4800.71562
12.34000	4409.73699
12.35000	4045.75352
12.36000	3713.76520
12.37000	3395.77207
12.38000	3073.77413
12.39000	2774.77140
12.40000	2529.76389
12.41000	2277.75162
12.42000	2037.73460
12.43000	1841.71285
12.44000	1688.68637
12.45000	1552.65520
12.46000	1418.61933
12.47000	1326.57879
12.48000	1230.53358
12.49000	1135.48373
12.50000	1042.42924
12.51000	977.37014
12.52000	935.30643
12.53000	903.23813
12.54000	863.16525
12.55000	833.08781
12.56000	800.00582
12.57000	777.91930
12.58000	768.82826
12.59000	733.73271
12.60000	701.63267
12.61000	708.52816
12.62000	700.41917
12.63000	681.30574
12.64000	672.18787
12.65000	679.06558
12.66000	680.93888
12.67000	657.80778
12.68000	640.67230
12.69000	627.53246
12.70000	607.38826
12.71000	618.23971
12.72000	637.08685
12.73000	626.92967
12.74000	617.76819
12.75000	611.60242
12.76000	599.43238
12.77000	570.25808
12.78000	556.07954
12.79000	558.89676
12.80000	563.70977
12.81000	560.51856
12.82000	550.32317
12.83000	532.12360
12.84000	523.91986
12.85000	528.71197
12.86000	520.49994
12.87000	528.28379
12.88000	532.06352
12.89000	521.83915
12.90000	509.61069
12.91000	496.37816
12.92000	489.14158
12.93000	485.90094
12.94000	479.65627
12.95000	493.40758
12.96000	510.15487
12.97000	505.89818
12.98000	488.63750
12.99000	489.37285
13.00000	486.10424
13.01000	469.83169
13.02000	461.55521
13.03000	452.27480
13.04000	458.99050
13.05000	458.70229
13.06000	449.41021
13.07000	454.11426
13.08000	443.81445
13.09000	440.51080
13.10000	468.20332
13.11000	487.89203
13.12000	487.57692
13.13000	464.25803
13.14000	470.93535
13.15000	495.60890
13.16000	475.27870
13.17000	432.94476
13.18000	426.60708
13.19000	427.26569
13.20000	445.92058
13.21000	471.57179
13.22000	469.21931
13.23000	431.86316
13.24000	400.50335
13.25000	405.13990
13.26000	434.77282
13.27000	436.40211
13.28000	427.02779
13.29000	454.64988
13.30000	480.26838
13.31000	478.88330
13.32000	457.49467
13.33000	461.10248
13.34000	461.70676
13.35000	458.30751
13.36000	470.90475
13.37000	462.49848
13.38000	451.08873
13.39000	444.67549
13.40000	457.25879
13.41000	461.83863
13.42000	469.41503
13.43000	481.98800
13.44000	469.55754
13.45000	459.12368
13.46000	456.68642
13.47000	478.24577
13.48000	502.80175
13.49000	514.35437
13.50000	526.90363
13.51000	522.44955
13.52000	535.99215
13.53000	571.53143
13.54000	596.06740
13.55000	609.60008
13.56000	620.12947
13.57000	633.65560
13.58000	662.17846
13.59000	683.69807
13.60000	714.21444
13.61000	767.72759
13.62000	809.23752
13.63000	840.74424
13.64000	871.24778
13.65000	894.74812
13.66000	923.24530
13.67000	944.73931
13.68000	946.23018
13.69000	953.71791
13.70000	978.20250
13.71000	989.68398
13.72000	995.16236
13.73000	1003.63764
13.74000	1009.10983
13.75000	1038.57895
13.76000	1020.04501
13.77000	984.50802
13.78000	965.96798
13.79000	947.42491
13.80000	935.87882
13.81000	905.32973
13.82000	896.77763
13.83000	911.22254
13.84000	889.66448
13.85000	855.10345
13.86000	823.53946
13.87000	789.97253
13.88000	734.40266
13.89000	700.82986
13.90000	684.25415
13.91000	672.67554
13.92000	652.09403
13.93000	619.50963
13.94000	592.92236
13.95000	580.33223
13.96000	551.73925
13.97000	535.14342
13.98000	526.54476
13.99000	516.94328
14.00000	514.33898
14.01000	490.73188
14.02000	491.12199
14.03000	481.50932
14.04000	473.89387
14.05000	484.27567
14.06000	479.65471
14.07000	470.03101
14.08000	474.40457
14.09000	457.77542
14.10000	432.14355
14.11000	445.50898
14.12000	439.87171
14.13000	440.23177
14.14000	443.58915
14.15000	433.94386
14.16000	422.29593
14.17000	407.64534
14.18000	411.99213
14.19000	425.33629
14.20000	429.67784
14.21000	427.01678
14.22000	422.35312
14.23000	425.68688
14.24000	437.01806
14.25000	444.34668
14.26000	445.67274
14.27000	450.99625
14.28000	451.31722
14.29000	441.63566
14.30000	441.95158
14.31000	456.26499
14.32000	471.57591
14.33000	472.88433
14.34000	461.19026
14.35000	442.49373
14.36000	426.79473
14.37000	441.09327
14.38000	453.38937
14.39000	421.68304
14.40000	427.97427
14.41000	448.26309
14.42000	453.54950
14.43000	451.83351
14.44000	438.11513
14.45000	440.39437
14.46000	442.67124
14.47000	440.94574
14.48000	451.21789
14.49000	467.48769
14.50000	476.75515
14.51000	486.02029
14.52000	471.28311
14.53000	460.54362
14.54000	463.80182
14.55000	482.05774
14.56000	503.31137
14.57000	501.56272
14.58000	485.81181
14.59000	475.05864
14.60000	436.30322
14.61000	411.54557
14.62000	433.78568
14.63000	458.02356
14.64000	472.25924
14.65000	467.49271
14.66000	457.72398
14.67000	451.95306
14.68000	461.17996
14.69000	482.40469
14.70000	480.62725
14.71000	470.84766
14.72000	470.06593
14.73000	474.28205
14.74000	484.49605
14.75000	489.70792
14.76000	485.91769
14.77000	470.12534
14.78000	462.33090
14.79000	451.53437
14.80000	452.73576
14.81000	469.93508
14.82000	479.13234
14.83000	478.32754
14.84000	474.52069
14.85000	483.71180
14.86000	495.90089
14.87000	503.08794
14.88000	494.27299
14.89000	473.45602
14.90000	479.63706
14.91000	491.81610
14.92000	493.99316
14.93000	480.16825
14.94000	463.34137
14.95000	458.51253
14.96000	451.68173
14.97000	459.84900
14.98000	487.01432
14.99000	490.17772
15.00000	486.33920
15.01000	492.49876
15.02000	476.65642
15.03000	476.81219
15.04000	499.96606
15.05000	502.11805
15.06000	497.26816
15.07000	495.41641
15.08000	486.56280
15.09000	478.70734
15.10000	484.85003
15.11000	496.99089
15.12000	507.12991
15.13000	515.26712
15.14000	507.40251
15.15000	525.53609
15.16000	534.66788
15.17000	531.79787
15.18000	537.92607
15.19000	553.05250
15.20000	562.17716
15.21000	555.30006
15.22000	571.42120
15.23000	603.54059
15.24000	613.65825
15.25000	619.77416
15.26000	601.88835
15.27000	599.00083
15.28000	631.11159
15.29000	659.22064
15.30000	677.32799
15.31000	686.43366
15.32000	691.53764
15.33000	723.63994
15.34000	770.74058
15.35000	801.83955
15.36000	839.93686
15.37000	869.03253
15.38000	912.12655
15.39000	957.21894
15.40000	995.30970
15.41000	1039.39884
15.42000	1074.48636
15.43000	1113.57228
15.44000	1162.65659
15.45000	1215.73932
15.46000	1264.82045
15.47000	1306.90000
15.48000	1325.97798
15.49000	1360.05439
15.50000	1407.12924
15.51000	1451.20254
15.52000	1497.27429
15.53000	1525.34450
15.54000	1558.41317
15.55000	1577.48032
15.56000	1593.54594
15.57000	1617.61005
15.58000	1626.67266
15.59000	1619.73376
15.60000	1622.79337
15.61000	1623.85148
15.62000	1598.90812
15.63000	1586.96328
15.64000	1588.01697
15.65000	1577.06920
15.66000	1567.11997
15.67000	1536.16929
15.68000	1510.21716
15.69000	1509.26360
15.70000	1514.30861
15.71000	1535.35219
15.72000	1571.39435
15.73000	1603.43510
15.74000	1654.47445
15.75000	1701.51239
15.76000	1719.54894
15.77000	1784.58410
15.78000	1898.61787
15.79000	1998.65027
15.80000	2077.68131
15.81000	2189.71097
15.82000	2288.73928
15.83000	2415.76624
15.84000	2572.79185
15.85000	2719.81612
15.86000	2859.83906
15.87000	3036.86067
15.88000	3202.88095
15.89000	3374.89992
15.90000	3544.91758
15.91000	3722.93393
15.92000	3865.94899
15.93000	3998.96275
15.94000	4123.97523
15.95000	4234.98642
15.96000	4336.99634
15.97000	4398.00498
15.98000	4440.01237
15.99000	4478.01849
16.00000	4460.02336
16.01000	4425.02698
16.02000	4408.02936
16.03000	4391.03051
16.04000	4335.03042
16.05000	4244.02911
16.06000	4145.02658
16.07000	4045.02284
16.08000	3914.01788
16.09000	3771.01173
16.10000	3630.00437
16.11000	3468.99582
16.12000	3302.98609
16.13000	3114.97518
16.14000	2948.96309
16.15000	2815.94982
16.16000	2650.93540
16.17000	2506.91981
16.18000	2363.90307
16.19000	2209.88518
16.20000	2070.86614
16.21000	1940.84597
16.22000	1832.82466
16.23000	1752.80223
16.24000	1658.77867
16.25000	1550.75399
16.26000	1481.72820
16.27000	1419.70131
16.28000	1351.67331
16.29000	1298.64421
16.30000	1259.61402
16.31000	1209.58274
16.32000	1155.55038
16.33000	1125.51695
16.34000	1097.48244
16.35000	1080.44686
16.36000	1054.41022
16.37000	1039.37253
16.38000	1053.33378
16.39000	1070.29398
16.40000	1074.25315
16.41000	1064.21127
16.42000	1043.16836
16.43000	1037.12442
16.44000	1052.07946
16.45000	1061.03349
16.46000	1055.98649
16.47000	1049.93849
16.48000	1061.88949
16.49000	1085.83948
16.50000	1112.78848
16.51000	1134.73650
16.52000	1150.68352
16.53000	1164.62957
16.54000	1203.57464
16.55000	1238.51873
16.56000	1285.46186
16.57000	1346.40403
16.58000	1413.34524
16.59000	1481.28550
16.60000	1582.22481
16.61000	1701.16318
16.62000	1816.10060
16.63000	1931.03710
16.64000	2039.97266
16.65000	2164.90729
16.66000	2326.84100
16.67000	2478.77380
16.68000	2640.70568
16.69000	2798.63666
16.70000	2985.56673
16.71000	3161.49590
16.72000	3323.42417
16.73000	3479.35155
16.74000	3637.27805
16.75000	3779.20366
16.76000	3912.12840
16.77000	4062.05226
16.78000	4199.97525
16.79000	4309.89738
16.80000	4407.81864
16.81000	4475.73905
16.82000	4484.65860
16.83000	4449.57731
16.84000	4434.49517
16.85000	4403.41218
16.86000	4350.32837
16.87000	4319.24371
16.88000	4242.15823
16.89000	4143.07193
16.90000	4014.98480
16.91000	3868.89686
16.92000	3736.80811
16.93000	3587.71854
16.94000	3422.62817
16.95000	3248.53701
16.96000	3063.44504
16.97000	2867.35228
16.98000	2685.25873
16.99000	2544.16440
17.00000	2414.06928
17.01000	2264.97339
17.02000	2116.87672
17.03000	1972.77928
17.04000	1831.68108
17.05000	1690.58211
17.06000	1568.48238
17.07000	1461.38190
17.08000	1370.28067
17.09000	1285.17869
17.10000	1189.07597
17.11000	1119.97250
17.12000	1076.86830
17.13000	1019.76337
17.14000	945.65770
17.15000	898.55131
17.16000	869.44420
17.17000	820.33637
17.18000	775.22782
17.19000	743.11857
17.20000	707.00860
17.21000	678.89793
17.22000	665.78656
17.23000	658.67449
17.24000	637.56172
17.25000	601.44827
17.26000	587.33412
17.27000	570.21930
17.28000	563.10379
17.29000	571.98760
17.30000	552.87074
17.31000	538.75321
17.32000	542.63502
17.33000	535.51616
17.34000	534.39663
17.35000	539.27645
17.36000	525.15562
17.37000	518.03414
17.38000	526.91200
17.39000	539.78923
17.40000	546.66581
17.41000	556.54175
17.42000	555.41706
17.43000	533.29173
17.44000	523.16578
17.45000	531.03920
17.46000	549.91200
17.47000	560.78418
17.48000	549.65574
17.49000	557.52669
17.50000	577.39703
17.51000	562.26676
17.52000	550.13589
17.53000	551.00442
17.54000	552.87235
17.55000	548.73968
17.56000	545.60642
17.57000	553.47257
17.58000	556.33814
17.59000	564.20312
17.60000	581.06752
17.61000	610.93134
17.62000	613.79458
17.63000	602.65726
17.64000	605.51936
17.65000	631.38090
17.66000	662.24188
17.67000	667.10229
17.68000	660.96215
17.69000	687.82145
17.70000	726.68019
17.71000	774.53839
17.72000	810.39604
17.73000	842.25314
17.74000	885.10971
17.75000	929.96573
17.76000	986.82122
17.77000	1063.67617
17.78000	1119.53059
17.79000	1166.38449
17.80000	1235.23785
17.81000	1308.09070
17.82000	1384.94302
17.83000	1475.79482
17.84000	1555.64611
17.85000	1635.49688
17.86000	1720.34714
17.87000	1810.19690
17.88000	1900.04615
17.89000	1990.89489
17.90000	2037.74314
17.91000	2094.59088
17.92000	2184.43813
17.93000	2270.28488
17.94000	2338.13115
17.95000	2385.97692
17.96000	2431.82221
17.97000	2452.66701
17.98000	2465.51133
17.99000	2490.35518
18.00000	2480.19854
18.01000	2437.04143
18.02000	2408.88384
18.03000	2406.72579
18.04000	2383.56727
18.05000	2315.40828
18.06000	2243.24883
18.07000	2203.08891
18.08000	2169.92854
18.09000	2110.76771
18.10000	2046.60642
18.11000	1965.44468
18.12000	1856.28249
18.13000	1753.11985
18.14000	1675.95677
18.15000	1610.79324
18.16000	1524.62926
18.17000	1443.46485
18.18000	1374.30000
18.19000	1301.13471
18.20000	1231.96899
18.21000	1168.80284
18.22000	1096.63625
18.23000	1037.46924
18.24000	979.30180
18.25000	911.13394
18.26000	866.96566
18.27000	816.79695
18.28000	785.62783
18.29000	775.45829
18.30000	747.28833
18.31000	705.11797
18.32000	653.94719
18.33000	619.77600
18.34000	601.60441
18.35000	588.43241
18.36000	575.26001
18.37000	557.08720
18.38000	535.91400
18.39000	510.74040
18.40000	504.56640
18.41000	496.39200
18.42000	486.21722
18.43000	489.04204
18.44000	489.86647
18.45000	487.69052
18.46000	488.51418
18.47000	492.33746
18.48000	484.16035
18.49000	465.98286
18.50000	447.80500
18.51000	446.62675
18.52000	440.44813
18.53000	419.26914
18.54000	409.08977
18.55000	398.91003
18.56000	421.72992
18.57000	444.54944
18.58000	436.36860
18.59000	428.18739
18.60000	436.00582
18.61000	439.82389
18.62000	426.64159
18.63000	426.45894
18.64000	433.27593
18.65000	449.09256
18.66000	451.90884
18.67000	444.72477
18.68000	448.54034
18.69000	460.35556
18.70000	469.17044
18.71000	456.98496
18.72000	448.79915
18.73000	459.61298
18.74000	472.42647
18.75000	475.23962
18.76000	463.05243
18.77000	464.86490
18.78000	476.67704
18.79000	496.48883
18.80000	522.30029
18.81000	523.11141
18.82000	546.92221
18.83000	562.73267
18.84000	558.54280
18.85000	587.35260
18.86000	618.16207
18.87000	636.97121
18.88000	675.78003
18.89000	708.58853
18.90000	740.39670
18.91000	763.20455
18.92000	804.01208
18.93000	834.81929
18.94000	863.62618
18.95000	905.43275
18.96000	928.23900
18.97000	954.04494
18.98000	992.85057
18.99000	1024.65588
19.00000	1063.46088
19.01000	1117.26557
19.02000	1168.06995
19.03000	1195.87402
19.04000	1210.67778
19.05000	1225.48123
19.06000	1256.28438
19.07000	1274.08722
19.08000	1280.88976
19.09000	1272.69199
19.10000	1266.49392
19.11000	1277.29555
19.12000	1296.09688
19.13000	1287.89791
19.14000	1252.69865
19.15000	1238.49908
19.16000	1229.29922
19.17000	1204.09906
19.18000	1190.89861
19.19000	1180.69786
19.20000	1163.49682
19.21000	1133.29548
19.22000	1111.09385
19.23000	1079.89194
19.24000	1023.68973
19.25000	988.48723
19.26000	965.28445
19.27000	936.08137
19.28000	888.87801
19.29000	847.67437
19.30000	811.47043
19.31000	783.26622
19.32000	757.06172
19.33000	733.85693
19.34000	719.65186
19.35000	698.44651
19.36000	665.24088
19.37000	645.03497
19.38000	617.82878
19.39000	590.62230
19.40000	589.41555
19.41000	582.20852
19.42000	568.00122
19.43000	551.79363
19.44000	525.58577
19.45000	507.37764
19.46000	503.16923
19.47000	501.96054
19.48000	491.75158
19.49000	491.54235
19.50000	488.33284
19.51000	479.12307
19.52000	474.91301
19.53000	462.70269
19.54000	449.49210
19.55000	436.28124
19.56000	439.07010
19.57000	445.85870
19.58000	440.64703
19.59000	427.43509
19.60000	430.22288
19.61000	440.01040
19.62000	433.79766
19.63000	429.58465
19.64000	439.37137
19.65000	440.15783
19.66000	433.94402
19.67000	440.72994
19.68000	438.51560
19.69000	428.30100
19.70000	435.08613
19.71000	443.87100
19.72000	457.65561
19.73000	455.43995
19.74000	464.22403
19.75000	491.00784
19.76000	503.79139
19.77000	517.57469
19.78000	514.35772
19.79000	518.14048
19.80000	528.92299
19.81000	542.70524
19.82000	558.48722
19.83000	576.26895
19.84000	611.05041
19.85000	632.83162
19.86000	671.61256
19.87000	705.39325
19.88000	742.17367
19.89000	788.95384
19.90000	832.73374
19.91000	879.51339
19.92000	925.29278
19.93000	967.07191
19.94000	1031.85079
19.95000	1100.62940
19.96000	1174.40776
19.97000	1268.18585
19.98000	1349.96369
19.99000	1413.74128
20.00000	1501.51860
20.01000	1590.29567
20.02000	1684.07248
20.03000	1780.84903
20.04000	1893.62532
20.05000	2012.40136
20.06000	2103.17714
20.07000	2165.95266
20.08000	2274.72792
20.09000	2347.50293
20.10000	2408.27768
20.11000	2484.05217
20.12000	2549.82640
20.13000	2578.60038
20.14000	2606.37410
20.15000	2637.14756
20.16000	2640.92077
20.17000	2630.69372
20.18000	2628.46641
20.19000	2615.23884
20.20000	2597.01101
20.21000	2560.78293
20.22000	2482.55459
20.23000	2416.32599
20.24000	2345.09714
20.25000	2285.86802
20.26000	2213.63865
20.27000	2139.40902
20.28000	2051.17913
20.29000	1941.94898
20.30000	1853.71857
20.31000	1778.48791
20.32000	1680.25698
20.33000	1591.02580
20.34000	1480.79435
20.35000	1386.56265
20.36000	1301.33069
20.37000	1235.09846
20.38000	1166.86598
20.39000	1093.63324
20.40000	1043.40023
20.41000	1004.16697
20.42000	972.93344
20.43000	929.69965
20.44000	853.46561
20.45000	788.23130
20.46000	767.99672
20.47000	760.76189
20.48000	732.52679
20.49000	689.29143
20.50000	648.05581
20.51000	629.81992
20.52000	603.58377
20.53000	573.34736
20.54000	556.11068
20.55000	550.87373
20.56000	534.63652
20.57000	520.39905
20.58000	511.16131
20.59000	500.92331
20.60000	481.68503
20.61000	480.44650
20.62000	483.20769
20.63000	467.96862
20.64000	459.72928
20.65000	459.48967
20.66000	465.24979
20.67000	468.00964
20.68000	463.76923
20.69000	463.52854
20.70000	469.28759
20.71000	475.04636
20.72000	481.80486
20.73000	474.56309
20.74000	462.32105
20.75000	443.07874
20.76000	442.83615
20.77000	459.59329
20.78000	464.35016
20.79000	471.10675
20.80000	478.86307
20.81000	466.61911
20.82000	456.37488
20.83000	460.13037
20.84000	459.88559
20.85000	471.64052
20.86000	471.39518
20.87000	459.14956
20.88000	446.90367
20.89000	443.65749
20.90000	456.41103
20.91000	455.16430
20.92000	441.91728
20.93000	434.66998
20.94000	431.42240
20.95000	440.17454
20.96000	443.92639
20.97000	440.67796
20.98000	453.42924
20.99000	448.18024
21.00000	448.93096
21.01000	442.68139
21.02000	430.43153
21.03000	433.18139
21.04000	435.93095
21.05000	438.68023
21.06000	413.42922
21.07000	403.17792
21.08000	418.92633
21.09000	435.67445
21.10000	444.42228
21.11000	438.16981
21.12000	430.91706
21.13000	432.66400
21.14000	433.41066
21.15000	429.15702
21.16000	422.90308
21.17000	429.64885
21.18000	438.39432
21.19000	429.13949
21.20000	427.88437
21.21000	428.62894
21.22000	417.37322
21.23000	417.11720
21.24000	424.86087
21.25000	420.60424
21.26000	412.34731
21.27000	415.09008
21.28000	415.83254
21.29000	418.57470
21.30000	435.31655
21.31000	437.05810
21.32000	428.79934
21.33000	429.54027
21.34000	442.28089
21.35000	474.02121
21.36000	487.76121
21.37000	492.50090
21.38000	489.24029
21.39000	469.97935
21.40000	465.71811
21.41000	472.45655
21.42000	483.19468
21.43000	493.93249
21.44000	516.66999
21.45000	524.40717
21.46000	516.14403
21.47000	523.88057
21.48000	531.61679
21.49000	544.35269
21.50000	546.08828
21.51000	541.82353
21.52000	555.55847
21.53000	565.29308
21.54000	579.02737
21.55000	600.76133
21.56000	625.49497
21.57000	652.22828
21.58000	668.96126
21.59000	676.69391
21.60000	698.42624
21.61000	703.15823
21.62000	725.88989
21.63000	760.62122
21.64000	782.35222
21.65000	806.08288
21.66000	825.81321
21.67000	857.54320
21.68000	889.27285
21.69000	930.00217
21.70000	960.73115
21.71000	970.45979
21.72000	988.18809
21.73000	1029.91605
21.74000	1057.64367
21.75000	1091.37094
21.76000	1124.09787
21.77000	1148.82445
21.78000	1166.55069
21.79000	1204.27658
21.80000	1251.00213
21.81000	1279.72733
21.82000	1318.45217
21.83000	1373.17667
21.84000	1394.90081
21.85000	1411.62461
21.86000	1441.34805
21.87000	1479.07113
21.88000	1540.79386
21.89000	1607.51624
21.90000	1665.23826
21.91000	1735.95991
21.92000	1764.68122
21.93000	1807.40216
21.94000	1880.12274
21.95000	1918.84295
21.96000	1959.56281
21.97000	2010.28230
21.98000	2065.00143
21.99000	2147.72019
22.00000	2217.43858
22.01000	2271.15661
22.02000	2334.87426
22.03000	2396.59155
22.04000	2435.30847
22.05000	2493.02501
22.06000	2540.74119
22.07000	2572.45698
22.08000	2582.17241
22.09000	2584.88746
22.10000	2610.60213
22.11000	2606.31642
22.12000	2600.03034
22.13000	2589.74387
22.14000	2571.45703
22.15000	2544.16980
22.16000	2514.88219
22.17000	2483.59419
22.18000	2440.30581
22.19000	2397.01705
22.20000	2331.72790
22.21000	2271.43836
22.22000	2225.14843
22.23000	2146.85811
22.24000	2066.56740
22.25000	1996.27629
22.26000	1940.98480
22.27000	1891.69291
22.28000	1847.40062
22.29000	1801.10794
22.30000	1740.81486
22.31000	1680.52138
22.32000	1622.22751
22.33000	1582.93323
22.34000	1544.63855
22.35000	1516.34347
22.36000	1474.04798
22.37000	1419.75209
22.38000	1382.45580
22.39000	1347.15909
22.40000	1306.86198
22.41000	1260.56446
22.42000	1228.26653
22.43000	1203.96819
22.44000	1177.66944
22.45000	1160.37027
22.46000	1117.07069
22.47000	1079.77069
22.48000	1056.47028
22.49000	1033.16945
22.50000	996.86820
22.51000	954.56653
22.52000	923.26444
22.53000	900.96193
22.54000	887.65899
22.55000	872.35563
22.56000	860.05185
22.57000	820.74764
22.58000	774.44300
22.59000	763.13793
22.60000	751.83244
22.61000	737.52651
22.62000	720.22015
22.63000	686.91336
22.64000	658.60614
22.65000	652.29848
22.66000	643.99038
22.67000	624.68185
22.68000	607.37288
22.69000	600.06347
22.70000	593.75361
22.71000	578.44332
22.72000	561.13259
22.73000	550.82141
22.74000	560.50978
22.75000	566.19771
22.76000	533.88520
22.77000	523.57223
22.78000	519.25882
22.79000	502.94495
22.80000	500.63064
22.81000	501.31587
22.82000	504.00065
22.83000	512.68497
22.84000	508.36884
22.85000	513.05225
22.86000	501.73520
22.87000	492.41770
22.88000	499.09973
22.89000	495.78130
22.90000	495.46241
22.91000	503.14306
22.92000	495.82324
22.93000	486.50296
22.94000	487.18221
22.95000	484.86099
22.96000	488.53930
22.97000	483.21714
22.98000	470.89452
22.99000	460.57141
23.00000	462.24784
23.01000	467.92379
23.02000	467.59927
23.03000	466.27427
23.04000	474.94879
23.05000	477.62283
23.06000	469.29639
23.07000	471.96947
23.08000	479.64207
23.09000	495.31419
23.10000	512.98582
23.11000	516.65697
23.12000	520.32763
23.13000	505.99780
23.14000	494.66748
23.15000	484.33667
23.16000	482.00538
23.17000	500.67359
23.18000	506.34131
23.19000	507.00853
23.20000	499.67526
23.21000	486.34149
23.22000	493.00722
23.23000	501.67246
23.24000	490.33720
23.25000	482.00143
23.26000	486.66517
23.27000	492.32840
23.28000	486.99113
23.29000	496.65335
23.30000	509.31507
23.31000	507.97628
23.32000	518.63698
23.33000	522.29717
23.34000	508.95685
23.35000	502.61602
23.36000	495.27468
23.37000	500.93282
23.38000	503.59045
23.39000	506.24757
23.40000	509.90416
23.41000	506.56024
23.42000	517.21581
23.43000	524.87085
23.44000	534.52537
23.45000	525.17936
23.46000	528.83284
23.47000	539.48579
23.48000	523.13822
23.49000	521.79011
23.50000	523.44149
23.51000	520.09233
23.52000	513.74264
23.53000	515.39243
23.54000	530.04168
23.55000	543.69040
23.56000	539.33859
23.57000	537.98624
23.58000	537.63336
23.59000	541.27994
23.60000	538.92598
23.61000	524.57148
23.62000	529.21645
23.63000	532.86087
23.64000	531.50475
23.65000	544.14809
23.66000	558.79088
23.67000	563.43313
23.68000	557.07484
23.69000	556.71600
23.70000	549.35661
23.71000	551.99667
23.72000	574.63618
23.73000	582.27514
23.74000	569.91355
23.75000	573.55140
23.76000	588.18871
23.77000	589.82545
23.78000	590.46164
23.79000	586.09728
23.80000	584.73236
23.81000	594.36687
23.82000	612.00083
23.83000	633.63423
23.84000	642.26707
23.85000	643.89934
23.86000	639.53105
23.87000	645.16220
23.88000	656.79278
23.89000	667.42279
23.90000	675.05224
23.91000	677.68111
23.92000	689.30942
23.93000	720.93716
23.94000	746.56433
23.95000	759.19092
23.96000	775.81694
23.97000	799.44239
23.98000	828.06726
23.99000	864.69156
24.00000	896.31528
24.01000	913.93842
24.02000	944.56099
24.03000	990.18297
24.04000	1035.80437
24.05000	1067.42520
24.06000	1116.04544
24.07000	1177.66509
24.08000	1248.28417
24.09000	1324.90265
24.10000	1409.52055
24.11000	1509.13787
24.12000	1604.75460
24.13000	1710.37074
24.14000	1809.98628
24.15000	1931.60124
24.16000	2078.21561
24.17000	2217.82939
24.18000	2382.44257
24.19000	2547.05516
24.20000	2731.66715
24.21000	2943.27855
24.22000	3155.88936
24.23000	3356.49956
24.24000	3562.10917
24.25000	3808.71818
24.26000	4088.32659
24.27000	4387.93440
24.28000	4687.54160
24.29000	4984.14821
24.30000	5313.75421
24.31000	5657.35961
24.32000	5996.96440
24.33000	6318.56859
24.34000	6689.17217
24.35000	7043.77515
24.36000	7388.37752
24.37000	7712.97928
24.38000	8051.58043
24.39000	8373.18097
24.40000	8664.78089
24.41000	8921.38021
24.42000	9210.97891
24.43000	9453.57701
24.44000	9682.17448
24.45000	9875.77135
24.46000	10003.36759
24.47000	10088.96322
24.48000	10146.55824
24.49000	10189.15263
24.50000	10180.74641
24.51000	10113.33957
24.52000	10026.93211
24.53000	9900.52402
24.54000	9732.11532
24.55000	9546.70600
24.56000	9316.29605
24.57000	9055.88547
24.58000	8778.47428
24.59000	8481.06246
24.60000	8188.65001
24.61000	7872.23694
24.62000	7576.82324
24.63000	7270.40891
24.64000	6984.99396
24.65000	6669.57837
24.66000	6372.16216
24.67000	6082.74532
24.68000	5825.32784
24.69000	5541.90974
24.70000	5281.49100
24.71000	5038.07163
24.72000	4868.65162
24.73000	4704.23099
24.74000	4547.80971
24.75000	4412.38781
24.76000	4290.96526
24.77000	4184.54208
24.78000	4095.11826
24.79000	4035.69381
24.80000	3990.26872
24.81000	3941.84299
24.82000	3914.41661
24.83000	3887.98960
24.84000	3858.56195
24.85000	3883.13366
24.86000	3911.70473
24.87000	3931.27515
24.88000	3968.84493
24.89000	4033.41407
24.90000	4107.98257
24.91000	4151.55042
24.92000	4178.11762
24.93000	4213.68418
24.94000	4268.25010
24.95000	4340.81537
24.96000	4382.37999
24.97000	4405.94396
24.98000	4426.50729
24.99000	4473.06997
25.00000	4526.63200
25.01000	4542.19338
25.02000	4534.75411
25.03000	4508.31419
25.04000	4471.87363
25.05000	4426.43241
25.06000	4372.99053
25.07000	4331.54801
25.08000	4275.10484
25.09000	4208.66101
25.10000	4128.21653
25.11000	4022.77140
25.12000	3911.32561
25.13000	3805.87917
25.14000	3673.43207
25.15000	3546.98432
25.16000	3424.53591
25.17000	3281.08685
25.18000	3132.63713
25.19000	2994.18676
25.20000	2857.73573
25.21000	2725.28404
25.22000	2610.83169
25.23000	2480.37869
25.24000	2367.92503
25.25000	2269.47071
25.26000	2178.01573
25.27000	2065.56009
25.28000	1964.10380
25.29000	1858.64684
25.30000	1767.18922
25.31000	1688.73095
25.32000	1629.27201
25.33000	1583.81242
25.34000	1511.35216
25.35000	1450.89124
25.36000	1411.42966
25.37000	1358.96742
25.38000	1322.50452
25.39000	1299.04095
25.40000	1270.57672
25.41000	1262.11184
25.42000	1243.64628
25.43000	1209.18007
25.44000	1189.71319
25.45000	1153.24565
25.46000	1133.77745
25.47000	1123.30858
25.48000	1113.83905
25.49000	1111.36886
25.50000	1111.89800
25.51000	1105.42648
25.52000	1111.95429
25.53000	1118.48144
25.54000	1113.00793
25.55000	1100.53375
25.56000	1091.05890
25.57000	1090.58340
25.58000	1074.10722
25.59000	1071.63039
25.60000	1079.15288
25.61000	1085.67472
25.62000	1087.19589
25.63000	1065.71639
25.64000	1038.23623
25.65000	1024.75540
25.66000	1029.27391
25.67000	1025.79176
25.68000	1024.30894
25.69000	1007.82545
25.70000	975.34130
25.71000	949.85648
25.72000	926.37100
25.73000	918.88486
25.74000	898.39805
25.75000	886.91058
25.76000	869.42244
25.77000	865.93363
25.78000	858.44417
25.79000	826.95403
25.80000	813.46324
25.81000	795.97178
25.82000	782.47965
25.83000	770.98687
25.84000	756.49341
25.85000	747.99930
25.86000	749.50452
25.87000	747.00908
25.88000	750.51297
25.89000	747.01620
25.90000	742.51877
25.91000	728.02068
25.92000	711.52192
25.93000	707.02251
25.94000	711.52243
25.95000	727.02168
25.96000	733.52028
25.97000	719.01822
25.98000	717.51549
25.99000	730.01211
26.00000	745.50806
26.01000	760.00335
26.02000	772.49799
26.03000	775.99196
26.04000	787.48528
26.05000	808.97793
26.06000	832.46993
26.07000	857.96127
26.08000	897.45195
26.09000	929.94198
26.10000	955.43134
26.11000	986.92005
26.12000	1029.40811
26.13000	1066.89550
26.14000	1104.38225
26.15000	1149.86833
26.16000	1189.35376
26.17000	1222.83854
26.18000	1266.32266
26.19000	1316.80613
26.20000	1362.28895
26.21000	1412.77112
26.22000	1463.25263
26.23000	1523.73349
26.24000	1573.21370
26.25000	1649.69326
26.26000	1701.17217
26.27000	1742.65042
26.28000	1802.12803
26.29000	1865.60500
26.30000	1918.08131
26.31000	1965.55698
26.32000	2010.03199
26.33000	2058.50637
26.34000	2115.98010
26.35000	2152.45318
26.36000	2165.92562
26.37000	2181.39741
26.38000	2198.86856
26.39000	2222.33907
26.40000	2231.80893
26.41000	2229.27816
26.42000	2226.74674
26.43000	2234.21469
26.44000	2220.68199
26.45000	2196.14866
26.46000	2148.61469
26.47000	2110.08008
26.48000	2078.54484
26.49000	2052.00896
26.50000	1999.47244
26.51000	1945.93529
26.52000	1882.39751
26.53000	1833.85909
26.54000	1795.32005
26.55000	1760.78037
26.56000	1699.24006
26.57000	1630.69912
26.58000	1573.15756
26.59000	1523.61536
26.60000	1474.07254
26.61000	1430.52910
26.62000	1395.98503
26.63000	1365.44033
26.64000	1334.89501
26.65000	1305.34907
26.66000	1282.80251
26.67000	1256.25532
26.68000	1235.70752
26.69000	1224.15910
26.70000	1204.61006
26.71000	1175.06040
26.72000	1154.51013
26.73000	1147.95925
26.74000	1141.40775
26.75000	1140.85563
26.76000	1135.30291
26.77000	1131.74957
26.78000	1129.19563
26.79000	1137.64108
26.80000	1141.08592
26.81000	1142.53015
26.82000	1146.97378
26.83000	1131.41680
26.84000	1141.85922
26.85000	1159.30104
26.86000	1174.74226
26.87000	1189.18287
26.88000	1183.62289
26.89000	1173.06231
26.90000	1182.50114
26.91000	1182.93937
26.92000	1160.37701
26.93000	1149.81405
26.94000	1145.25051
26.95000	1134.68637
26.96000	1112.12164
26.97000	1087.55633
26.98000	1078.99043
26.99000	1062.42395
27.00000	1041.85688
27.01000	1023.28923
27.02000	997.72100
27.03000	973.15219
27.04000	938.58280
27.05000	916.01283
27.06000	906.44229
27.07000	881.87117
27.08000	857.29948
27.09000	825.72722
27.10000	806.15439
27.11000	784.58099
27.12000	767.00703
27.13000	747.43249
27.14000	724.85740
27.15000	703.28174
27.16000	690.70552
27.17000	676.12874
27.18000	653.55140
27.19000	636.97350
27.20000	623.39505
27.21000	605.81605
27.22000	592.23649
27.23000	584.65638
27.24000	583.07573
27.25000	569.49452
27.26000	550.91277
27.27000	546.33048
27.28000	533.74765
27.29000	521.16427
27.30000	513.58035
27.31000	506.99590
27.32000	498.41091
27.33000	498.82539
27.34000	501.23933
27.35000	496.65275
27.36000	494.06563
27.37000	488.47799
27.38000	475.88982
27.39000	465.30113
27.40000	471.71192
27.41000	477.12219
27.42000	465.53193
27.43000	470.94117
27.44000	474.34988
27.45000	464.75809
27.46000	462.16578
27.47000	463.57297
27.48000	447.97965
27.49000	447.38582
27.50000	458.79149
27.51000	461.19666
27.52000	471.60133
27.53000	477.00550
27.54000	467.40917
27.55000	460.81236
27.56000	460.21505
27.57000	462.61725
27.58000	454.01896
27.59000	450.42019
27.60000	455.82094
27.61000	465.22120
27.62000	468.62099
27.63000	469.02030
27.64000	455.41913
27.65000	435.81749
27.66000	432.21538
27.67000	436.61280
27.68000	443.00975
27.69000	452.40624
27.70000	464.80227
27.71000	466.19784
27.72000	458.59295
27.73000	453.98760
27.74000	456.38181
27.75000	458.77556
27.76000	456.16886
27.77000	458.56171
27.78000	462.95413
27.79000	465.34609
27.80000	469.73762
27.81000	469.12872
27.82000	460.51938
27.83000	457.90960
27.84000	459.29940
27.85000	459.68877
27.86000	459.07771
27.87000	463.46623
27.88000	470.85433
27.89000	471.24201
27.90000	481.62928
27.91000	488.01613
27.92000	482.40257
27.93000	467.78861
27.94000	473.17424
27.95000	479.55946
27.96000	478.94429
27.97000	477.32872
27.98000	482.71275
27.99000	495.09639
28.00000	504.47964
28.01000	499.86250
28.02000	496.24498
28.03000	505.62708
28.04000	504.00879
28.05000	511.39013
28.06000	529.77110
28.07000	525.15169
28.08000	525.53192
28.09000	534.91178
28.10000	536.29128
28.11000	552.67041
28.12000	552.04919
28.13000	546.42761
28.14000	555.80569
28.15000	584.18341
28.16000	594.56078
28.17000	610.93782
28.18000	618.31451
28.19000	632.69087
28.20000	650.06689
28.21000	665.44257
28.22000	678.81793
28.23000	693.19297
28.24000	721.56768
28.25000	743.94207
28.26000	770.31614
28.27000	810.68990
28.28000	845.06335
28.29000	870.43649
28.30000	903.80932
28.31000	949.18186
28.32000	995.55409
28.33000	1037.92603
28.34000	1089.29768
28.35000	1142.66904
28.36000	1195.04011
28.37000	1257.41089
28.38000	1327.78140
28.39000	1403.15163
28.40000	1475.52159
28.41000	1548.89128
28.42000	1624.26070
28.43000	1699.62986
28.44000	1784.99876
28.45000	1878.36740
28.46000	1968.73578
28.47000	2064.10392
28.48000	2173.47180
28.49000	2291.83945
28.50000	2382.20685
28.51000	2483.57402
28.52000	2612.94095
28.53000	2746.30765
28.54000	2868.67413
28.55000	2958.04038
28.56000	3063.40642
28.57000	3171.77223
28.58000	3287.13783
28.59000	3388.50323
28.60000	3490.86842
28.61000	3593.23340
28.62000	3672.59819
28.63000	3753.96278
28.64000	3827.32718
28.65000	3894.69139
28.66000	3952.05542
28.67000	3997.41927
28.68000	4020.78294
28.69000	4036.14643
28.70000	4042.50976
28.71000	4058.87292
28.72000	4061.23592
28.73000	4038.59876
28.74000	4020.96145
28.75000	3993.32398
28.76000	3947.68637
28.77000	3896.04861
28.78000	3846.41072
28.79000	3791.77269
28.80000	3730.13452
28.81000	3654.49623
28.82000	3556.85782
28.83000	3484.21928
28.84000	3423.58063
28.85000	3331.94187
28.86000	3246.30299
28.87000	3176.66402
28.88000	3107.02494
28.89000	3042.38577
28.90000	2962.74650
28.91000	2889.10715
28.92000	2802.46771
28.93000	2727.82820
28.94000	2666.18860
28.95000	2592.54894
28.96000	2514.90921
28.97000	2453.26941
28.98000	2386.62955
28.99000	2313.98964
29.00000	2236.34968
29.01000	2179.70967
29.02000	2129.06962
29.03000	2065.42953
29.04000	2000.78941
29.05000	1958.14925
29.06000	1906.50907
29.07000	1846.86887
29.08000	1802.22866
29.09000	1754.58843
29.10000	1698.94819
29.11000	1653.30795
29.12000	1596.66771
29.13000	1542.02748
29.14000	1495.38725
29.15000	1458.74704
29.16000	1428.10685
29.17000	1392.46668
29.18000	1366.82654
29.19000	1334.18643
29.20000	1295.54635
29.21000	1258.90632
29.22000	1207.26634
29.23000	1164.62640
29.24000	1134.98652
29.25000	1119.34670
29.26000	1096.70695
29.27000	1064.06726
29.28000	1029.42765
29.29000	993.78811
29.30000	972.14866
29.31000	953.50930
29.32000	927.87003
29.33000	911.23086
29.34000	900.59179
29.35000	893.95283
29.36000	872.31398
29.37000	846.67524
29.38000	826.03663
29.39000	814.39815
29.40000	813.75979
29.41000	805.12158
29.42000	790.48350
29.43000	780.84557
29.44000	782.20780
29.45000	781.57018
29.46000	786.93272
29.47000	773.29543
29.48000	747.65831
29.49000	749.02136
29.50000	769.38460
29.51000	776.74803
29.52000	786.11164
29.53000	789.47546
29.54000	780.83948
29.55000	787.20370
29.56000	793.56814
29.57000	788.93280
29.58000	795.29767
29.59000	798.66278
29.60000	802.02813
29.61000	806.39371
29.62000	801.75953
29.63000	806.12561
29.64000	802.49194
29.65000	798.85853
29.66000	801.22539
29.67000	800.59252
29.68000	797.95993
29.69000	790.32762
29.70000	791.69560
29.71000	789.06387
29.72000	770.43244
29.73000	762.80132
29.74000	757.17050
29.75000	748.54000
29.76000	727.90983
29.77000	717.27998
29.78000	716.65046
29.79000	720.02128
29.80000	719.39244
29.81000	704.76396
29.82000	686.13583
29.83000	666.50806
29.84000	650.88066
29.85000	643.25363
29.86000	646.62698
29.87000	646.00071
29.88000	637.37483
29.89000	618.74935
29.90000	600.12427
29.91000	578.49960
29.92000	576.87535
29.93000	588.25151
29.94000	588.62810
29.95000	577.00512
29.96000	569.38257
29.97000	572.76047
29.98000	570.13883
29.99000	572.51763
30.00000	573.89690
30.01000	582.27664
30.02000	567.65685
30.03000	551.03754
30.04000	539.41871
30.05000	541.80038
30.06000	541.18255
30.07000	535.56522
30.08000	539.94841
30.09000	537.33211
30.10000	527.71634
30.11000	530.10109
30.12000	523.48638
30.13000	516.87222
30.14000	520.25860
30.15000	520.64554
30.16000	502.03304
30.17000	499.42111
30.18000	503.80976
30.19000	495.19898
30.20000	495.58880
30.21000	499.97920
30.22000	490.37021
30.23000	485.76183
30.24000	477.15406
30.25000	461.54691
30.26000	460.94039
30.27000	452.33450
30.28000	448.72925
30.29000	451.12465
30.30000	453.52070
30.31000	445.91741
30.32000	441.31479
30.33000	429.71285
30.34000	424.11158
30.35000	431.51101
30.36000	427.91112
30.37000	424.31194
30.38000	429.71347
30.39000	437.11571
30.40000	436.51868
30.41000	428.92237
30.42000	417.32680
30.43000	417.73197
30.44000	431.13789
30.45000	435.54457
30.46000	432.95201
30.47000	425.36023
30.48000	423.76922
30.49000	435.17899
30.50000	448.58956
30.51000	446.00093
30.52000	450.41311
30.53000	460.82610
30.54000	454.23991
30.55000	467.65454
30.56000	493.07002
30.57000	516.48633
30.58000	514.90350
30.59000	521.32152
30.60000	526.74041
30.61000	535.16017
30.62000	545.58082
30.63000	553.00234
30.64000	557.42476
30.65000	565.84809
30.66000	570.27232
30.67000	577.69747
30.68000	598.12355
30.69000	605.55055
30.70000	605.97850
30.71000	608.40739
30.72000	607.83724
30.73000	609.26805
30.74000	614.69983
30.75000	631.13258
30.76000	643.56633
30.77000	642.00106
30.78000	638.43680
30.79000	635.87354
30.80000	644.31130
30.81000	644.75009
30.82000	631.18991
30.83000	626.63076
30.84000	628.07267
30.85000	627.51563
30.86000	609.95965
30.87000	603.40475
30.88000	578.85093
30.89000	560.29819
30.90000	555.74655
30.91000	548.19601
30.92000	528.64658
30.93000	523.09827
30.94000	522.55110
30.95000	515.00505
30.96000	497.46015
30.97000	485.91641
30.98000	458.37382
30.99000	449.83240
31.00000	442.29216
