3.80000	287.00000
3.85000	281.00000
3.90000	275.00000
3.95000	322.00000
4.00000	271.00000
4.05000	284.00000
4.10000	303.00000
4.15000	310.00000
4.20000	337.00000
4.25000	398.00000
4.30000	386.00000
4.35000	367.00000
4.40000	375.00000
4.45000	380.00000
4.50000	422.00000
4.55000	434.00000
4.60000	409.00000
4.65000	418.00000
4.70000	427.00000
4.75000	476.00000
4.80000	482.00000
4.85000	481.00000
4.90000	470.00000
4.95000	468.00000
5.00000	482.00000
5.05000	511.00000
5.10000	545.00000
5.15000	539.00000
5.20000	561.00000
5.25000	564.00000
5.30000	594.00000
5.35000	590.00000
5.40000	577.00000
5.45000	579.00000
5.50000	621.00000
5.55000	662.00000
5.60000	634.00000
5.65000	591.00000
5.70000	611.00000
5.75000	644.00000
5.80000	643.00000
5.85000	642.00000
5.90000	617.00000
5.95000	647.00000
6.00000	596.00000
6.05000	663.00000
6.10000	636.00000
6.15000	639.00000
6.20000	648.00000
6.25000	603.00000
6.30000	660.00000
6.35000	616.00000
6.40000	607.00000
6.45000	651.00000
6.50000	632.00000
6.55000	615.00000
6.60000	615.00000
6.65000	607.00000
6.70000	630.00000
6.75000	629.00000
6.80000	618.00000
6.85000	645.00000
6.90000	642.00000
6.95000	718.00000
7.00000	641.00000
7.05000	688.00000
7.10000	640.00000
7.15000	649.00000
7.20000	670.00000
7.25000	704.00000
7.30000	712.00000
7.35000	699.00000
7.40000	684.00000
7.45000	692.00000
7.50000	691.00000
7.55000	658.00000
7.60000	683.00000
7.65000	738.00000
7.70000	721.00000
7.75000	646.00000
7.80000	694.00000
7.85000	734.00000
7.90000	693.00000
7.95000	654.00000
8.00000	684.00000
8.05000	707.00000
8.10000	667.00000
8.15000	726.00000
8.20000	661.00000
8.25000	726.00000
8.30000	670.00000
8.35000	700.00000
8.40000	684.00000
8.45000	637.00000
8.50000	660.00000
8.55000	658.00000
8.60000	668.00000
8.65000	636.00000
8.70000	652.00000
8.75000	692.00000
8.80000	629.00000
8.85000	694.00000
8.90000	660.00000
8.95000	693.00000
9.00000	684.00000
9.05000	645.00000
9.10000	725.00000
9.15000	706.00000
9.20000	690.00000
9.25000	674.00000
9.30000	676.00000
9.35000	710.00000
9.40000	702.00000
9.45000	720.00000
9.50000	702.00000
9.55000	752.00000
9.60000	699.00000
9.65000	686.00000
9.70000	696.00000
9.75000	742.00000
9.80000	700.00000
9.85000	729.00000
9.90000	699.00000
9.95000	695.00000
10.00000	738.00000
10.05000	728.00000
10.10000	718.00000
10.15000	715.00000
10.20000	753.00000
10.25000	776.00000
10.30000	691.00000
10.35000	773.00000
10.40000	681.00000
10.45000	705.00000
10.50000	742.00000
10.55000	693.00000
10.60000	655.00000
10.65000	633.00000
10.70000	666.00000
10.75000	643.00000
10.80000	689.00000
10.85000	675.00000
10.90000	604.00000
10.95000	686.00000
11.00000	705.00000
11.05000	624.00000
11.10000	648.00000
11.15000	724.00000
11.20000	680.00000
11.25000	691.00000
11.30000	651.00000
11.35000	669.00000
11.40000	738.00000
11.45000	649.00000
11.50000	645.00000
11.55000	651.00000
11.60000	674.00000
11.65000	644.00000
11.70000	680.00000
11.75000	671.00000
11.80000	692.00000
11.85000	703.00000
11.90000	694.00000
11.95000	675.00000
12.00000	704.00000
12.05000	667.00000
12.10000	658.00000
12.15000	678.00000
12.20000	672.00000
12.25000	634.00000
12.30000	679.00000
12.35000	732.00000
12.40000	627.00000
12.45000	669.00000
12.50000	674.00000
12.55000	684.00000
12.60000	663.00000
12.65000	686.00000
12.70000	709.00000
12.75000	718.00000
12.80000	674.00000
12.85000	721.00000
12.90000	700.00000
12.95000	726.00000
13.00000	734.00000
13.05000	752.00000
13.10000	700.00000
13.15000	737.00000
13.20000	762.00000
13.25000	706.00000
13.30000	770.00000
13.35000	759.00000
13.40000	727.00000
13.45000	747.00000
13.50000	760.00000
13.55000	744.00000
13.60000	714.00000
13.65000	704.00000
13.70000	699.00000
13.75000	709.00000
13.80000	737.00000
13.85000	695.00000
13.90000	682.00000
13.95000	749.00000
14.00000	772.00000
14.05000	768.00000
14.10000	707.00000
14.15000	758.00000
14.20000	761.00000
14.25000	745.00000
14.30000	691.00000
14.35000	700.00000
14.40000	766.00000
14.45000	739.00000
14.50000	716.00000
14.55000	781.00000
14.60000	685.00000
14.65000	731.00000
14.70000	739.00000
14.75000	722.00000
14.80000	775.00000
14.85000	752.00000
14.90000	792.00000
14.95000	755.00000
15.00000	822.00000
15.05000	786.00000
15.10000	780.00000
15.15000	791.00000
15.20000	774.00000
15.25000	834.00000
15.30000	834.00000
15.35000	838.00000
15.40000	782.00000
15.45000	864.00000
15.50000	837.00000
15.55000	792.00000
15.60000	800.00000
15.65000	845.00000
15.70000	850.00000
15.75000	853.00000
15.80000	867.00000
15.85000	873.00000
15.90000	875.00000
15.95000	888.00000
16.00000	854.00000
16.05000	932.00000
16.10000	889.00000
16.15000	875.00000
16.20000	847.00000
16.25000	845.00000
16.30000	814.00000
16.35000	845.00000
16.40000	891.00000
16.45000	815.00000
16.50000	848.00000
16.55000	864.00000
16.60000	839.00000
16.65000	858.00000
16.70000	869.00000
16.75000	856.00000
16.80000	819.00000
16.85000	877.00000
16.90000	847.00000
16.95000	824.00000
17.00000	863.00000
17.05000	857.00000
17.10000	893.00000
17.15000	903.00000
17.20000	875.00000
17.25000	872.00000
17.30000	1006.00000
17.35000	994.00000
17.40000	1011.00000
17.45000	1027.00000
17.50000	1045.00000
17.55000	1119.00000
17.60000	1122.00000
17.65000	1201.00000
17.70000	1215.00000
17.75000	1170.00000
17.80000	1179.00000
17.85000	1141.00000
17.90000	1126.00000
17.95000	1094.00000
18.00000	1033.00000
18.05000	1025.00000
18.10000	972.00000
18.15000	893.00000
18.20000	937.00000
18.25000	902.00000
18.30000	857.00000
18.35000	856.00000
18.40000	866.00000
18.45000	854.00000
18.50000	856.00000
18.55000	842.00000
18.60000	897.00000
18.65000	869.00000
18.70000	880.00000
18.75000	846.00000
18.80000	896.00000
18.85000	911.00000
18.90000	845.00000
18.95000	955.00000
19.00000	921.00000
19.05000	900.00000
19.10000	930.00000
19.15000	921.00000
19.20000	977.00000
19.25000	1034.00000
19.30000	1032.00000
19.35000	1012.00000
19.40000	1070.00000
19.45000	1023.00000
19.50000	1085.00000
19.55000	1138.00000
19.60000	1240.00000
19.65000	1275.00000
19.70000	1398.00000
19.75000	1512.00000
19.80000	1656.00000
19.85000	1843.00000
19.90000	2157.00000
19.95000	2467.00000
20.00000	2817.00000
20.05000	3260.00000
20.10000	4049.00000
20.15000	4732.00000
20.20000	5405.00000
20.25000	6355.00000
20.30000	7309.00000
20.35000	8090.00000
20.40000	8964.00000
20.45000	9575.00000
20.50000	9834.00000
20.55000	10083.00000
20.60000	9908.00000
20.65000	9231.00000
20.70000	8433.00000
20.75000	7198.00000
20.80000	6183.00000
20.85000	4952.00000
20.90000	3852.00000
20.95000	3025.00000
21.00000	2290.00000
21.05000	1987.00000
21.10000	1655.00000
21.15000	1378.00000
21.20000	1292.00000
21.25000	1185.00000
21.30000	1176.00000
21.35000	1134.00000
21.40000	1113.00000
21.45000	1087.00000
21.50000	1136.00000
21.55000	1070.00000
21.60000	1136.00000
21.65000	1150.00000
21.70000	1105.00000
21.75000	1136.00000
21.80000	1074.00000
21.85000	1087.00000
21.90000	1028.00000
21.95000	1018.00000
22.00000	962.00000
22.05000	916.00000
22.10000	969.00000
22.15000	891.00000
22.20000	885.00000
22.25000	867.00000
22.30000	878.00000
22.35000	875.00000
22.40000	886.00000
22.45000	882.00000
22.50000	878.00000
22.55000	932.00000
22.60000	867.00000
22.65000	816.00000
22.70000	889.00000
22.75000	861.00000
22.80000	868.00000
22.85000	872.00000
22.90000	847.00000
22.95000	866.00000
23.00000	804.00000
23.05000	855.00000
23.10000	890.00000
23.15000	869.00000
23.20000	859.00000
23.25000	854.00000
23.30000	884.00000
23.35000	913.00000
23.40000	864.00000
23.45000	873.00000
23.50000	875.00000
23.55000	960.00000
23.60000	903.00000
23.65000	902.00000
23.70000	952.00000
23.75000	922.00000
23.80000	965.00000
23.85000	957.00000
23.90000	941.00000
23.95000	932.00000
24.00000	921.00000
24.05000	961.00000
24.10000	944.00000
24.15000	971.00000
24.20000	922.00000
24.25000	936.00000
24.30000	939.00000
24.35000	964.00000
24.40000	917.00000
24.45000	896.00000
24.50000	884.00000
24.55000	902.00000
24.60000	891.00000
24.65000	910.00000
24.70000	935.00000
24.75000	900.00000
24.80000	949.00000
24.85000	987.00000
24.90000	919.00000
24.95000	970.00000
25.00000	1036.00000
25.05000	1106.00000
25.10000	1139.00000
25.15000	1176.00000
25.20000	1164.00000
25.25000	1239.00000
25.30000	1360.00000
25.35000	1433.00000
25.40000	1436.00000
25.45000	1464.00000
25.50000	1481.00000
25.55000	1512.00000
25.60000	1378.00000
25.65000	1360.00000
25.70000	1264.00000
25.75000	1187.00000
25.80000	1195.00000
25.85000	1138.00000
25.90000	1118.00000
25.95000	1138.00000
26.00000	1116.00000
26.05000	1105.00000
26.10000	1135.00000
26.15000	1125.00000
26.20000	1192.00000
26.25000	1111.00000
26.30000	1219.00000
26.35000	1205.00000
26.40000	1228.00000
26.45000	1243.00000
26.50000	1236.00000
26.55000	1245.00000
26.60000	1314.00000
26.65000	1312.00000
26.70000	1267.00000
26.75000	1268.00000
26.80000	1369.00000
26.85000	1410.00000
26.90000	1457.00000
26.95000	1433.00000
27.00000	1529.00000
27.05000	1517.00000
27.10000	1511.00000
27.15000	1465.00000
27.20000	1399.00000
27.25000	1352.00000
27.30000	1335.00000
27.35000	1267.00000
27.40000	1242.00000
27.45000	1274.00000
27.50000	1179.00000
27.55000	1094.00000
27.60000	1147.00000
27.65000	1102.00000
27.70000	1084.00000
27.75000	1191.00000
27.80000	1153.00000
27.85000	1161.00000
27.90000	1099.00000
27.95000	1170.00000
28.00000	1147.00000
28.05000	1186.00000
28.10000	1191.00000
28.15000	1169.00000
28.20000	1157.00000
28.25000	1122.00000
28.30000	1150.00000
28.35000	1175.00000
28.40000	1107.00000
28.45000	1123.00000
28.50000	1108.00000
28.55000	1087.00000
28.60000	1071.00000
28.65000	1164.00000
28.70000	1073.00000
28.75000	1167.00000
28.80000	1103.00000
28.85000	1165.00000
28.90000	1137.00000
28.95000	1276.00000
29.00000	1243.00000
29.05000	1336.00000
29.10000	1404.00000
29.15000	1413.00000
29.20000	1520.00000
29.25000	1617.00000
29.30000	1754.00000
29.35000	1802.00000
29.40000	1951.00000
29.45000	1983.00000
29.50000	1974.00000
29.55000	1996.00000
29.60000	2008.00000
29.65000	1958.00000
29.70000	1817.00000
29.75000	1718.00000
29.80000	1597.00000
29.85000	1512.00000
29.90000	1308.00000
29.95000	1327.00000
30.00000	1315.00000
30.05000	1266.00000
30.10000	1276.00000
30.15000	1234.00000
30.20000	1228.00000
30.25000	1255.00000
30.30000	1244.00000
30.35000	1282.00000
30.40000	1321.00000
30.45000	1265.00000
30.50000	1320.00000
30.55000	1258.00000
30.60000	1344.00000
30.65000	1421.00000
30.70000	1389.00000
30.75000	1458.00000
30.80000	1382.00000
30.85000	1396.00000
30.90000	1392.00000
30.95000	1377.00000
31.00000	1367.00000
31.05000	1340.00000
31.10000	1343.00000
31.15000	1307.00000
31.20000	1333.00000
31.25000	1382.00000
31.30000	1284.00000
31.35000	1313.00000
31.40000	1323.00000
31.45000	1380.00000
31.50000	1300.00000
31.55000	1339.00000
31.60000	1334.00000
31.65000	1374.00000
31.70000	1404.00000
31.75000	1396.00000
31.80000	1314.00000
31.85000	1334.00000
31.90000	1305.00000
31.95000	1335.00000
32.00000	1345.00000
32.05000	1362.00000
32.10000	1285.00000
32.15000	1329.00000
32.20000	1351.00000
32.25000	1377.00000
32.30000	1308.00000
32.35000	1421.00000
32.40000	1391.00000
32.45000	1429.00000
32.50000	1402.00000
32.55000	1429.00000
32.60000	1489.00000
32.65000	1562.00000
32.70000	1630.00000
32.75000	1559.00000
32.80000	1706.00000
32.85000	1740.00000
32.90000	1973.00000
32.95000	1971.00000
33.00000	2325.00000
33.05000	2653.00000
33.10000	3082.00000
33.15000	3701.00000
33.20000	4627.00000
33.25000	5607.00000
33.30000	6868.00000
33.35000	8227.00000
33.40000	9871.00000
33.45000	11820.00000
33.50000	13410.00000
33.55000	15230.00000
33.60000	16520.00000
33.65000	17470.00000
33.70000	17770.00000
33.75000	17680.00000
33.80000	16980.00000
33.85000	16330.00000
33.90000	15020.00000
33.95000	13470.00000
34.00000	11650.00000
34.05000	9869.00000
34.10000	7856.00000
34.15000	6132.00000
34.20000	4968.00000
34.25000	3984.00000
34.30000	3302.00000
34.35000	2818.00000
34.40000	2481.00000
34.45000	2290.00000
34.50000	2118.00000
34.55000	1972.00000
34.60000	1967.00000
34.65000	1888.00000
34.70000	1759.00000
34.75000	1820.00000
34.80000	1774.00000
34.85000	1795.00000
34.90000	1691.00000
34.95000	1683.00000
35.00000	1721.00000
35.05000	1669.00000
35.10000	1619.00000
35.15000	1518.00000
35.20000	1498.00000
35.25000	1457.00000
35.30000	1486.00000
35.35000	1456.00000
35.40000	1476.00000
35.45000	1424.00000
35.50000	1421.00000
35.55000	1378.00000
35.60000	1389.00000
35.65000	1364.00000
35.70000	1360.00000
35.75000	1309.00000
35.80000	1328.00000
35.85000	1372.00000
35.90000	1379.00000
35.95000	1305.00000
36.00000	1346.00000
36.05000	1313.00000
36.10000	1310.00000
36.15000	1321.00000
36.20000	1368.00000
36.25000	1437.00000
36.30000	1387.00000
36.35000	1426.00000
36.40000	1407.00000
36.45000	1470.00000
36.50000	1487.00000
36.55000	1545.00000
36.60000	1723.00000
36.65000	1679.00000
36.70000	1780.00000
36.75000	1806.00000
36.80000	1828.00000
36.85000	1917.00000
36.90000	1934.00000
36.95000	1861.00000
37.00000	1869.00000
37.05000	1826.00000
37.10000	1692.00000
37.15000	1626.00000
37.20000	1512.00000
37.25000	1451.00000
37.30000	1373.00000
37.35000	1444.00000
37.40000	1372.00000
37.45000	1358.00000
37.50000	1415.00000
37.55000	1297.00000
37.60000	1304.00000
37.65000	1273.00000
37.70000	1317.00000
37.75000	1265.00000
37.80000	1288.00000
37.85000	1277.00000
37.90000	1299.00000
37.95000	1311.00000
38.00000	1320.00000
38.05000	1325.00000
38.10000	1360.00000
38.15000	1385.00000
38.20000	1402.00000
38.25000	1446.00000
38.30000	1393.00000
38.35000	1426.00000
38.40000	1420.00000
38.45000	1370.00000
38.50000	1395.00000
38.55000	1306.00000
38.60000	1344.00000
38.65000	1394.00000
38.70000	1373.00000
38.75000	1372.00000
38.80000	1369.00000
38.85000	1382.00000
38.90000	1491.00000
38.95000	1482.00000
39.00000	1499.00000
39.05000	1713.00000
39.10000	1745.00000
39.15000	1791.00000
39.20000	2170.00000
39.25000	2447.00000
39.30000	2765.00000
39.35000	3155.00000
39.40000	3572.00000
39.45000	4086.00000
39.50000	4702.00000
39.55000	5127.00000
39.60000	5457.00000
39.65000	5677.00000
39.70000	6156.00000
39.75000	5936.00000
39.80000	6022.00000
39.85000	5909.00000
39.90000	5221.00000
39.95000	4740.00000
40.00000	4152.00000
40.05000	3440.00000
40.10000	2717.00000
40.15000	2428.00000
40.20000	2017.00000
40.25000	1840.00000
40.30000	1654.00000
40.35000	1514.00000
40.40000	1482.00000
40.45000	1400.00000
40.50000	1390.00000
40.55000	1411.00000
40.60000	1416.00000
40.65000	1355.00000
40.70000	1368.00000
40.75000	1324.00000
40.80000	1344.00000
40.85000	1314.00000
40.90000	1217.00000
40.95000	1227.00000
41.00000	1193.00000
41.05000	1176.00000
41.10000	1212.00000
41.15000	1252.00000
41.20000	1114.00000
41.25000	1104.00000
41.30000	1166.00000
41.35000	1059.00000
41.40000	1111.00000
41.45000	1083.00000
41.50000	1071.00000
41.55000	1158.00000
41.60000	1123.00000
41.65000	1142.00000
41.70000	1110.00000
41.75000	1167.00000
41.80000	1113.00000
41.85000	1184.00000
41.90000	1106.00000
41.95000	1117.00000
42.00000	1082.00000
42.05000	1126.00000
42.10000	1083.00000
42.15000	1186.00000
42.20000	1161.00000
42.25000	1263.00000
42.30000	1189.00000
42.35000	1205.00000
42.40000	1222.00000
42.45000	1225.00000
42.50000	1194.00000
42.55000	1240.00000
42.60000	1273.00000
42.65000	1261.00000
42.70000	1151.00000
42.75000	1209.00000
42.80000	1221.00000
42.85000	1217.00000
42.90000	1174.00000
42.95000	1147.00000
43.00000	1223.00000
43.05000	1219.00000
43.10000	1209.00000
43.15000	1258.00000
43.20000	1235.00000
43.25000	1176.00000
43.30000	1227.00000
43.35000	1290.00000
43.40000	1180.00000
43.45000	1204.00000
43.50000	1293.00000
43.55000	1247.00000
43.60000	1244.00000
43.65000	1217.00000
43.70000	1225.00000
43.75000	1273.00000
43.80000	1242.00000
43.85000	1273.00000
43.90000	1267.00000
43.95000	1310.00000
44.00000	1284.00000
44.05000	1291.00000
44.10000	1410.00000
44.15000	1439.00000
44.20000	1460.00000
44.25000	1509.00000
44.30000	1573.00000
44.35000	1615.00000
44.40000	1601.00000
44.45000	1569.00000
44.50000	1531.00000
44.55000	1510.00000
44.60000	1509.00000
44.65000	1517.00000
44.70000	1528.00000
44.75000	1505.00000
44.80000	1459.00000
44.85000	1520.00000
44.90000	1582.00000
44.95000	1580.00000
45.00000	1588.00000
45.05000	1637.00000
45.10000	1787.00000
45.15000	1821.00000
45.20000	1912.00000
45.25000	2050.00000
45.30000	2020.00000
45.35000	2140.00000
45.40000	2239.00000
45.45000	2299.00000
45.50000	2239.00000
45.55000	2237.00000
45.60000	1991.00000
45.65000	1804.00000
45.70000	1793.00000
45.75000	1700.00000
45.80000	1596.00000
45.85000	1655.00000
45.90000	1497.00000
45.95000	1502.00000
46.00000	1485.00000
46.05000	1597.00000
46.10000	1584.00000
46.15000	1649.00000
46.20000	1647.00000
46.25000	1656.00000
46.30000	1782.00000
46.35000	1829.00000
46.40000	1886.00000
46.45000	1847.00000
46.50000	1986.00000
46.55000	2052.00000
46.60000	2062.00000
46.65000	2104.00000
46.70000	2119.00000
46.75000	2106.00000
46.80000	2069.00000
46.85000	2079.00000
46.90000	2063.00000
46.95000	1883.00000
47.00000	1884.00000
47.05000	1789.00000
47.10000	1790.00000
47.15000	1753.00000
47.20000	1759.00000
47.25000	1734.00000
47.30000	1752.00000
47.35000	1738.00000
47.40000	1790.00000
47.45000	1746.00000
47.50000	1712.00000
47.55000	1809.00000
47.60000	1750.00000
47.65000	1780.00000
47.70000	1773.00000
47.75000	1791.00000
47.80000	1790.00000
47.85000	1905.00000
47.90000	2004.00000
47.95000	2224.00000
48.00000	2606.00000
48.05000	2855.00000
48.10000	3298.00000
48.15000	3811.00000
48.20000	4463.00000
48.25000	4776.00000
48.30000	5391.00000
48.35000	5353.00000
48.40000	5438.00000
48.45000	5137.00000
48.50000	4555.00000
48.55000	3794.00000
48.60000	3117.00000
48.65000	2635.00000
48.70000	2433.00000
48.75000	2087.00000
48.80000	1869.00000
48.85000	1706.00000
48.90000	1657.00000
48.95000	1619.00000
49.00000	1544.00000
49.05000	1507.00000
49.10000	1524.00000
49.15000	1522.00000
49.20000	1479.00000
49.25000	1445.00000
49.30000	1465.00000
49.35000	1446.00000
49.40000	1380.00000
49.45000	1476.00000
49.50000	1360.00000
49.55000	1451.00000
49.60000	1494.00000
49.65000	1526.00000
49.70000	1560.00000
49.75000	1588.00000
49.80000	1599.00000
49.85000	1652.00000
49.90000	1601.00000
49.95000	1627.00000
50.00000	1632.00000
50.05000	1609.00000
50.10000	1517.00000
50.15000	1551.00000
50.20000	1539.00000
50.25000	1427.00000
50.30000	1436.00000
50.35000	1326.00000
50.40000	1328.00000
50.45000	1425.00000
50.50000	1369.00000
50.55000	1321.00000
50.60000	1328.00000
50.65000	1346.00000
50.70000	1234.00000
50.75000	1327.00000
50.80000	1351.00000
50.85000	1322.00000
50.90000	1316.00000
50.95000	1311.00000
51.00000	1354.00000
51.05000	1381.00000
51.10000	1306.00000
51.15000	1251.00000
51.20000	1359.00000
51.25000	1342.00000
51.30000	1277.00000
51.35000	1313.00000
51.40000	1283.00000
51.45000	1370.00000
51.50000	1335.00000
51.55000	1334.00000
51.60000	1352.00000
51.65000	1418.00000
51.70000	1308.00000
51.75000	1340.00000
51.80000	1316.00000
51.85000	1411.00000
51.90000	1418.00000
51.95000	1394.00000
52.00000	1422.00000
52.05000	1336.00000
52.10000	1327.00000
52.15000	1415.00000
52.20000	1495.00000
52.25000	1584.00000
52.30000	1652.00000
52.35000	1760.00000
52.40000	1804.00000
52.45000	1952.00000
52.50000	2108.00000
52.55000	2160.00000
52.60000	2357.00000
52.65000	2491.00000
52.70000	2676.00000
52.75000	2872.00000
52.80000	2939.00000
52.85000	3164.00000
52.90000	3284.00000
52.95000	3321.00000
53.00000	3524.00000
53.05000	3440.00000
53.10000	3434.00000
53.15000	3508.00000
53.20000	3467.00000
53.25000	3245.00000
53.30000	3014.00000
53.35000	2777.00000
53.40000	2507.00000
53.45000	2300.00000
53.50000	2052.00000
53.55000	1895.00000
53.60000	1717.00000
53.65000	1687.00000
53.70000	1740.00000
53.75000	1551.00000
53.80000	1635.00000
53.85000	1557.00000
53.90000	1441.00000
53.95000	1520.00000
54.00000	1516.00000
54.05000	1487.00000
54.10000	1435.00000
54.15000	1366.00000
54.20000	1365.00000
54.25000	1489.00000
54.30000	1441.00000
54.35000	1419.00000
54.40000	1399.00000
54.45000	1391.00000
54.50000	1374.00000
54.55000	1399.00000
54.60000	1380.00000
54.65000	1461.00000
54.70000	1520.00000
54.75000	1510.00000
54.80000	1433.00000
54.85000	1494.00000
54.90000	1459.00000
54.95000	1534.00000
55.00000	1476.00000
55.05000	1507.00000
55.10000	1411.00000
55.15000	1501.00000
55.20000	1487.00000
55.25000	1465.00000
55.30000	1512.00000
55.35000	1487.00000
55.40000	1575.00000
55.45000	1483.00000
55.50000	1583.00000
55.55000	1617.00000
55.60000	1584.00000
55.65000	1689.00000
55.70000	1715.00000
55.75000	1671.00000
55.80000	1624.00000
55.85000	1592.00000
55.90000	1647.00000
55.95000	1547.00000
56.00000	1529.00000
56.05000	1558.00000
56.10000	1620.00000
56.15000	1623.00000
56.20000	1524.00000
56.25000	1590.00000
56.30000	1559.00000
56.35000	1654.00000
56.40000	1554.00000
56.45000	1640.00000
56.50000	1632.00000
56.55000	1586.00000
56.60000	1663.00000
56.65000	1673.00000
56.70000	1593.00000
56.75000	1643.00000
56.80000	1746.00000
56.85000	1757.00000
56.90000	1793.00000
56.95000	1696.00000
57.00000	1693.00000
57.05000	1577.00000
57.10000	1606.00000
57.15000	1705.00000
57.20000	1637.00000
57.25000	1602.00000
57.30000	1578.00000
57.35000	1587.00000
57.40000	1474.00000
57.45000	1583.00000
57.50000	1517.00000
57.55000	1581.00000
57.60000	1503.00000
57.65000	1538.00000
57.70000	1494.00000
57.75000	1583.00000
57.80000	1565.00000
57.85000	1603.00000
57.90000	1637.00000
57.95000	1625.00000
58.00000	1605.00000
58.05000	1611.00000
58.10000	1629.00000
58.15000	1612.00000
58.20000	1642.00000
58.25000	1656.00000
58.30000	1636.00000
58.35000	1757.00000
58.40000	1790.00000
58.45000	1874.00000
58.50000	1918.00000
58.55000	1968.00000
58.60000	2140.00000
58.65000	2198.00000
58.70000	2424.00000
58.75000	2352.00000
58.80000	2407.00000
58.85000	2352.00000
58.90000	2387.00000
58.95000	2162.00000
59.00000	2139.00000
59.05000	2045.00000
59.10000	2010.00000
59.15000	2015.00000
59.20000	2106.00000
59.25000	2146.00000
59.30000	2272.00000
59.35000	2287.00000
59.40000	2539.00000
59.45000	2783.00000
59.50000	2999.00000
59.55000	3363.00000
59.60000	3651.00000
59.65000	3890.00000
59.70000	3949.00000
59.75000	4101.00000
59.80000	4087.00000
59.85000	4166.00000
59.90000	4165.00000
59.95000	4292.00000
60.00000	4772.00000
60.05000	5159.00000
60.10000	5677.00000
60.15000	6024.00000
60.20000	6427.00000
60.25000	6693.00000
60.30000	6429.00000
60.35000	6403.00000
60.40000	5988.00000
60.45000	5463.00000
60.50000	4833.00000
60.55000	4287.00000
60.60000	3758.00000
60.65000	3230.00000
60.70000	2879.00000
60.75000	2646.00000
60.80000	2506.00000
60.85000	2360.00000
60.90000	2160.00000
60.95000	2022.00000
61.00000	2147.00000
61.05000	2002.00000
61.10000	1947.00000
61.15000	1928.00000
61.20000	1981.00000
61.25000	1881.00000
61.30000	1832.00000
61.35000	1964.00000
61.40000	1994.00000
61.45000	1978.00000
61.50000	1974.00000
61.55000	2019.00000
61.60000	2078.00000
61.65000	2084.00000
61.70000	1963.00000
61.75000	2051.00000
61.80000	1997.00000
61.85000	1898.00000
61.90000	1859.00000
61.95000	1905.00000
62.00000	1864.00000
62.05000	1867.00000
62.10000	1893.00000
62.15000	1830.00000
62.20000	1863.00000
62.25000	1976.00000
62.30000	1823.00000
62.35000	1943.00000
62.40000	1877.00000
62.45000	1921.00000
62.50000	1891.00000
62.55000	1917.00000
62.60000	1821.00000
62.65000	1775.00000
62.70000	1745.00000
62.75000	1825.00000
62.80000	1815.00000
62.85000	1728.00000
62.90000	1779.00000
62.95000	1832.00000
63.00000	1742.00000
63.05000	1855.00000
63.10000	1859.00000
63.15000	1938.00000
63.20000	1947.00000
63.25000	1981.00000
63.30000	2103.00000
63.35000	2112.00000
63.40000	2053.00000
63.45000	2089.00000
63.50000	2005.00000
63.55000	1978.00000
63.60000	2113.00000
63.65000	2073.00000
63.70000	2029.00000
63.75000	2154.00000
63.80000	2198.00000
63.85000	2449.00000
63.90000	2455.00000
63.95000	2670.00000
64.00000	2714.00000
64.05000	3010.00000
64.10000	3196.00000
64.15000	3283.00000
64.20000	3444.00000
64.25000	3464.00000
64.30000	3355.00000
64.35000	3348.00000
64.40000	3129.00000
64.45000	2926.00000
64.50000	2695.00000
64.55000	2475.00000
64.60000	2308.00000
64.65000	2236.00000
64.70000	2189.00000
64.75000	1973.00000
64.80000	1941.00000
64.85000	2008.00000
64.90000	1950.00000
64.95000	1867.00000
65.00000	1928.00000
65.05000	2032.00000
65.10000	2039.00000
65.15000	1962.00000
65.20000	1878.00000
65.25000	1885.00000
65.30000	1904.00000
65.35000	1880.00000
65.40000	1830.00000
65.45000	1757.00000
65.50000	1781.00000
65.55000	1761.00000
65.60000	1661.00000
65.65000	1744.00000
65.70000	1642.00000
65.75000	1658.00000
65.80000	1724.00000
65.85000	1663.00000
65.90000	1694.00000
65.95000	1641.00000
66.00000	1741.00000
66.05000	1724.00000
66.10000	1746.00000
66.15000	1677.00000
66.20000	1757.00000
66.25000	1776.00000
66.30000	1753.00000
66.35000	1800.00000
66.40000	1747.00000
66.45000	1855.00000
66.50000	1857.00000
66.55000	1783.00000
66.60000	1841.00000
66.65000	1803.00000
66.70000	1776.00000
66.75000	1760.00000
66.80000	1800.00000
66.85000	1748.00000
66.90000	1645.00000
66.95000	1703.00000
67.00000	1673.00000
67.05000	1712.00000
67.10000	1654.00000
67.15000	1635.00000
67.20000	1650.00000
67.25000	1618.00000
67.30000	1553.00000
67.35000	1735.00000
67.40000	1662.00000
67.45000	1573.00000
67.50000	1660.00000
67.55000	1694.00000
67.60000	1773.00000
67.65000	1686.00000
67.70000	1700.00000
67.75000	1870.00000
67.80000	1714.00000
67.85000	1799.00000
67.90000	1743.00000
67.95000	1661.00000
68.00000	1785.00000
68.05000	1635.00000
68.10000	1663.00000
68.15000	1593.00000
68.20000	1666.00000
68.25000	1622.00000
68.30000	1551.00000
68.35000	1558.00000
68.40000	1645.00000
68.45000	1594.00000
68.50000	1457.00000
68.55000	1539.00000
68.60000	1536.00000
68.65000	1526.00000
68.70000	1438.00000
68.75000	1507.00000
68.80000	1423.00000
68.85000	1516.00000
68.90000	1432.00000
68.95000	1489.00000
69.00000	1459.00000
69.05000	1541.00000
69.10000	1514.00000
69.15000	1533.00000
69.20000	1610.00000
69.25000	1590.00000
69.30000	1577.00000
69.35000	1659.00000
69.40000	1581.00000
69.45000	1648.00000
69.50000	1616.00000
69.55000	1587.00000
69.60000	1625.00000
69.65000	1610.00000
69.70000	1617.00000
69.75000	1586.00000
69.80000	1617.00000
69.85000	1653.00000
69.90000	1734.00000
69.95000	1708.00000
70.00000	1883.00000
70.05000	1886.00000
70.10000	1978.00000
70.15000	2153.00000
70.20000	2317.00000
70.25000	2267.00000
70.30000	2434.00000
70.35000	2345.00000
70.40000	2418.00000
70.45000	2331.00000
70.50000	2146.00000
70.55000	2270.00000
70.60000	2237.00000
70.65000	2253.00000
70.70000	2190.00000
70.75000	2277.00000
70.80000	2426.00000
70.85000	2392.00000
70.90000	2538.00000
70.95000	2586.00000
71.00000	2524.00000
71.05000	2509.00000
71.10000	2422.00000
71.15000	2320.00000
71.20000	2184.00000
71.25000	2077.00000
71.30000	1980.00000
71.35000	1884.00000
71.40000	1874.00000
71.45000	1864.00000
71.50000	1853.00000
71.55000	1835.00000
71.60000	1733.00000
71.65000	1771.00000
71.70000	1727.00000
71.75000	1762.00000
71.80000	1742.00000
71.85000	1730.00000
71.90000	1724.00000
71.95000	1693.00000
72.00000	1656.00000
72.05000	1650.00000
72.10000	1706.00000
72.15000	1649.00000
72.20000	1570.00000
72.25000	1652.00000
72.30000	1558.00000
72.35000	1574.00000
72.40000	1506.00000
72.45000	1520.00000
72.50000	1585.00000
72.55000	1598.00000
72.60000	1584.00000
72.65000	1592.00000
72.70000	1546.00000
72.75000	1585.00000
72.80000	1508.00000
72.85000	1512.00000
72.90000	1576.00000
72.95000	1510.00000
73.00000	1524.00000
73.05000	1513.00000
73.10000	1550.00000
73.15000	1540.00000
73.20000	1543.00000
73.25000	1609.00000
73.30000	1644.00000
73.35000	1637.00000
73.40000	1702.00000
73.45000	1814.00000
73.50000	1824.00000
73.55000	1957.00000
73.60000	2038.00000
73.65000	2065.00000
73.70000	2137.00000
73.75000	2269.00000
73.80000	2168.00000
73.85000	2363.00000
73.90000	2397.00000
73.95000	2395.00000
74.00000	2478.00000
74.05000	2429.00000
74.10000	2347.00000
74.15000	2385.00000
74.20000	2465.00000
74.25000	2495.00000
74.30000	2497.00000
74.35000	2498.00000
74.40000	2638.00000
74.45000	2628.00000
74.50000	2744.00000
74.55000	2766.00000
74.60000	2744.00000
74.65000	2767.00000
74.70000	2724.00000
74.75000	2649.00000
74.80000	2531.00000
74.85000	2477.00000
74.90000	2278.00000
74.95000	2189.00000
75.00000	1971.00000
75.05000	2077.00000
75.10000	2000.00000
75.15000	2050.00000
75.20000	1989.00000
75.25000	2086.00000
75.30000	2158.00000
75.35000	2106.00000
75.40000	2111.00000
75.45000	2103.00000
75.50000	1896.00000
75.55000	1999.00000
75.60000	1920.00000
75.65000	1828.00000
75.70000	1773.00000
75.75000	1718.00000
75.80000	1815.00000
75.85000	1733.00000
75.90000	1765.00000
75.95000	1716.00000
76.00000	1703.00000
76.05000	1746.00000
76.10000	1705.00000
76.15000	1785.00000
76.20000	1725.00000
76.25000	1642.00000
76.30000	1665.00000
76.35000	1677.00000
76.40000	1724.00000
76.45000	1688.00000
76.50000	1764.00000
76.55000	1664.00000
76.60000	1744.00000
76.65000	1782.00000
76.70000	1785.00000
76.75000	1756.00000
76.80000	1720.00000
76.85000	1728.00000
76.90000	1710.00000
76.95000	1680.00000
77.00000	1727.00000
77.05000	1727.00000
77.10000	1754.00000
77.15000	1711.00000
77.20000	1608.00000
77.25000	1600.00000
77.30000	1723.00000
77.35000	1667.00000
77.40000	1666.00000
77.45000	1566.00000
77.50000	1696.00000
77.55000	1650.00000
77.60000	1659.00000
77.65000	1725.00000
77.70000	1716.00000
77.75000	1710.00000
77.80000	1843.00000
77.85000	1761.00000
77.90000	1814.00000
77.95000	1781.00000
78.00000	1722.00000
78.05000	1735.00000
78.10000	1828.00000
78.15000	1845.00000
78.20000	1765.00000
78.25000	1868.00000
78.30000	1797.00000
78.35000	1916.00000
78.40000	1932.00000
78.45000	2017.00000
78.50000	2066.00000
78.55000	2183.00000
78.60000	2172.00000
78.65000	2031.00000
78.70000	2031.00000
78.75000	1961.00000
78.80000	1967.00000
78.85000	1899.00000
78.90000	1931.00000
78.95000	1847.00000
79.00000	1844.00000
79.05000	1877.00000
79.10000	1686.00000
79.15000	1834.00000
79.20000	1831.00000
79.25000	1929.00000
79.30000	1887.00000
79.35000	1935.00000
79.40000	1982.00000
79.45000	2097.00000
79.50000	2068.00000
79.55000	2026.00000
79.60000	2037.00000
79.65000	1987.00000
79.70000	1998.00000
79.75000	2039.00000
79.80000	2035.00000
79.85000	2062.00000
79.90000	2154.00000
79.95000	2187.00000
80.00000	2274.00000
80.05000	2435.00000
80.10000	2647.00000
80.15000	2722.00000
80.20000	2922.00000
80.25000	2847.00000
80.30000	2963.00000
80.35000	2859.00000
80.40000	2893.00000
80.45000	2787.00000
80.50000	2849.00000
80.55000	2906.00000
80.60000	3075.00000
80.65000	3044.00000
80.70000	3103.00000
80.75000	3073.00000
80.80000	2926.00000
80.85000	2846.00000
80.90000	2674.00000
80.95000	2488.00000
81.00000	2252.00000
81.05000	2175.00000
81.10000	1994.00000
81.15000	1969.00000
81.20000	1927.00000
81.25000	1860.00000
81.30000	1810.00000
81.35000	1772.00000
81.40000	1801.00000
81.45000	1831.00000
81.50000	1861.00000
81.55000	1792.00000
81.60000	1771.00000
81.65000	1771.00000
81.70000	1844.00000
81.75000	1828.00000
81.80000	1752.00000
81.85000	1813.00000
81.90000	1762.00000
81.95000	1798.00000
82.00000	1789.00000
82.05000	1796.00000
82.10000	1731.00000
82.15000	1803.00000
82.20000	1775.00000
82.25000	1710.00000
82.30000	1723.00000
82.35000	1700.00000
82.40000	1735.00000
82.45000	1657.00000
82.50000	1745.00000
82.55000	1697.00000
82.60000	1745.00000
82.65000	1680.00000
82.70000	1748.00000
82.75000	1694.00000
82.80000	1730.00000
82.85000	1683.00000
82.90000	1698.00000
82.95000	1674.00000
83.00000	1695.00000
83.05000	1698.00000
83.10000	1779.00000
83.15000	1682.00000
83.20000	1735.00000
83.25000	1835.00000
83.30000	1775.00000
83.35000	1736.00000
83.40000	1796.00000
83.45000	1808.00000
83.50000	1764.00000
83.55000	1750.00000
83.60000	1746.00000
83.65000	1682.00000
83.70000	1714.00000
83.75000	1705.00000
83.80000	1751.00000
83.85000	1740.00000
83.90000	1681.00000
83.95000	1727.00000
84.00000	1829.00000
84.05000	1820.00000
84.10000	1910.00000
84.15000	2020.00000
84.20000	1925.00000
84.25000	2079.00000
84.30000	1974.00000
84.35000	2079.00000
84.40000	2074.00000
84.45000	1956.00000
84.50000	1994.00000
84.55000	1985.00000
84.60000	1945.00000
84.65000	1940.00000
84.70000	1854.00000
84.75000	1897.00000
84.80000	1890.00000
84.85000	1747.00000
84.90000	1805.00000
84.95000	1768.00000
85.00000	1738.00000
85.05000	1751.00000
85.10000	1661.00000
85.15000	1655.00000
85.20000	1700.00000
85.25000	1647.00000
85.30000	1720.00000
85.35000	1640.00000
85.40000	1686.00000
85.45000	1666.00000
85.50000	1669.00000
85.55000	1589.00000
85.60000	1603.00000
85.65000	1644.00000
85.70000	1660.00000
85.75000	1560.00000
85.80000	1616.00000
85.85000	1589.00000
85.90000	1596.00000
85.95000	1603.00000
86.00000	1617.00000
86.05000	1625.00000
86.10000	1593.00000
86.15000	1681.00000
86.20000	1680.00000
86.25000	1693.00000
86.30000	1641.00000
86.35000	1638.00000
86.40000	1669.00000
86.45000	1642.00000
86.50000	1693.00000
86.55000	1672.00000
86.60000	1624.00000
86.65000	1651.00000
86.70000	1585.00000
86.75000	1637.00000
86.80000	1585.00000
86.85000	1564.00000
86.90000	1597.00000
86.95000	1602.00000
87.00000	1662.00000
87.05000	1651.00000
87.10000	1575.00000
87.15000	1634.00000
87.20000	1648.00000
87.25000	1609.00000
87.30000	1611.00000
87.35000	1700.00000
87.40000	1731.00000
87.45000	1706.00000
87.50000	1716.00000
87.55000	1721.00000
87.60000	1759.00000
87.65000	1635.00000
87.70000	1695.00000
87.75000	1647.00000
87.80000	1603.00000
87.85000	1630.00000
87.90000	1674.00000
87.95000	1652.00000
88.00000	1625.00000
88.05000	1607.00000
88.10000	1643.00000
88.15000	1645.00000
88.20000	1624.00000
88.25000	1611.00000
88.30000	1604.00000
88.35000	1594.00000
88.40000	1591.00000
88.45000	1599.00000
88.50000	1575.00000
88.55000	1608.00000
88.60000	1638.00000
88.65000	1669.00000
88.70000	1644.00000
88.75000	1587.00000
88.80000	1566.00000
88.85000	1658.00000
88.90000	1679.00000
88.95000	1645.00000
89.00000	1705.00000
89.05000	1670.00000
89.10000	1729.00000
89.15000	1750.00000
89.20000	1814.00000
89.25000	1786.00000
89.30000	1788.00000
89.35000	1718.00000
89.40000	1805.00000
89.45000	1862.00000
89.50000	1888.00000
89.55000	1915.00000
89.60000	2006.00000
89.65000	2096.00000
89.70000	1972.00000
89.75000	2013.00000
89.80000	2034.00000
89.85000	2021.00000
89.90000	2104.00000
89.95000	2067.00000
90.00000	1990.00000
90.05000	1963.00000
90.10000	2017.00000
90.15000	2025.00000
90.20000	2092.00000
90.25000	1985.00000
90.30000	2078.00000
90.35000	2037.00000
90.40000	2158.00000
90.45000	2159.00000
90.50000	2195.00000
90.55000	2056.00000
90.60000	1980.00000
90.65000	1994.00000
90.70000	2033.00000
90.75000	1965.00000
90.80000	1955.00000
90.85000	1855.00000
90.90000	1969.00000
90.95000	1900.00000
91.00000	1898.00000
91.05000	1901.00000
91.10000	1974.00000
91.15000	1959.00000
91.20000	1843.00000
91.25000	1907.00000
91.30000	1928.00000
91.35000	1848.00000
91.40000	1884.00000
91.45000	1923.00000
91.50000	1944.00000
91.55000	1940.00000
91.60000	1782.00000
91.65000	1856.00000
91.70000	1827.00000
91.75000	1885.00000
91.80000	1810.00000
91.85000	1914.00000
91.90000	1826.00000
91.95000	1804.00000
92.00000	1786.00000
92.05000	1848.00000
92.10000	1850.00000
92.15000	1874.00000
92.20000	1862.00000
92.25000	1975.00000
92.30000	1899.00000
92.35000	1886.00000
92.40000	1906.00000
92.45000	1957.00000
92.50000	1843.00000
92.55000	1889.00000
92.60000	1970.00000
92.65000	1950.00000
92.70000	1912.00000
92.75000	1916.00000
92.80000	1916.00000
92.85000	1904.00000
92.90000	1962.00000
92.95000	2020.00000
93.00000	1937.00000
93.05000	2028.00000
93.10000	1989.00000
93.15000	1964.00000
93.20000	1921.00000
93.25000	1999.00000
93.30000	2044.00000
93.35000	2019.00000
93.40000	1977.00000
93.45000	2107.00000
93.50000	2092.00000
93.55000	2045.00000
93.60000	2116.00000
93.65000	2118.00000
93.70000	2079.00000
93.75000	2126.00000
93.80000	2077.00000
93.85000	2097.00000
93.90000	2180.00000
93.95000	2104.00000
94.00000	2035.00000
94.05000	2194.00000
94.10000	2072.00000
94.15000	2119.00000
94.20000	1992.00000
94.25000	2091.00000
94.30000	1949.00000
94.35000	1862.00000
94.40000	1890.00000
94.45000	1925.00000
94.50000	1845.00000
94.55000	1807.00000
94.60000	1854.00000
94.65000	1781.00000
94.70000	1795.00000
94.75000	1845.00000
94.80000	1727.00000
94.85000	1810.00000
94.90000	1814.00000
94.95000	1801.00000
95.00000	1858.00000
95.05000	1858.00000
95.10000	1906.00000
95.15000	2048.00000
95.20000	2020.00000
95.25000	1982.00000
95.30000	2116.00000
95.35000	1977.00000
95.40000	1892.00000
95.45000	1987.00000
95.50000	1947.00000
95.55000	1887.00000
95.60000	1956.00000
95.65000	1848.00000
95.70000	1890.00000
95.75000	1887.00000
95.80000	1753.00000
95.85000	1882.00000
95.90000	1831.00000
95.95000	1845.00000
96.00000	1889.00000
96.05000	1993.00000
96.10000	1949.00000
96.15000	1957.00000
96.20000	1829.00000
96.25000	1802.00000
96.30000	1857.00000
96.35000	1859.00000
96.40000	1739.00000
96.45000	1925.00000
96.50000	1872.00000
96.55000	1788.00000
96.60000	1735.00000
96.65000	1785.00000
96.70000	1799.00000
96.75000	1780.00000
96.80000	1799.00000
96.85000	1788.00000
96.90000	1804.00000
96.95000	1779.00000
97.00000	1732.00000
97.05000	1673.00000
97.10000	1747.00000
97.15000	1688.00000
97.20000	1806.00000
97.25000	1789.00000
97.30000	1812.00000
97.35000	1715.00000
97.40000	1733.00000
97.45000	1766.00000
97.50000	1821.00000
97.55000	1776.00000
97.60000	1786.00000
97.65000	1826.00000
97.70000	1869.00000
97.75000	1898.00000
97.80000	1882.00000
97.85000	1846.00000
97.90000	1852.00000
97.95000	1894.00000
98.00000	1901.00000
98.05000	1943.00000
98.10000	1925.00000
98.15000	1821.00000
98.20000	1894.00000
98.25000	1901.00000
98.30000	1858.00000
98.35000	1785.00000
98.40000	1880.00000
98.45000	1869.00000
98.50000	2012.00000
98.55000	2006.00000
98.60000	2061.00000
98.65000	2086.00000
98.70000	2184.00000
98.75000	2078.00000
98.80000	2183.00000
98.85000	2137.00000
98.90000	2270.00000
98.95000	2187.00000
99.00000	2251.00000
99.05000	2256.00000
99.10000	2307.00000
99.15000	2348.00000
99.20000	2450.00000
99.25000	2508.00000
99.30000	2492.00000
99.35000	2515.00000
99.40000	2599.00000
99.45000	2592.00000
99.50000	2470.00000
99.55000	2536.00000
99.60000	2556.00000
99.65000	2557.00000
99.70000	2478.00000
99.75000	2471.00000
99.80000	2664.00000
99.85000	2649.00000
99.90000	2659.00000
99.95000	2688.00000
100.00000	2747.00000
100.05000	2728.00000
100.10000	2738.00000
100.15000	2838.00000
100.20000	2758.00000
100.25000	2825.00000
100.30000	2658.00000
100.35000	2501.00000
100.40000	2499.00000
100.45000	2374.00000
100.50000	2381.00000
100.55000	2221.00000
100.60000	2147.00000
100.65000	2145.00000
100.70000	2105.00000
100.75000	2123.00000
100.80000	2123.00000
100.85000	2051.00000
100.90000	2143.00000
100.95000	2058.00000
101.00000	2141.00000
101.05000	1938.00000
101.10000	2010.00000
101.15000	1997.00000
101.20000	2051.00000
101.25000	2059.00000
101.30000	2046.00000
101.35000	2110.00000
101.40000	2065.00000
101.45000	2096.00000
101.50000	2049.00000
101.55000	2037.00000
101.60000	1968.00000
101.65000	2057.00000
101.70000	2059.00000
101.75000	2030.00000
101.80000	2083.00000
101.85000	2077.00000
101.90000	2081.00000
101.95000	2008.00000
102.00000	2119.00000
102.05000	2029.00000
102.10000	2077.00000
102.15000	2106.00000
102.20000	2065.00000
102.25000	2033.00000
102.30000	2002.00000
102.35000	2125.00000
102.40000	2059.00000
102.45000	2055.00000
102.50000	2071.00000
102.55000	2173.00000
102.60000	2128.00000
102.65000	2291.00000
102.70000	2199.00000
102.75000	2202.00000
102.80000	2242.00000
102.85000	2168.00000
102.90000	2291.00000
102.95000	2248.00000
103.00000	2284.00000
103.05000	2266.00000
103.10000	2343.00000
103.15000	2291.00000
103.20000	2309.00000
103.25000	2415.00000
103.30000	2291.00000
103.35000	2361.00000
103.40000	2412.00000
103.45000	2397.00000
103.50000	2430.00000
103.55000	2451.00000
103.60000	2394.00000
103.65000	2434.00000
103.70000	2432.00000
103.75000	2522.00000
103.80000	2389.00000
103.85000	2410.00000
103.90000	2345.00000
103.95000	2265.00000
104.00000	2205.00000
104.05000	2235.00000
104.10000	2225.00000
104.15000	2147.00000
104.20000	2132.00000
104.25000	2165.00000
104.30000	2152.00000
104.35000	2186.00000
104.40000	2175.00000
104.45000	2093.00000
104.50000	2206.00000
104.55000	2109.00000
104.60000	2009.00000
104.65000	2040.00000
104.70000	1970.00000
104.75000	2035.00000
104.80000	1922.00000
104.85000	1902.00000
104.90000	1908.00000
104.95000	1877.00000
105.00000	1904.00000
105.05000	1898.00000
105.10000	1852.00000
105.15000	1906.00000
105.20000	1872.00000
105.25000	1855.00000
105.30000	1889.00000
105.35000	1832.00000
105.40000	1894.00000
105.45000	1832.00000
105.50000	1860.00000
105.55000	1822.00000
105.60000	1807.00000
105.65000	1881.00000
105.70000	1767.00000
105.75000	1832.00000
105.80000	1915.00000
105.85000	1785.00000
105.90000	1786.00000
105.95000	1715.00000
106.00000	1758.00000
106.05000	1771.00000
106.10000	1689.00000
106.15000	1822.00000
106.20000	1766.00000
106.25000	1707.00000
106.30000	1781.00000
106.35000	1750.00000
106.40000	1729.00000
106.45000	1776.00000
106.50000	1806.00000
106.55000	1753.00000
106.60000	1760.00000
106.65000	1723.00000
106.70000	1789.00000
106.75000	1790.00000
106.80000	1717.00000
106.85000	1815.00000
106.90000	1834.00000
106.95000	1808.00000
107.00000	1793.00000
107.05000	1878.00000
107.10000	1883.00000
107.15000	1748.00000
107.20000	1893.00000
107.25000	1748.00000
107.30000	1880.00000
107.35000	1891.00000
107.40000	1829.00000
107.45000	1880.00000
107.50000	1851.00000
107.55000	1915.00000
107.60000	1864.00000
107.65000	1823.00000
107.70000	1884.00000
107.75000	1897.00000
107.80000	1721.00000
107.85000	1849.00000
107.90000	1765.00000
107.95000	1766.00000
108.00000	1843.00000
108.05000	1764.00000
108.10000	1838.00000
108.15000	1811.00000
108.20000	1864.00000
108.25000	1729.00000
108.30000	1765.00000
108.35000	1844.00000
108.40000	1703.00000
108.45000	1753.00000
108.50000	1765.00000
108.55000	1808.00000
108.60000	1767.00000
108.65000	1802.00000
108.70000	1781.00000
108.75000	1754.00000
108.80000	1700.00000
108.85000	1728.00000
108.90000	1765.00000
108.95000	1713.00000
109.00000	1752.00000
109.05000	1771.00000
109.10000	1778.00000
109.15000	1730.00000
109.20000	1770.00000
109.25000	1769.00000
109.30000	1792.00000
109.35000	1821.00000
109.40000	1825.00000
109.45000	1827.00000
109.50000	1843.00000
109.55000	1838.00000
109.60000	1832.00000
109.65000	1845.00000
109.70000	1763.00000
109.75000	1779.00000
109.80000	1784.00000
109.85000	1721.00000
109.90000	1734.00000
109.95000	1840.00000
110.00000	1869.00000
110.05000	1797.00000
110.10000	1793.00000
110.15000	1835.00000
110.20000	1857.00000
110.25000	1831.00000
110.30000	1835.00000
110.35000	1775.00000
110.40000	1772.00000
110.45000	1805.00000
110.50000	1781.00000
110.55000	1793.00000
110.60000	1747.00000
110.65000	1723.00000
110.70000	1805.00000
110.75000	1764.00000
110.80000	1779.00000
110.85000	1730.00000
110.90000	1710.00000
110.95000	1755.00000
111.00000	1748.00000
111.05000	1700.00000
111.10000	1782.00000
111.15000	1699.00000
111.20000	1675.00000
111.25000	1715.00000
111.30000	1687.00000
111.35000	1694.00000
111.40000	1755.00000
111.45000	1718.00000
111.50000	1653.00000
111.55000	1675.00000
111.60000	1746.00000
111.65000	1706.00000
111.70000	1793.00000
111.75000	1817.00000
111.80000	1769.00000
111.85000	1842.00000
111.90000	1792.00000
111.95000	1808.00000
112.00000	1840.00000
112.05000	1834.00000
112.10000	1846.00000
112.15000	1838.00000
112.20000	1769.00000
112.25000	1820.00000
112.30000	1824.00000
112.35000	1814.00000
112.40000	1778.00000
112.45000	1761.00000
112.50000	1762.00000
112.55000	1799.00000
112.60000	1758.00000
112.65000	1809.00000
112.70000	1736.00000
112.75000	1875.00000
112.80000	1738.00000
112.85000	1725.00000
112.90000	1771.00000
112.95000	1718.00000
113.00000	1723.00000
113.05000	1767.00000
113.10000	1740.00000
113.15000	1739.00000
113.20000	1713.00000
113.25000	1776.00000
113.30000	1724.00000
113.35000	1758.00000
113.40000	1825.00000
113.45000	1770.00000
113.50000	1731.00000
113.55000	1801.00000
113.60000	1815.00000
113.65000	1798.00000
113.70000	1788.00000
113.75000	1804.00000
113.80000	1889.00000
113.85000	1714.00000
113.90000	1886.00000
113.95000	1782.00000
114.00000	1792.00000
114.05000	1800.00000
114.10000	1727.00000
114.15000	1858.00000
114.20000	1743.00000
114.25000	1743.00000
114.30000	1806.00000
114.35000	1719.00000
114.40000	1744.00000
114.45000	1699.00000
114.50000	1772.00000
114.55000	1767.00000
114.60000	1659.00000
114.65000	1696.00000
114.70000	1647.00000
114.75000	1713.00000
114.80000	1612.00000
114.85000	1734.00000
114.90000	1716.00000
114.95000	1679.00000
115.00000	1751.00000
115.05000	1723.00000
115.10000	1756.00000
115.15000	1644.00000
115.20000	1880.00000
115.25000	1669.00000
115.30000	1717.00000
115.35000	1743.00000
115.40000	1775.00000
115.45000	1684.00000
115.50000	1657.00000
115.55000	1771.00000
115.60000	1726.00000
115.65000	1696.00000
115.70000	1756.00000
115.75000	1639.00000
115.80000	1729.00000
115.85000	1700.00000
115.90000	1680.00000
115.95000	1696.00000
116.00000	1636.00000
116.05000	1589.00000
116.10000	1700.00000
116.15000	1608.00000
116.20000	1619.00000
116.25000	1529.00000
116.30000	1530.00000
116.35000	1652.00000
116.40000	1620.00000
116.45000	1593.00000
116.50000	1575.00000
116.55000	1591.00000
116.60000	1587.00000
116.65000	1552.00000
116.70000	1546.00000
116.75000	1622.00000
116.80000	1587.00000
116.85000	1554.00000
116.90000	1577.00000
116.95000	1583.00000
117.00000	1555.00000
117.05000	1560.00000
117.10000	1585.00000
117.15000	1677.00000
117.20000	1582.00000
117.25000	1612.00000
117.30000	1633.00000
117.35000	1529.00000
117.40000	1547.00000
117.45000	1577.00000
117.50000	1606.00000
117.55000	1591.00000
117.60000	1616.00000
117.65000	1574.00000
117.70000	1568.00000
117.75000	1524.00000
117.80000	1575.00000
117.85000	1584.00000
117.90000	1614.00000
117.95000	1579.00000
118.00000	1633.00000
118.05000	1594.00000
118.10000	1640.00000
118.15000	1602.00000
118.20000	1600.00000
118.25000	1615.00000
118.30000	1619.00000
118.35000	1577.00000
118.40000	1530.00000
118.45000	1639.00000
118.50000	1638.00000
118.55000	1654.00000
118.60000	1660.00000
118.65000	1682.00000
118.70000	1653.00000
118.75000	1639.00000
118.80000	1640.00000
118.85000	1702.00000
118.90000	1654.00000
118.95000	1725.00000
119.00000	1740.00000
119.05000	1724.00000
119.10000	1777.00000
119.15000	1637.00000
119.20000	1737.00000
119.25000	1743.00000
119.30000	1742.00000
119.35000	1722.00000
119.40000	1746.00000
119.45000	1745.00000
119.50000	1733.00000
119.55000	1687.00000
119.60000	1847.00000
119.65000	1813.00000
119.70000	1691.00000
119.75000	1755.00000
119.80000	1666.00000
119.85000	1776.00000
119.90000	1839.00000
119.95000	1841.00000
120.00000	1788.00000
120.05000	1858.00000
120.10000	1874.00000
120.15000	1845.00000
120.20000	1848.00000
120.25000	1863.00000
120.30000	1851.00000
120.35000	1857.00000
120.40000	1784.00000
120.45000	1875.00000
120.50000	1836.00000
120.55000	1918.00000
120.60000	1838.00000
120.65000	1894.00000
120.70000	1884.00000
120.75000	1859.00000
120.80000	1765.00000
120.85000	1840.00000
120.90000	1857.00000
120.95000	1804.00000
121.00000	1794.00000
121.05000	1755.00000
121.10000	1744.00000
121.15000	1766.00000
121.20000	1753.00000
121.25000	1763.00000
121.30000	1677.00000
121.35000	1734.00000
121.40000	1732.00000
121.45000	1827.00000
121.50000	1744.00000
121.55000	1728.00000
121.60000	1684.00000
121.65000	1720.00000
121.70000	1744.00000
121.75000	1748.00000
121.80000	1640.00000
121.85000	1715.00000
121.90000	1644.00000
121.95000	1749.00000
122.00000	1749.00000
122.05000	1733.00000
122.10000	1703.00000
122.15000	1645.00000
122.20000	1695.00000
122.25000	1679.00000
122.30000	1663.00000
122.35000	1620.00000
122.40000	1620.00000
122.45000	1644.00000
122.50000	1685.00000
122.55000	1633.00000
122.60000	1683.00000
122.65000	1704.00000
122.70000	1604.00000
122.75000	1728.00000
122.80000	1745.00000
122.85000	1699.00000
122.90000	1729.00000
122.95000	1764.00000
123.00000	1754.00000
123.05000	1751.00000
123.10000	1776.00000
123.15000	1749.00000
123.20000	1655.00000
123.25000	1756.00000
123.30000	1739.00000
123.35000	1751.00000
123.40000	1735.00000
123.45000	1724.00000
123.50000	1702.00000
123.55000	1745.00000
123.60000	1717.00000
123.65000	1651.00000
123.70000	1710.00000
123.75000	1700.00000
123.80000	1690.00000
123.85000	1639.00000
123.90000	1730.00000
123.95000	1707.00000
124.00000	1737.00000
124.05000	1741.00000
124.10000	1699.00000
124.15000	1682.00000
124.20000	1740.00000
124.25000	1705.00000
124.30000	1696.00000
124.35000	1700.00000
124.40000	1655.00000
124.45000	1746.00000
124.50000	1799.00000
124.55000	1759.00000
124.60000	1759.00000
124.65000	1736.00000
124.70000	1692.00000
124.75000	1738.00000
124.80000	1690.00000
124.85000	1724.00000
124.90000	1675.00000
124.95000	1674.00000
125.00000	1698.00000
125.05000	1662.00000
125.10000	1707.00000
125.15000	1796.00000
125.20000	1657.00000
125.25000	1697.00000
125.30000	1690.00000
125.35000	1702.00000
125.40000	1695.00000
125.45000	1642.00000
125.50000	1716.00000
125.55000	1652.00000
125.60000	1614.00000
125.65000	1661.00000
125.70000	1619.00000
125.75000	1670.00000
125.80000	1660.00000
125.85000	1595.00000
125.90000	1598.00000
125.95000	1594.00000
126.00000	1617.00000
126.05000	1641.00000
126.10000	1663.00000
126.15000	1625.00000
126.20000	1609.00000
126.25000	1579.00000
126.30000	1629.00000
126.35000	1521.00000
126.40000	1599.00000
126.45000	1535.00000
126.50000	1643.00000
126.55000	1573.00000
126.60000	1536.00000
126.65000	1554.00000
126.70000	1530.00000
126.75000	1573.00000
126.80000	1513.00000
126.85000	1550.00000
126.90000	1604.00000
126.95000	1573.00000
127.00000	1634.00000
127.05000	1557.00000
127.10000	1561.00000
127.15000	1547.00000
127.20000	1575.00000
127.25000	1527.00000
127.30000	1622.00000
127.35000	1622.00000
127.40000	1535.00000
127.45000	1526.00000
127.50000	1489.00000
127.55000	1597.00000
127.60000	1617.00000
127.65000	1608.00000
127.70000	1511.00000
127.75000	1567.00000
127.80000	1579.00000
127.85000	1544.00000
127.90000	1591.00000
127.95000	1514.00000
128.00000	1517.00000
128.05000	1577.00000
128.10000	1558.00000
128.15000	1589.00000
128.20000	1566.00000
128.25000	1552.00000
128.30000	1573.00000
128.35000	1560.00000
128.40000	1608.00000
128.45000	1549.00000
128.50000	1610.00000
128.55000	1470.00000
128.60000	1594.00000
128.65000	1596.00000
128.70000	1563.00000
128.75000	1522.00000
128.80000	1505.00000
128.85000	1591.00000
128.90000	1568.00000
128.95000	1578.00000
129.00000	1607.00000
129.05000	1505.00000
129.10000	1564.00000
129.15000	1567.00000
129.20000	1635.00000
129.25000	1600.00000
129.30000	1570.00000
129.35000	1658.00000
129.40000	1604.00000
129.45000	1625.00000
129.50000	1556.00000
129.55000	1661.00000
129.60000	1603.00000
129.65000	1675.00000
129.70000	1629.00000
129.75000	1648.00000
129.80000	1665.00000
129.85000	1673.00000
129.90000	1722.00000
129.95000	1668.00000
130.00000	1685.00000
130.05000	1625.00000
130.10000	1636.00000
130.15000	1668.00000
130.20000	1666.00000
130.25000	1628.00000
130.30000	1684.00000
130.35000	1601.00000
130.40000	1629.00000
130.45000	1671.00000
130.50000	1643.00000
130.55000	1627.00000
130.60000	1645.00000
130.65000	1637.00000
130.70000	1671.00000
130.75000	1695.00000
130.80000	1586.00000
130.85000	1594.00000
130.90000	1646.00000
130.95000	1638.00000
131.00000	1748.00000
131.05000	1658.00000
131.10000	1684.00000
131.15000	1650.00000
131.20000	1615.00000
131.25000	1710.00000
131.30000	1657.00000
131.35000	1752.00000
131.40000	1741.00000
131.45000	1704.00000
131.50000	1779.00000
131.55000	1704.00000
131.60000	1758.00000
131.65000	1767.00000
131.70000	1722.00000
131.75000	1721.00000
131.80000	1709.00000
131.85000	1782.00000
131.90000	1771.00000
131.95000	1773.00000
132.00000	1756.00000
132.05000	1674.00000
132.10000	1714.00000
132.15000	1766.00000
132.20000	1741.00000
132.25000	1736.00000
132.30000	1679.00000
132.35000	1665.00000
132.40000	1756.00000
132.45000	1786.00000
132.50000	1793.00000
132.55000	1756.00000
132.60000	1784.00000
132.65000	1802.00000
132.70000	1707.00000
132.75000	1757.00000
132.80000	1736.00000
132.85000	1741.00000
132.90000	1762.00000
132.95000	1713.00000
133.00000	1686.00000
133.05000	1711.00000
133.10000	1671.00000
133.15000	1737.00000
133.20000	1666.00000
133.25000	1712.00000
133.30000	1681.00000
133.35000	1687.00000
133.40000	1662.00000
133.45000	1728.00000
133.50000	1672.00000
133.55000	1692.00000
133.60000	1582.00000
133.65000	1618.00000
133.70000	1617.00000
133.75000	1648.00000
133.80000	1628.00000
133.85000	1652.00000
133.90000	1587.00000
133.95000	1626.00000
134.00000	1704.00000
134.05000	1675.00000
134.10000	1749.00000
134.15000	1664.00000
134.20000	1613.00000
134.25000	1613.00000
134.30000	1632.00000
134.35000	1691.00000
134.40000	1628.00000
134.45000	1646.00000
134.50000	1603.00000
134.55000	1656.00000
134.60000	1623.00000
134.65000	1666.00000
134.70000	1676.00000
134.75000	1680.00000
134.80000	1673.00000
134.85000	1692.00000
134.90000	1641.00000
134.95000	1658.00000
135.00000	1667.00000
135.05000	1600.00000
135.10000	1668.00000
135.15000	1691.00000
135.20000	1654.00000
135.25000	1636.00000
135.30000	1696.00000
135.35000	1644.00000
135.40000	1691.00000
135.45000	1716.00000
135.50000	1712.00000
135.55000	1697.00000
135.60000	1652.00000
135.65000	1705.00000
135.70000	1691.00000
135.75000	1606.00000
135.80000	1649.00000
135.85000	1659.00000
135.90000	1726.00000
135.95000	1659.00000
136.00000	1698.00000
136.05000	1752.00000
136.10000	1726.00000
136.15000	1698.00000
136.20000	1659.00000
136.25000	1661.00000
136.30000	1695.00000
136.35000	1777.00000
136.40000	1688.00000
136.45000	1698.00000
136.50000	1751.00000
136.55000	1635.00000
136.60000	1740.00000
136.65000	1686.00000
136.70000	1750.00000
136.75000	1734.00000
136.80000	1740.00000
136.85000	1696.00000
136.90000	1662.00000
136.95000	1727.00000
137.00000	1732.00000
137.05000	1709.00000
137.10000	1690.00000
137.15000	1738.00000
137.20000	1727.00000
137.25000	1723.00000
137.30000	1707.00000
137.35000	1677.00000
137.40000	1761.00000
137.45000	1743.00000
137.50000	1694.00000
137.55000	1719.00000
137.60000	1683.00000
137.65000	1729.00000
137.70000	1747.00000
137.75000	1765.00000
137.80000	1762.00000
137.85000	1709.00000
137.90000	1771.00000
137.95000	1756.00000
138.00000	1733.00000
138.05000	1671.00000
138.10000	1801.00000
138.15000	1735.00000
138.20000	1649.00000
138.25000	1715.00000
138.30000	1650.00000
138.35000	1723.00000
138.40000	1686.00000
138.45000	1640.00000
138.50000	1729.00000
138.55000	1736.00000
138.60000	1698.00000
138.65000	1671.00000
138.70000	1649.00000
138.75000	1764.00000
138.80000	1720.00000
138.85000	1772.00000
138.90000	1794.00000
138.95000	1729.00000
139.00000	1764.00000
139.05000	1692.00000
139.10000	1736.00000
139.15000	1692.00000
139.20000	1686.00000
139.25000	1730.00000
139.30000	1659.00000
139.35000	1701.00000
139.40000	1727.00000
139.45000	1726.00000
139.50000	1746.00000
139.55000	1769.00000
139.60000	1668.00000
139.65000	1763.00000
139.70000	1735.00000
139.75000	1692.00000
139.80000	1687.00000
139.85000	1709.00000
139.90000	1662.00000
139.95000	1732.00000
140.00000	1694.00000
140.05000	1663.00000
140.10000	1717.00000
140.15000	1694.00000
140.20000	1724.00000
140.25000	1783.00000
140.30000	1710.00000
140.35000	1777.00000
140.40000	1743.00000
140.45000	1716.00000
140.50000	1735.00000
140.55000	1776.00000
140.60000	1694.00000
140.65000	1749.00000
140.70000	1746.00000
140.75000	1711.00000
140.80000	1711.00000
140.85000	1789.00000
140.90000	1754.00000
140.95000	1770.00000
141.00000	1749.00000
141.05000	1740.00000
141.10000	1700.00000
141.15000	1700.00000
141.20000	1752.00000
141.25000	1730.00000
141.30000	1733.00000
141.35000	1725.00000
141.40000	1659.00000
141.45000	1740.00000
141.50000	1750.00000
141.55000	1739.00000
141.60000	1741.00000
141.65000	1702.00000
141.70000	1762.00000
141.75000	1787.00000
141.80000	1779.00000
141.85000	1728.00000
141.90000	1840.00000
141.95000	1798.00000
142.00000	1728.00000
142.05000	1733.00000
142.10000	1766.00000
142.15000	1804.00000
142.20000	1749.00000
142.25000	1791.00000
142.30000	1793.00000
142.35000	1752.00000
142.40000	1796.00000
142.45000	1797.00000
142.50000	1722.00000
142.55000	1752.00000
142.60000	1636.00000
142.65000	1687.00000
142.70000	1716.00000
142.75000	1706.00000
142.80000	1744.00000
142.85000	1755.00000
142.90000	1707.00000
142.95000	1729.00000
143.00000	1708.00000
143.05000	1666.00000
143.10000	1793.00000
143.15000	1801.00000
143.20000	1721.00000
143.25000	1758.00000
143.30000	1718.00000
143.35000	1740.00000
143.40000	1715.00000
143.45000	1758.00000
143.50000	1766.00000
143.55000	1706.00000
143.60000	1747.00000
143.65000	1737.00000
143.70000	1745.00000
143.75000	1742.00000
143.80000	1827.00000
143.85000	1782.00000
143.90000	1677.00000
143.95000	1742.00000
144.00000	1707.00000
144.05000	1743.00000
144.10000	1760.00000
144.15000	1752.00000
144.20000	1702.00000
144.25000	1786.00000
144.30000	1706.00000
144.35000	1666.00000
144.40000	1782.00000
144.45000	1705.00000
144.50000	1752.00000
144.55000	1713.00000
144.60000	1708.00000
144.65000	1792.00000
144.70000	1753.00000
144.75000	1739.00000
144.80000	1726.00000
144.85000	1672.00000
144.90000	1725.00000
144.95000	1668.00000
145.00000	1735.00000
145.05000	1708.00000
145.10000	1724.00000
145.15000	1760.00000
145.20000	1815.00000
145.25000	1751.00000
145.30000	1729.00000
145.35000	1726.00000
145.40000	1738.00000
145.45000	1720.00000
145.50000	1662.00000
145.55000	1709.00000
145.60000	1749.00000
145.65000	1750.00000
145.70000	1632.00000
145.75000	1694.00000
145.80000	1809.00000
145.85000	1756.00000
145.90000	1777.00000
145.95000	1741.00000
146.00000	1771.00000
146.05000	1764.00000
146.10000	1828.00000
146.15000	1792.00000
146.20000	1716.00000
146.25000	1802.00000
146.30000	1780.00000
146.35000	1682.00000
146.40000	1718.00000
146.45000	1773.00000
146.50000	1727.00000
146.55000	1821.00000
146.60000	1849.00000
146.65000	1831.00000
146.70000	1801.00000
146.75000	1756.00000
146.80000	1719.00000
146.85000	1743.00000
146.90000	1761.00000
146.95000	1746.00000
147.00000	1789.00000
147.05000	1832.00000
147.10000	1830.00000
147.15000	1784.00000
147.20000	1780.00000
147.25000	1777.00000
147.30000	1733.00000
147.35000	1800.00000
147.40000	1727.00000
147.45000	1810.00000
147.50000	1821.00000
147.55000	1764.00000
147.60000	1836.00000
147.65000	1798.00000
147.70000	1773.00000
147.75000	1836.00000
147.80000	1903.00000
147.85000	1782.00000
147.90000	1761.00000
147.95000	1826.00000
148.00000	1816.00000
148.05000	1826.00000
148.10000	1774.00000
148.15000	1738.00000
148.20000	1819.00000
148.25000	1830.00000
148.30000	1759.00000
148.35000	1789.00000
148.40000	1781.00000
148.45000	1824.00000
148.50000	1828.00000
148.55000	1730.00000
148.60000	1834.00000
148.65000	1822.00000
148.70000	1792.00000
148.75000	1828.00000
148.80000	1779.00000
148.85000	1782.00000
148.90000	1852.00000
148.95000	1889.00000
149.00000	1838.00000
149.05000	1783.00000
149.10000	1797.00000
149.15000	1850.00000
149.20000	1824.00000
149.25000	1729.00000
149.30000	1765.00000
149.35000	1796.00000
149.40000	1858.00000
149.45000	1763.00000
149.50000	1755.00000
149.55000	1798.00000
149.60000	1802.00000
149.65000	1805.00000
149.70000	1791.00000
149.75000	1833.00000
149.80000	1772.00000
149.85000	1757.00000
149.90000	1696.00000
149.95000	1776.00000
150.00000	1776.00000
150.05000	1767.00000
150.10000	1695.00000
150.15000	1768.00000
150.20000	1716.00000
150.25000	1726.00000
150.30000	1724.00000
150.35000	1756.00000
150.40000	1769.00000
150.45000	1800.00000
150.50000	1772.00000
150.55000	1800.00000
150.60000	1711.00000
150.65000	1801.00000
150.70000	1799.00000
150.75000	1854.00000
150.80000	1789.00000
150.85000	1844.00000
150.90000	1809.00000
150.95000	1823.00000
151.00000	1857.00000
151.05000	1732.00000
151.10000	1778.00000
151.15000	1748.00000
151.20000	1762.00000
151.25000	1749.00000
151.30000	1794.00000
151.35000	1858.00000
151.40000	1824.00000
151.45000	1873.00000
151.50000	1856.00000
151.55000	1708.00000
151.60000	1836.00000
151.65000	1708.00000
151.70000	1813.00000
151.75000	1803.00000
151.80000	1681.00000
151.85000	1784.00000
151.90000	1775.00000
151.95000	1728.00000
152.00000	1729.00000
152.05000	1882.00000
152.10000	1659.00000
152.15000	1759.00000
152.20000	1763.00000
152.25000	1689.00000
152.30000	1762.00000
152.35000	1828.00000
152.40000	1767.00000
152.45000	1739.00000
152.50000	1752.00000
152.55000	1753.00000
152.60000	1764.00000
152.65000	1749.00000
152.70000	1611.00000
152.75000	1797.00000
152.80000	1840.00000
152.85000	1697.00000
152.90000	1842.00000
152.95000	1704.00000
153.00000	1672.00000
153.05000	1780.00000
153.10000	1780.00000
153.15000	1757.00000
153.20000	1708.00000
153.25000	1806.00000
153.30000	1727.00000
153.35000	1752.00000
153.40000	1798.00000
153.45000	1723.00000
153.50000	1738.00000
153.55000	1784.00000
153.60000	1667.00000
153.65000	1734.00000
153.70000	1693.00000
153.75000	1724.00000
153.80000	1715.00000
153.85000	1763.00000
153.90000	1786.00000
153.95000	1861.00000
154.00000	1761.00000
154.05000	1798.00000
154.10000	1780.00000
154.15000	1763.00000
154.20000	1750.00000
154.25000	1851.00000
154.30000	1761.00000
154.35000	1767.00000
154.40000	1778.00000
154.45000	1760.00000
154.50000	1839.00000
154.55000	1843.00000
154.60000	1703.00000
154.65000	1863.00000
154.70000	1790.00000
154.75000	1889.00000
154.80000	1781.00000
154.85000	1842.00000
154.90000	1871.00000
154.95000	1893.00000
155.00000	1800.00000
155.05000	1754.00000
155.10000	1733.00000
155.15000	1742.00000
155.20000	1681.00000
155.25000	1846.00000
155.30000	1836.00000
155.35000	1740.00000
155.40000	1771.00000
155.45000	1814.00000
155.50000	1803.00000
155.55000	1752.00000
155.60000	1761.00000
155.65000	1813.00000
155.70000	1740.00000
155.75000	1802.00000
155.80000	1799.00000
155.85000	1768.00000
155.90000	1767.00000
155.95000	1811.00000
156.00000	1761.00000
156.05000	1859.00000
156.10000	1806.00000
156.15000	1732.00000
156.20000	1808.00000
156.25000	1787.00000
156.30000	1697.00000
156.35000	1775.00000
156.40000	1830.00000
156.45000	1756.00000
156.50000	1838.00000
156.55000	1815.00000
156.60000	1812.00000
156.65000	1754.00000
156.70000	1830.00000
156.75000	1773.00000
156.80000	1791.00000
156.85000	1704.00000
156.90000	1742.00000
156.95000	1757.00000
157.00000	1698.00000
157.05000	1762.00000
157.10000	1774.00000
157.15000	1735.00000
157.20000	1765.00000
157.25000	1788.00000
157.30000	1839.00000
157.35000	1724.00000
157.40000	1837.00000
157.45000	1774.00000
157.50000	1764.00000
157.55000	1766.00000
157.60000	1816.00000
157.65000	1770.00000
157.70000	1830.00000
157.75000	1834.00000
157.80000	1720.00000
157.85000	1795.00000
157.90000	1774.00000
157.95000	1794.00000
158.00000	1734.00000
158.05000	1865.00000
158.10000	1776.00000
158.15000	1850.00000
158.20000	1729.00000
158.25000	1745.00000
158.30000	1826.00000
158.35000	1823.00000
158.40000	1759.00000
158.45000	1759.00000
158.50000	1844.00000
158.55000	1767.00000
158.60000	1721.00000
158.65000	1771.00000
158.70000	1780.00000
158.75000	1851.00000
158.80000	1859.00000
158.85000	1800.00000
158.90000	1826.00000
158.95000	1755.00000
159.00000	1800.00000
159.05000	1839.00000
159.10000	1839.00000
159.15000	1896.00000
159.20000	1831.00000
159.25000	1780.00000
159.30000	1751.00000
159.35000	1777.00000
159.40000	1784.00000
159.45000	1788.00000
159.50000	1768.00000
159.55000	1808.00000
159.60000	1755.00000
159.65000	1794.00000
159.70000	1822.00000
159.75000	1783.00000
159.80000	1855.00000
159.85000	1827.00000
159.90000	1763.00000
159.95000	1801.00000
160.00000	1786.00000
160.05000	1752.00000
160.10000	1803.00000
160.15000	1793.00000
160.20000	1801.00000
160.25000	1795.00000
160.30000	1747.00000
160.35000	1747.00000
160.40000	1749.00000
160.45000	1750.00000
160.50000	1825.00000
160.55000	1783.00000
160.60000	1778.00000
160.65000	1829.00000
160.70000	1812.00000
160.75000	1803.00000
160.80000	1830.00000
160.85000	1796.00000
160.90000	1761.00000
160.95000	1808.00000
161.00000	1859.00000
161.05000	1856.00000
161.10000	1774.00000
161.15000	1810.00000
161.20000	1809.00000
161.25000	1746.00000
161.30000	1768.00000
161.35000	1833.00000
161.40000	1888.00000
161.45000	1780.00000
161.50000	1800.00000
161.55000	1847.00000
161.60000	1751.00000
161.65000	1759.00000
161.70000	1874.00000
161.75000	1760.00000
161.80000	1782.00000
161.85000	1876.00000
161.90000	1873.00000
161.95000	1939.00000
162.00000	1821.00000
162.05000	1757.00000
162.10000	1842.00000
162.15000	1830.00000
162.20000	1796.00000
162.25000	1773.00000
162.30000	1775.00000
162.35000	1873.00000
162.40000	1770.00000
162.45000	1833.00000
162.50000	1888.00000
162.55000	1844.00000
162.60000	1814.00000
162.65000	1850.00000
162.70000	1870.00000
162.75000	1893.00000
162.80000	1832.00000
162.85000	1779.00000
162.90000	1827.00000
162.95000	1827.00000
163.00000	1780.00000
163.05000	1833.00000
163.10000	1830.00000
163.15000	1872.00000
163.20000	1836.00000
163.25000	1788.00000
163.30000	1700.00000
163.35000	1835.00000
163.40000	1752.00000
163.45000	1879.00000
163.50000	1851.00000
163.55000	1799.00000
163.60000	1740.00000
163.65000	1794.00000
163.70000	1757.00000
163.75000	1781.00000
163.80000	1773.00000
163.85000	1805.00000
163.90000	1800.00000
163.95000	1746.00000
164.00000	1849.00000
164.05000	1739.00000
164.10000	1792.00000
164.15000	1661.00000
164.20000	1744.00000
164.25000	1726.00000
164.30000	1835.00000
164.35000	1888.00000
164.40000	1795.00000
164.45000	1758.00000
164.50000	1783.00000
164.55000	1693.00000
164.60000	1694.00000
164.65000	1759.00000
164.70000	1766.00000
164.75000	1772.00000
