7.00000	1335.00000
7.01987	1340.00000
7.03975	1334.00000
7.05962	1334.00000
7.07950	1347.00000
7.09937	1325.00000
7.11924	1316.00000
7.13912	1327.00000
7.15899	1300.00000
7.17887	1294.00000
7.19874	1303.00000
7.21861	1294.00000
7.23849	1302.00000
7.25836	1298.00000
7.27824	1307.00000
7.29811	1297.00000
7.31798	1302.00000
7.33786	1289.00000
7.35773	1288.00000
7.37761	1291.00000
7.39748	1274.00000
7.41735	1281.00000
7.43723	1287.00000
7.45710	1279.00000
7.47698	1282.00000
7.49685	1286.00000
7.51672	1278.00000
7.53660	1277.00000
7.55647	1273.00000
7.57635	1269.00000
7.59622	1272.00000
7.61609	1265.00000
7.63597	1271.00000
7.65584	1258.00000
7.67572	1256.00000
7.69559	1255.00000
7.71546	1238.00000
7.73534	1229.00000
7.75521	1236.00000
7.77509	1227.00000
7.79496	1224.00000
7.81483	1228.00000
7.83471	1241.00000
7.85458	1229.00000
7.87446	1238.00000
7.89433	1243.00000
7.91420	1233.00000
7.93408	1243.00000
7.95395	1237.00000
7.97383	1235.00000
7.99370	1236.00000
8.01357	1231.00000
8.03345	1233.00000
8.05332	1228.00000
8.07320	1237.00000
8.09307	1235.00000
8.11294	1233.00000
8.13282	1242.00000
8.15269	1231.00000
8.17257	1246.00000
8.19244	1228.00000
8.21231	1237.00000
8.23219	1240.00000
8.25206	1223.00000
8.27194	1225.00000
8.29181	1223.00000
8.31168	1214.00000
8.33156	1215.00000
8.35143	1225.00000
8.37131	1217.00000
8.39118	1227.00000
8.41105	1231.00000
8.43093	1222.00000
8.45080	1232.00000
8.47068	1230.00000
8.49055	1230.00000
8.51042	1233.00000
8.53030	1243.00000
8.55017	1240.00000
8.57005	1245.00000
8.58992	1253.00000
8.60979	1262.00000
8.62967	1268.00000
8.64954	1275.00000
8.66942	1292.00000
8.68929	1303.00000
8.70916	1323.00000
8.72904	1333.00000
8.74891	1362.00000
8.76879	1378.00000
8.78866	1394.00000
8.80853	1416.00000
8.82841	1435.00000
8.84828	1441.00000
8.86816	1439.00000
8.88803	1432.00000
8.90790	1427.00000
8.92778	1418.00000
8.94765	1411.00000
8.96753	1406.00000
8.98740	1401.00000
9.00727	1399.00000
9.02715	1396.00000
9.04702	1394.00000
9.06690	1393.00000
9.08677	1394.00000
9.10664	1392.00000
9.12652	1391.00000
9.14639	1391.00000
9.16627	1392.00000
9.18614	1390.00000
9.20601	1390.00000
9.22589	1389.00000
9.24576	1389.00000
9.26564	1388.00000
9.28551	1387.00000
9.30538	1387.00000
9.32526	1389.00000
9.34513	1389.00000
9.36501	1388.00000
9.38488	1388.00000
9.40475	1387.00000
9.42463	1377.00000
9.44450	1376.00000
9.46438	1374.00000
9.48425	1371.00000
9.50412	1374.00000
9.52400	1370.00000
9.54387	1367.00000
9.56375	1363.00000
9.58362	1363.00000
9.60349	1358.00000
9.62337	1359.00000
9.64324	1362.00000
9.66312	1368.00000
9.68299	1368.00000
9.70286	1373.00000
9.72274	1384.00000
9.74261	1394.00000
9.76249	1394.00000
9.78236	1415.00000
9.80223	1409.00000
9.82211	1429.00000
9.84198	1421.00000
9.86186	1427.00000
9.88173	1447.00000
9.90160	1436.00000
9.92148	1451.00000
9.94135	1466.00000
9.96123	1458.00000
9.98110	1461.00000
10.00097	1474.00000
10.02085	1473.00000
10.04072	1474.00000
10.06060	1490.00000
10.08047	1496.00000
10.10034	1505.00000
10.12022	1511.00000
10.14009	1521.00000
10.15997	1526.00000
10.17984	1536.00000
10.19971	1535.00000
10.21959	1552.00000
10.23946	1555.00000
10.25934	1569.00000
10.27921	1584.00000
10.29908	1600.00000
10.31896	1618.00000
10.33883	1633.00000
10.35871	1651.00000
10.37858	1652.00000
10.39845	1674.00000
10.41833	1681.00000
10.43820	1686.00000
10.45808	1707.00000
10.47795	1722.00000
10.49782	1736.00000
10.51770	1731.00000
10.53757	1754.00000
10.55745	1751.00000
10.57732	1745.00000
10.59719	1769.00000
10.61707	1781.00000
10.63694	1800.00000
10.65682	1835.00000
10.67669	1892.00000
10.69656	1924.00000
10.71644	2007.00000
10.73631	2089.00000
10.75619	2185.00000
10.77606	2309.00000
10.79593	2445.00000
10.81581	2594.00000
10.83568	2764.00000
10.85556	2879.00000
10.87543	2995.00000
10.89530	3036.00000
10.91518	2986.00000
10.93505	2904.00000
10.95493	2737.00000
10.97480	2562.00000
10.99467	2392.00000
11.01455	2239.00000
11.03442	2125.00000
11.05430	2040.00000
11.07417	2003.00000
11.09404	1973.00000
11.11392	1964.00000
11.13379	1973.00000
11.15367	1987.00000
11.17354	1986.00000
11.19341	1998.00000
11.21329	1981.00000
11.23316	1982.00000
11.25304	1972.00000
11.27291	1966.00000
11.29278	1967.00000
11.31266	2002.00000
11.33253	1995.00000
11.35241	2014.00000
11.37228	2031.00000
11.39215	2030.00000
11.41203	2020.00000
11.43190	2026.00000
11.45178	2026.00000
11.47165	2026.00000
11.49152	2037.00000
11.51140	2039.00000
11.53127	2059.00000
11.55115	2068.00000
11.57102	2062.00000
11.59089	2083.00000
11.61077	2085.00000
11.63064	2092.00000
11.65052	2091.00000
11.67039	2121.00000
11.69026	2111.00000
11.71014	2119.00000
11.73001	2131.00000
11.74989	2120.00000
11.76976	2122.00000
11.78963	2123.00000
11.80951	2133.00000
11.82938	2126.00000
11.84926	2142.00000
11.86913	2153.00000
11.88900	2171.00000
11.90888	2171.00000
11.92875	2192.00000
11.94863	2191.00000
11.96850	2208.00000
11.98837	2210.00000
12.00825	2206.00000
12.02812	2219.00000
12.04800	2229.00000
12.06787	2210.00000
12.08774	2215.00000
12.10762	2223.00000
12.12749	2222.00000
12.14737	2216.00000
12.16724	2239.00000
12.18711	2247.00000
12.20699	2239.00000
12.22686	2251.00000
12.24674	2256.00000
12.26661	2252.00000
12.28648	2271.00000
12.30636	2287.00000
12.32623	2296.00000
12.34611	2327.00000
12.36598	2338.00000
12.38585	2352.00000
12.40573	2352.00000
12.42560	2374.00000
12.44548	2388.00000
12.46535	2405.00000
12.48522	2425.00000
12.50510	2462.00000
12.52497	2494.00000
12.54485	2514.00000
12.56472	2571.00000
12.58459	2607.00000
12.60447	2671.00000
12.62434	2753.00000
12.64422	2864.00000
12.66409	3011.00000
12.68396	3210.00000
12.70384	3465.00000
12.72371	3792.00000
12.74359	4195.00000
12.76346	4672.00000
12.78333	5183.00000
12.80321	5735.00000
12.82308	6216.00000
12.84296	6581.00000
12.86283	6791.00000
12.88270	6769.00000
12.90258	6510.00000
12.92245	6049.00000
12.94233	5491.00000
12.96220	4821.00000
12.98207	4180.00000
13.00195	3632.00000
13.02182	3199.00000
13.04170	2862.00000
13.06157	2648.00000
13.08144	2530.00000
13.10132	2462.00000
13.12119	2445.00000
13.14107	2446.00000
13.16094	2484.00000
13.18081	2554.00000
13.20069	2617.00000
13.22056	2719.00000
13.24044	2831.00000
13.26031	2943.00000
13.28018	3034.00000
13.30006	3118.00000
13.31993	3157.00000
13.33981	3148.00000
13.35968	3085.00000
13.37955	2969.00000
13.39943	2852.00000
13.41930	2684.00000
13.43918	2542.00000
13.45905	2439.00000
13.47892	2327.00000
13.49880	2261.00000
13.51867	2217.00000
13.53855	2189.00000
13.55842	2149.00000
13.57829	2134.00000
13.59817	2131.00000
13.61804	2105.00000
13.63792	2095.00000
13.65779	2104.00000
13.67766	2103.00000
13.69754	2093.00000
13.71741	2118.00000
13.73729	2119.00000
13.75716	2134.00000
13.77703	2139.00000
13.79691	2160.00000
13.81678	2169.00000
13.83666	2185.00000
13.85653	2204.00000
13.87640	2234.00000
13.89628	2265.00000
13.91615	2304.00000
13.93603	2362.00000
13.95590	2435.00000
13.97577	2508.00000
13.99565	2629.00000
14.01552	2769.00000
14.03540	2954.00000
14.05527	3206.00000
14.07514	3509.00000
14.09502	3899.00000
14.11489	4360.00000
14.13477	4863.00000
14.15464	5384.00000
14.17451	5906.00000
14.19439	6266.00000
14.21426	6482.00000
14.23414	6467.00000
14.25401	6219.00000
14.27388	5745.00000
14.29376	5142.00000
14.31363	4509.00000
14.33351	3885.00000
14.35338	3387.00000
14.37325	2999.00000
14.39313	2719.00000
14.41300	2543.00000
14.43288	2435.00000
14.45275	2338.00000
14.47262	2274.00000
14.49250	2232.00000
14.51237	2195.00000
14.53225	2144.00000
14.55212	2124.00000
14.57199	2102.00000
14.59187	2070.00000
14.61174	2062.00000
14.63162	2042.00000
14.65149	2038.00000
14.67136	2025.00000
14.69124	2022.00000
14.71111	2023.00000
14.73099	2006.00000
14.75086	2012.00000
14.77073	2009.00000
14.79061	1999.00000
14.81048	2005.00000
14.83036	2006.00000
14.85023	2004.00000
14.87010	2015.00000
14.88998	2019.00000
14.90985	2010.00000
14.92973	2024.00000
14.94960	2006.00000
14.96947	1991.00000
14.98935	1978.00000
15.00922	1969.00000
15.02910	1951.00000
15.04897	1945.00000
15.06884	1950.00000
15.08872	1961.00000
15.10859	1953.00000
15.12847	1970.00000
15.14834	1979.00000
15.16821	1975.00000
15.18809	1979.00000
15.20796	1989.00000
15.22784	1991.00000
15.24771	1998.00000
15.26758	2000.00000
15.28746	2018.00000
15.30733	2010.00000
15.32721	2019.00000
15.34708	2026.00000
15.36695	2027.00000
15.38683	2033.00000
15.40670	2047.00000
15.42658	2065.00000
15.44645	2084.00000
15.46632	2125.00000
15.48620	2170.00000
15.50607	2244.00000
15.52595	2320.00000
15.54582	2436.00000
15.56569	2565.00000
15.58557	2738.00000
15.60544	2913.00000
15.62532	3120.00000
15.64519	3333.00000
15.66506	3511.00000
15.68494	3635.00000
15.70481	3686.00000
15.72469	3640.00000
15.74456	3481.00000
15.76443	3284.00000
15.78431	3027.00000
15.80418	2763.00000
15.82406	2564.00000
15.84393	2390.00000
15.86380	2269.00000
15.88368	2206.00000
15.90355	2163.00000
15.92343	2147.00000
15.94330	2135.00000
15.96317	2138.00000
15.98305	2154.00000
16.00292	2180.00000
16.02280	2214.00000
16.04267	2280.00000
16.06254	2366.00000
16.08242	2462.00000
16.10229	2594.00000
16.12217	2742.00000
16.14204	2889.00000
16.16191	3030.00000
16.18179	3157.00000
16.20166	3189.00000
16.22154	3199.00000
16.24141	3134.00000
16.26128	2979.00000
16.28116	2824.00000
16.30103	2645.00000
16.32091	2481.00000
16.34078	2332.00000
16.36065	2241.00000
16.38053	2161.00000
16.40040	2106.00000
16.42028	2088.00000
16.44015	2050.00000
16.46002	2039.00000
16.47990	2043.00000
16.49977	2019.00000
16.51965	2029.00000
16.53952	2027.00000
16.55939	2023.00000
16.57927	2023.00000
16.59914	2019.00000
16.61902	2021.00000
16.63889	2021.00000
16.65876	2024.00000
16.67864	2024.00000
16.69851	2029.00000
16.71839	2039.00000
16.73826	2034.00000
16.75813	2031.00000
16.77801	2040.00000
16.79788	2033.00000
16.81776	2030.00000
16.83763	2031.00000
16.85750	2034.00000
16.87738	2031.00000
16.89725	2038.00000
16.91713	2040.00000
16.93700	2042.00000
16.95687	2049.00000
16.97675	2049.00000
16.99662	2046.00000
17.01650	2051.00000
17.03637	2051.00000
17.05624	2056.00000
17.07612	2058.00000
17.09599	2058.00000
17.11587	2056.00000
17.13574	2058.00000
17.15561	2064.00000
17.17549	2065.00000
17.19536	2073.00000
17.21524	2078.00000
17.23511	2087.00000
17.25498	2093.00000
17.27486	2098.00000
17.29473	2102.00000
17.31461	2111.00000
17.33448	2120.00000
17.35435	2127.00000
17.37423	2133.00000
17.39410	2140.00000
17.41398	2149.00000
17.43385	2158.00000
17.45372	2166.00000
17.47360	2177.00000
17.49347	2197.00000
17.51335	2220.00000
17.53322	2239.00000
17.55309	2281.00000
17.57297	2328.00000
17.59284	2399.00000
17.61272	2490.00000
17.63259	2589.00000
17.65246	2713.00000
17.67234	2802.00000
17.69221	2877.00000
17.71209	2938.00000
17.73196	2959.00000
17.75183	2983.00000
17.77171	2950.00000
17.79158	2903.00000
17.81146	2833.00000
17.83133	2732.00000
17.85120	2667.00000
17.87108	2591.00000
17.89095	2546.00000
17.91083	2534.00000
17.93070	2538.00000
17.95057	2568.00000
17.97045	2610.00000
17.99032	2676.00000
18.01020	2771.00000
18.03007	2879.00000
18.04994	3013.00000
18.06982	3200.00000
18.08969	3403.00000
18.10957	3668.00000
18.12944	3976.00000
18.14931	4302.00000
18.16919	4699.00000
18.18906	5051.00000
18.20894	5354.00000
18.22881	5589.00000
18.24868	5702.00000
18.26856	5603.00000
18.28843	5408.00000
18.30831	5080.00000
18.32818	4662.00000
18.34805	4218.00000
18.36793	3828.00000
18.38780	3486.00000
18.40768	3229.00000
18.42755	3050.00000
18.44742	2932.00000
18.46730	2870.00000
18.48717	2840.00000
18.50705	2842.00000
18.52692	2838.00000
18.54679	2880.00000
18.56667	2916.00000
18.58654	2950.00000
18.60642	2990.00000
18.62629	3028.00000
18.64616	3046.00000
18.66604	3057.00000
18.68591	3067.00000
18.70579	3082.00000
18.72566	3120.00000
18.74553	3190.00000
18.76541	3320.00000
18.78528	3534.00000
18.80516	3787.00000
18.82503	4191.00000
18.84490	4684.00000
18.86478	5326.00000
18.88465	6146.00000
18.90453	7200.00000
18.92440	8494.00000
18.94427	10018.00000
18.96415	11790.00000
18.98402	13693.00000
19.00390	15397.00000
19.02377	16806.00000
19.04364	17615.00000
19.06352	17581.00000
19.08339	16736.00000
19.10327	15100.00000
19.12314	13071.00000
19.14301	10853.00000
19.16289	8737.00000
19.18276	7001.00000
19.20264	5696.00000
19.22251	4764.00000
19.24238	4157.00000
19.26226	3746.00000
19.28213	3477.00000
19.30201	3246.00000
19.32188	3058.00000
19.34175	2905.00000
19.36163	2771.00000
19.38150	2651.00000
19.40138	2573.00000
19.42125	2513.00000
19.44112	2465.00000
19.46100	2432.00000
19.48087	2427.00000
19.50075	2408.00000
19.52062	2399.00000
19.54049	2397.00000
19.56037	2405.00000
19.58024	2404.00000
19.60012	2408.00000
19.61999	2423.00000
19.63986	2461.00000
19.65974	2477.00000
19.67961	2539.00000
19.69949	2613.00000
19.71936	2726.00000
19.73923	2856.00000
19.75911	3046.00000
19.77898	3273.00000
19.79886	3580.00000
19.81873	3948.00000
19.83860	4411.00000
19.85848	4953.00000
19.87835	5596.00000
19.89823	6280.00000
19.91810	6933.00000
19.93797	7435.00000
19.95785	7813.00000
19.97772	7826.00000
19.99760	7576.00000
20.01747	7045.00000
20.03734	6338.00000
20.05722	5576.00000
20.07709	4860.00000
20.09697	4273.00000
20.11684	3873.00000
20.13671	3653.00000
20.15659	3589.00000
20.17646	3616.00000
20.19634	3755.00000
20.21621	3950.00000
20.23608	4191.00000
20.25596	4474.00000
20.27583	4849.00000
20.29571	5250.00000
20.31558	5709.00000
20.33545	6187.00000
20.35533	6694.00000
20.37520	7133.00000
20.39508	7520.00000
20.41495	7796.00000
20.43482	7918.00000
20.45470	7869.00000
20.47457	7619.00000
20.49445	7208.00000
20.51432	6623.00000
20.53419	5943.00000
20.55407	5278.00000
20.57394	4606.00000
20.59382	4055.00000
20.61369	3620.00000
20.63356	3294.00000
20.65344	3077.00000
20.67331	2949.00000
20.69319	2865.00000
20.71306	2844.00000
20.73293	2850.00000
20.75281	2869.00000
20.77268	2919.00000
20.79256	2979.00000
20.81243	3039.00000
20.83230	3092.00000
20.85218	3148.00000
20.87205	3178.00000
20.89193	3171.00000
20.91180	3130.00000
20.93167	3079.00000
20.95155	2973.00000
20.97142	2870.00000
20.99130	2779.00000
21.01117	2669.00000
21.03104	2597.00000
21.05092	2537.00000
21.07079	2494.00000
21.09067	2465.00000
21.11054	2453.00000
21.13041	2457.00000
21.15029	2458.00000
21.17016	2479.00000
21.19004	2491.00000
21.20991	2513.00000
21.22978	2539.00000
21.24966	2576.00000
21.26953	2627.00000
21.28941	2694.00000
21.30928	2802.00000
21.32915	2927.00000
21.34903	3098.00000
21.36890	3299.00000
21.38878	3583.00000
21.40865	3899.00000
21.42852	4346.00000
21.44840	4886.00000
21.46827	5552.00000
21.48815	6354.00000
21.50802	7293.00000
21.52789	8287.00000
21.54777	9332.00000
21.56764	10248.00000
21.58752	10978.00000
21.60739	11294.00000
21.62726	11273.00000
21.64714	10705.00000
21.66701	9787.00000
21.68689	8621.00000
21.70676	7360.00000
21.72663	6151.00000
21.74651	5149.00000
21.76638	4367.00000
21.78626	3832.00000
21.80613	3483.00000
21.82600	3289.00000
21.84588	3172.00000
21.86575	3124.00000
21.88563	3093.00000
21.90550	3094.00000
21.92537	3094.00000
21.94525	3135.00000
21.96512	3178.00000
21.98500	3273.00000
22.00487	3431.00000
22.02474	3650.00000
22.04462	3952.00000
22.06449	4377.00000
22.08437	4912.00000
22.10424	5559.00000
22.12411	6364.00000
22.14399	7262.00000
22.16386	8228.00000
22.18374	9190.00000
22.20361	10031.00000
22.22348	10575.00000
22.24336	10754.00000
22.26323	10489.00000
22.28311	9847.00000
22.30298	8780.00000
22.32285	7637.00000
22.34273	6494.00000
22.36260	5402.00000
22.38248	4587.00000
22.40235	3989.00000
22.42222	3567.00000
22.44210	3311.00000
22.46197	3163.00000
22.48185	3072.00000
22.50172	3006.00000
22.52159	2967.00000
22.54147	2931.00000
22.56134	2851.00000
22.58122	2800.00000
22.60109	2710.00000
22.62096	2600.00000
22.64084	2510.00000
22.66071	2420.00000
22.68059	2324.00000
22.70046	2265.00000
22.72033	2218.00000
22.74021	2174.00000
22.76008	2158.00000
22.77996	2138.00000
22.79983	2151.00000
22.81970	2143.00000
22.83958	2163.00000
22.85945	2175.00000
22.87933	2207.00000
22.89920	2219.00000
22.91907	2257.00000
22.93895	2300.00000
22.95882	2355.00000
22.97870	2431.00000
22.99857	2520.00000
23.01844	2654.00000
23.03832	2779.00000
23.05819	2950.00000
23.07807	3108.00000
23.09794	3281.00000
23.11781	3450.00000
23.13769	3568.00000
23.15756	3678.00000
23.17744	3709.00000
23.19731	3682.00000
23.21718	3620.00000
23.23706	3458.00000
23.25693	3298.00000
23.27681	3118.00000
23.29668	2939.00000
23.31655	2773.00000
23.33643	2643.00000
23.35630	2561.00000
23.37618	2476.00000
23.39605	2423.00000
23.41592	2404.00000
23.43580	2376.00000
23.45567	2353.00000
23.47555	2346.00000
23.49542	2314.00000
23.51529	2292.00000
23.53517	2252.00000
23.55504	2208.00000
23.57492	2168.00000
23.59479	2138.00000
23.61466	2096.00000
23.63454	2070.00000
23.65441	2066.00000
23.67429	2037.00000
23.69416	2024.00000
23.71403	2019.00000
23.73391	2008.00000
23.75378	2009.00000
23.77366	2016.00000
23.79353	2029.00000
23.81340	2057.00000
23.83328	2099.00000
23.85315	2129.00000
23.87303	2178.00000
23.89290	2250.00000
23.91277	2297.00000
23.93265	2371.00000
23.95252	2444.00000
23.97240	2524.00000
23.99227	2587.00000
24.01214	2661.00000
24.03202	2715.00000
24.05189	2762.00000
24.07177	2782.00000
24.09164	2797.00000
24.11151	2767.00000
24.13139	2745.00000
24.15126	2689.00000
24.17114	2636.00000
24.19101	2594.00000
24.21088	2548.00000
24.23076	2508.00000
24.25063	2501.00000
24.27051	2474.00000
24.29038	2441.00000
24.31025	2430.00000
24.33013	2392.00000
24.35000	2353.00000
24.36988	2313.00000
24.38975	2272.00000
24.40962	2231.00000
24.42950	2190.00000
24.44937	2155.00000
24.46925	2109.00000
24.48912	2091.00000
24.50899	2044.00000
24.52887	2021.00000
24.54874	2007.00000
24.56862	1977.00000
24.58849	1971.00000
24.60836	1954.00000
24.62824	1940.00000
24.64811	1929.00000
24.66799	1919.00000
24.68786	1904.00000
24.70773	1901.00000
24.72761	1902.00000
24.74748	1902.00000
24.76736	1899.00000
24.78723	1905.00000
24.80710	1904.00000
24.82698	1892.00000
24.84685	1896.00000
24.86673	1888.00000
24.88660	1885.00000
24.90647	1899.00000
24.92635	1893.00000
24.94622	1914.00000
24.96610	1914.00000
24.98597	1920.00000
25.00584	1936.00000
25.02572	1927.00000
25.04559	1930.00000
25.06547	1953.00000
25.08534	1957.00000
25.10521	1977.00000
25.12509	2013.00000
25.14496	2043.00000
25.16484	2079.00000
25.18471	2133.00000
25.20458	2191.00000
25.22446	2245.00000
25.24433	2345.00000
25.26421	2456.00000
25.28408	2591.00000
25.30395	2786.00000
25.32383	2987.00000
25.34370	3278.00000
25.36358	3589.00000
25.38345	3951.00000
25.40332	4370.00000
25.42320	4821.00000
25.44307	5247.00000
25.46295	5631.00000
25.48282	5918.00000
25.50269	6029.00000
25.52257	5992.00000
25.54244	5767.00000
25.56232	5411.00000
25.58219	4984.00000
25.60206	4554.00000
25.62194	4147.00000
25.64181	3850.00000
25.66169	3630.00000
25.68156	3527.00000
25.70143	3488.00000
25.72131	3517.00000
25.74118	3560.00000
25.76106	3625.00000
25.78093	3676.00000
25.80080	3696.00000
25.82068	3699.00000
25.84055	3677.00000
25.86043	3656.00000
25.88030	3605.00000
25.90017	3584.00000
25.92005	3564.00000
25.93992	3579.00000
25.95980	3598.00000
25.97967	3647.00000
25.99954	3712.00000
26.01942	3776.00000
26.03929	3844.00000
26.05917	3905.00000
26.07904	3942.00000
26.09891	3931.00000
26.11879	3911.00000
26.13866	3802.00000
26.15854	3672.00000
26.17841	3499.00000
26.19828	3284.00000
26.21816	3085.00000
26.23803	2887.00000
26.25791	2702.00000
26.27778	2573.00000
26.29765	2461.00000
26.31753	2387.00000
26.33740	2346.00000
26.35728	2322.00000
26.37715	2307.00000
26.39702	2307.00000
26.41690	2313.00000
26.43677	2317.00000
26.45665	2335.00000
26.47652	2368.00000
26.49639	2397.00000
26.51627	2465.00000
26.53614	2538.00000
26.55602	2630.00000
26.57589	2760.00000
26.59576	2900.00000
26.61564	3082.00000
26.63551	3289.00000
26.65539	3506.00000
26.67526	3731.00000
26.69513	3962.00000
26.71501	4142.00000
26.73488	4247.00000
26.75476	4309.00000
26.77463	4238.00000
26.79450	4093.00000
26.81438	3872.00000
26.83425	3573.00000
26.85413	3275.00000
26.87400	2989.00000
26.89387	2709.00000
26.91375	2485.00000
26.93362	2320.00000
26.95350	2191.00000
26.97337	2079.00000
26.99324	2019.00000
27.01312	1954.00000
27.03299	1906.00000
27.05287	1872.00000
27.07274	1825.00000
27.09261	1811.00000
27.11249	1786.00000
27.13236	1766.00000
27.15224	1765.00000
27.17211	1741.00000
27.19198	1746.00000
27.21186	1743.00000
27.23173	1738.00000
27.25161	1740.00000
27.27148	1754.00000
27.29135	1747.00000
27.31123	1754.00000
27.33110	1756.00000
27.35098	1761.00000
27.37085	1762.00000
27.39072	1788.00000
27.41060	1802.00000
27.43047	1829.00000
27.45035	1854.00000
27.47022	1894.00000
27.49009	1920.00000
27.50997	1955.00000
27.52984	1994.00000
27.54972	2048.00000
27.56959	2086.00000
27.58946	2132.00000
27.60934	2190.00000
27.62921	2219.00000
27.64909	2251.00000
27.66896	2277.00000
27.68883	2277.00000
27.70871	2271.00000
27.72858	2241.00000
27.74846	2198.00000
27.76833	2135.00000
27.78820	2073.00000
27.80808	1995.00000
27.82795	1933.00000
27.84783	1879.00000
27.86770	1819.00000
27.88757	1773.00000
27.90745	1747.00000
27.92732	1702.00000
27.94720	1661.00000
27.96707	1651.00000
27.98694	1616.00000
28.00682	1579.00000
28.02669	1578.00000
28.04657	1552.00000
28.06644	1538.00000
28.08631	1539.00000
28.10619	1527.00000
28.12606	1538.00000
28.14594	1537.00000
28.16581	1542.00000
28.18568	1556.00000
28.20556	1565.00000
28.22543	1576.00000
28.24531	1589.00000
28.26518	1589.00000
28.28505	1597.00000
28.30493	1584.00000
28.32480	1579.00000
28.34468	1576.00000
28.36455	1558.00000
28.38442	1560.00000
28.40430	1577.00000
28.42417	1580.00000
28.44405	1589.00000
28.46392	1620.00000
28.48379	1636.00000
28.50367	1650.00000
28.52354	1677.00000
28.54342	1694.00000
28.56329	1714.00000
28.58316	1736.00000
28.60304	1758.00000
28.62291	1765.00000
28.64279	1780.00000
28.66266	1794.00000
28.68253	1783.00000
28.70241	1776.00000
28.72228	1782.00000
28.74216	1766.00000
28.76203	1749.00000
28.78190	1744.00000
28.80178	1734.00000
28.82165	1703.00000
28.84153	1693.00000
28.86140	1670.00000
28.88127	1646.00000
28.90115	1633.00000
28.92102	1612.00000
28.94090	1593.00000
28.96077	1585.00000
28.98064	1565.00000
29.00052	1549.00000
29.02039	1540.00000
29.04027	1525.00000
29.06014	1533.00000
29.08001	1513.00000
29.09989	1520.00000
29.11976	1531.00000
29.13964	1528.00000
29.15951	1535.00000
29.17938	1540.00000
29.19926	1552.00000
29.21913	1562.00000
29.23901	1554.00000
29.25888	1581.00000
29.27875	1582.00000
29.29863	1587.00000
29.31850	1598.00000
29.33838	1615.00000
29.35825	1610.00000
29.37812	1618.00000
29.39800	1638.00000
29.41787	1618.00000
29.43775	1616.00000
29.45762	1612.00000
29.47749	1606.00000
29.49737	1593.00000
29.51724	1593.00000
29.53712	1609.00000
29.55699	1614.00000
29.57686	1629.00000
29.59674	1639.00000
29.61661	1668.00000
29.63649	1665.00000
29.65636	1687.00000
29.67623	1711.00000
29.69611	1730.00000
29.71598	1764.00000
29.73586	1813.00000
29.75573	1856.00000
29.77560	1891.00000
29.79548	1925.00000
29.81535	1952.00000
29.83523	1942.00000
29.85510	1934.00000
29.87497	1928.00000
29.89485	1902.00000
29.91472	1877.00000
29.93460	1858.00000
29.95447	1843.00000
29.97434	1807.00000
29.99422	1793.00000
30.01409	1779.00000
30.03397	1748.00000
30.05384	1750.00000
30.07371	1732.00000
30.09359	1726.00000
30.11346	1712.00000
30.13334	1709.00000
30.15321	1690.00000
30.17308	1671.00000
30.19296	1660.00000
30.21283	1648.00000
30.23271	1635.00000
30.25258	1629.00000
30.27245	1636.00000
30.29233	1638.00000
30.31220	1644.00000
30.33208	1657.00000
30.35195	1664.00000
30.37182	1679.00000
30.39170	1692.00000
30.41157	1708.00000
30.43145	1717.00000
30.45132	1740.00000
30.47119	1735.00000
30.49107	1735.00000
30.51094	1724.00000
30.53082	1710.00000
30.55069	1678.00000
30.57056	1657.00000
30.59044	1634.00000
30.61031	1607.00000
30.63019	1588.00000
30.65006	1571.00000
30.66993	1560.00000
30.68981	1560.00000
30.70968	1554.00000
30.72956	1551.00000
30.74943	1571.00000
30.76930	1564.00000
30.78918	1569.00000
30.80905	1568.00000
30.82893	1576.00000
30.84880	1567.00000
30.86867	1569.00000
30.88855	1567.00000
30.90842	1573.00000
30.92830	1564.00000
30.94817	1585.00000
30.96804	1581.00000
30.98792	1600.00000
31.00779	1608.00000
31.02767	1627.00000
31.04754	1644.00000
31.06741	1665.00000
31.08729	1675.00000
31.10716	1704.00000
31.12704	1731.00000
31.14691	1742.00000
31.16678	1775.00000
31.18666	1795.00000
31.20653	1808.00000
31.22641	1830.00000
31.24628	1838.00000
31.26615	1841.00000
31.28603	1852.00000
31.30590	1854.00000
31.32578	1835.00000
31.34565	1835.00000
31.36552	1824.00000
31.38540	1804.00000
31.40527	1797.00000
31.42515	1806.00000
31.44502	1814.00000
31.46489	1817.00000
31.48477	1845.00000
31.50464	1849.00000
31.52452	1860.00000
31.54439	1873.00000
31.56426	1873.00000
31.58414	1880.00000
31.60401	1901.00000
31.62389	1915.00000
31.64376	1938.00000
31.66363	1961.00000
31.68351	1997.00000
31.70338	2009.00000
31.72326	2021.00000
31.74313	2022.00000
31.76300	2025.00000
31.78288	1997.00000
31.80275	1996.00000
31.82263	1982.00000
31.84250	1977.00000
31.86237	1981.00000
31.88225	1983.00000
31.90212	1981.00000
31.92200	1998.00000
31.94187	1973.00000
31.96174	1967.00000
31.98162	1950.00000
32.00149	1905.00000
32.02137	1868.00000
32.04124	1826.00000
32.06111	1762.00000
32.08099	1714.00000
32.10086	1664.00000
32.12074	1607.00000
32.14061	1587.00000
32.16048	1551.00000
32.18036	1539.00000
32.20023	1526.00000
32.22011	1514.00000
32.23998	1507.00000
32.25985	1492.00000
32.27973	1476.00000
32.29960	1470.00000
32.31948	1470.00000
32.33935	1462.00000
32.35922	1468.00000
32.37910	1476.00000
32.39897	1474.00000
32.41885	1477.00000
32.43872	1475.00000
32.45859	1474.00000
32.47847	1475.00000
32.49834	1470.00000
32.51822	1479.00000
32.53809	1489.00000
32.55796	1495.00000
32.57784	1508.00000
32.59771	1524.00000
32.61759	1538.00000
32.63746	1549.00000
32.65733	1573.00000
32.67721	1586.00000
32.69708	1619.00000
32.71696	1643.00000
32.73683	1668.00000
32.75670	1697.00000
32.77658	1724.00000
32.79645	1747.00000
32.81633	1775.00000
32.83620	1807.00000
32.85607	1838.00000
32.87595	1883.00000
32.89582	1909.00000
32.91570	1934.00000
32.93557	1966.00000
32.95544	1965.00000
32.97532	1959.00000
32.99519	1968.00000
33.01507	1943.00000
33.03494	1924.00000
33.05481	1914.00000
33.07469	1886.00000
33.09456	1855.00000
33.11444	1839.00000
33.13431	1801.00000
33.15418	1776.00000
33.17406	1749.00000
33.19393	1726.00000
33.21381	1691.00000
33.23368	1677.00000
33.25355	1655.00000
33.27343	1624.00000
33.29330	1606.00000
33.31318	1592.00000
33.33305	1563.00000
33.35292	1554.00000
33.37280	1539.00000
33.39267	1521.00000
33.41255	1526.00000
33.43242	1508.00000
33.45229	1507.00000
33.47217	1508.00000
33.49204	1507.00000
33.51192	1517.00000
33.53179	1522.00000
33.55166	1536.00000
33.57154	1543.00000
33.59141	1563.00000
33.61129	1554.00000
33.63116	1572.00000
33.65103	1573.00000
33.67091	1576.00000
33.69078	1572.00000
33.71066	1579.00000
33.73053	1575.00000
33.75040	1569.00000
33.77028	1560.00000
33.79015	1556.00000
33.81003	1557.00000
33.82990	1545.00000
33.84977	1549.00000
33.86965	1557.00000
33.88952	1558.00000
33.90940	1573.00000
33.92927	1596.00000
33.94914	1612.00000
33.96902	1658.00000
33.98889	1716.00000
34.00877	1769.00000
34.02864	1850.00000
34.04851	1933.00000
34.06839	2016.00000
34.08826	2092.00000
34.10814	2168.00000
34.12801	2219.00000
34.14788	2252.00000
34.16776	2270.00000
34.18763	2245.00000
34.20751	2197.00000
34.22738	2146.00000
34.24725	2065.00000
34.26713	1985.00000
34.28700	1911.00000
34.30688	1847.00000
34.32675	1797.00000
34.34662	1756.00000
34.36650	1733.00000
34.38637	1718.00000
34.40625	1707.00000
34.42612	1708.00000
34.44599	1701.00000
34.46587	1701.00000
34.48574	1696.00000
34.50562	1702.00000
34.52549	1685.00000
34.54536	1685.00000
34.56524	1669.00000
34.58511	1656.00000
34.60499	1643.00000
34.62486	1630.00000
34.64473	1607.00000
34.66461	1605.00000
34.68448	1580.00000
34.70436	1575.00000
34.72423	1571.00000
34.74410	1560.00000
34.76398	1574.00000
34.78385	1576.00000
34.80373	1578.00000
34.82360	1589.00000
34.84347	1576.00000
34.86335	1573.00000
34.88322	1561.00000
34.90310	1538.00000
34.92297	1525.00000
34.94284	1493.00000
34.96272	1485.00000
34.98259	1452.00000
35.00247	1441.00000
35.02234	1424.00000
35.04221	1411.00000
35.06209	1394.00000
35.08196	1385.00000
35.10184	1382.00000
35.12171	1367.00000
35.14158	1357.00000
35.16146	1369.00000
35.18133	1359.00000
35.20121	1363.00000
35.22108	1362.00000
35.24095	1372.00000
35.26083	1369.00000
35.28070	1378.00000
35.30058	1368.00000
35.32045	1390.00000
35.34032	1382.00000
35.36020	1386.00000
35.38007	1392.00000
35.39995	1403.00000
35.41982	1399.00000
35.43969	1410.00000
35.45957	1416.00000
35.47944	1428.00000
35.49932	1439.00000
35.51919	1451.00000
35.53906	1473.00000
35.55894	1481.00000
35.57881	1498.00000
35.59869	1501.00000
35.61856	1509.00000
35.63843	1496.00000
35.65831	1482.00000
35.67818	1483.00000
35.69806	1444.00000
35.71793	1422.00000
35.73780	1417.00000
35.75768	1389.00000
35.77755	1369.00000
35.79743	1369.00000
35.81730	1366.00000
35.83717	1351.00000
35.85705	1360.00000
35.87692	1363.00000
35.89680	1359.00000
35.91667	1366.00000
35.93654	1376.00000
35.95642	1380.00000
35.97629	1391.00000
35.99617	1399.00000
36.01604	1416.00000
36.03591	1432.00000
36.05579	1448.00000
36.07566	1464.00000
36.09554	1480.00000
36.11541	1501.00000
36.13528	1506.00000
36.15516	1517.00000
36.17503	1525.00000
36.19491	1536.00000
36.21478	1520.00000
36.23465	1526.00000
36.25453	1512.00000
36.27440	1492.00000
36.29428	1484.00000
36.31415	1455.00000
36.33402	1445.00000
36.35390	1433.00000
36.37377	1409.00000
36.39365	1399.00000
36.41352	1387.00000
36.43339	1369.00000
36.45327	1355.00000
36.47314	1345.00000
36.49302	1344.00000
36.51289	1328.00000
36.53276	1340.00000
36.55264	1339.00000
36.57251	1334.00000
36.59239	1342.00000
36.61226	1349.00000
36.63213	1333.00000
36.65201	1336.00000
36.67188	1336.00000
36.69176	1326.00000
36.71163	1322.00000
36.73150	1320.00000
36.75138	1325.00000
36.77125	1328.00000
36.79113	1338.00000
36.81100	1352.00000
36.83087	1364.00000
36.85075	1378.00000
36.87062	1379.00000
36.89050	1395.00000
36.91037	1389.00000
36.93024	1385.00000
36.95012	1385.00000
36.96999	1390.00000
36.98987	1379.00000
37.00974	1383.00000
37.02961	1388.00000
37.04949	1392.00000
37.06936	1378.00000
37.08924	1381.00000
37.10911	1373.00000
37.12898	1358.00000
37.14886	1344.00000
37.16873	1344.00000
37.18861	1339.00000
37.20848	1337.00000
37.22835	1351.00000
37.24823	1343.00000
37.26810	1350.00000
37.28798	1362.00000
37.30785	1358.00000
37.32772	1377.00000
37.34760	1392.00000
37.36747	1411.00000
37.38735	1428.00000
37.40722	1433.00000
37.42709	1454.00000
37.44697	1448.00000
37.46684	1450.00000
37.48672	1449.00000
37.50659	1448.00000
37.52646	1439.00000
37.54634	1435.00000
37.56621	1422.00000
37.58609	1422.00000
37.60596	1408.00000
37.62583	1390.00000
37.64571	1389.00000
37.66558	1372.00000
37.68546	1356.00000
37.70533	1338.00000
37.72520	1333.00000
37.74508	1306.00000
37.76495	1304.00000
37.78483	1288.00000
37.80470	1276.00000
37.82457	1276.00000
37.84445	1262.00000
37.86432	1263.00000
37.88420	1264.00000
37.90407	1251.00000
37.92394	1265.00000
37.94382	1249.00000
37.96369	1245.00000
37.98357	1236.00000
38.00344	1223.00000
38.02331	1215.00000
38.04319	1206.00000
38.06306	1197.00000
38.08294	1214.00000
38.10281	1204.00000
38.12268	1209.00000
38.14256	1221.00000
38.16243	1220.00000
38.18231	1216.00000
38.20218	1216.00000
38.22205	1219.00000
38.24193	1222.00000
38.26180	1215.00000
38.28168	1225.00000
38.30155	1233.00000
38.32142	1234.00000
38.34130	1238.00000
38.36117	1250.00000
38.38105	1265.00000
38.40092	1263.00000
38.42079	1284.00000
38.44067	1289.00000
38.46054	1303.00000
38.48042	1315.00000
38.50029	1322.00000
38.52016	1334.00000
38.54004	1344.00000
38.55991	1355.00000
38.57979	1366.00000
38.59966	1379.00000
38.61953	1394.00000
38.63941	1412.00000
38.65928	1421.00000
38.67916	1429.00000
38.69903	1445.00000
38.71890	1433.00000
38.73878	1426.00000
38.75865	1416.00000
38.77853	1413.00000
38.79840	1388.00000
38.81827	1380.00000
38.83815	1388.00000
38.85802	1374.00000
38.87790	1366.00000
38.89777	1375.00000
38.91764	1363.00000
38.93752	1372.00000
38.95739	1373.00000
38.97727	1371.00000
38.99714	1392.00000
39.01701	1399.00000
39.03689	1385.00000
39.05676	1399.00000
39.07664	1405.00000
39.09651	1387.00000
39.11638	1382.00000
39.13626	1386.00000
39.15613	1373.00000
39.17601	1365.00000
39.19588	1360.00000
39.21575	1357.00000
39.23563	1349.00000
39.25550	1353.00000
39.27538	1349.00000
39.29525	1354.00000
39.31512	1364.00000
39.33500	1365.00000
39.35487	1370.00000
39.37475	1378.00000
39.39462	1380.00000
39.41449	1377.00000
39.43437	1382.00000
39.45424	1389.00000
39.47412	1390.00000
39.49399	1409.00000
39.51386	1417.00000
39.53374	1426.00000
39.55361	1449.00000
39.57349	1453.00000
39.59336	1469.00000
39.61323	1486.00000
39.63311	1504.00000
39.65298	1540.00000
39.67286	1559.00000
39.69273	1599.00000
39.71260	1634.00000
39.73248	1663.00000
39.75235	1700.00000
39.77223	1730.00000
39.79210	1751.00000
39.81197	1769.00000
39.83185	1797.00000
39.85172	1801.00000
39.87160	1793.00000
39.89147	1784.00000
39.91134	1769.00000
39.93122	1729.00000
39.95109	1692.00000
39.97097	1658.00000
39.99084	1630.00000
40.01071	1595.00000
40.03059	1581.00000
40.05046	1563.00000
40.07034	1562.00000
40.09021	1551.00000
40.11008	1549.00000
40.12996	1543.00000
40.14983	1540.00000
40.16971	1531.00000
40.18958	1526.00000
40.20945	1527.00000
40.22933	1525.00000
40.24920	1529.00000
40.26908	1532.00000
40.28895	1546.00000
40.30882	1543.00000
40.32870	1552.00000
40.34857	1556.00000
40.36845	1554.00000
40.38832	1558.00000
40.40819	1547.00000
40.42807	1537.00000
40.44794	1525.00000
40.46782	1508.00000
40.48769	1484.00000
40.50756	1471.00000
40.52744	1452.00000
40.54731	1438.00000
40.56719	1427.00000
40.58706	1413.00000
40.60693	1414.00000
40.62681	1402.00000
40.64668	1403.00000
40.66656	1401.00000
40.68643	1411.00000
40.70630	1404.00000
40.72618	1409.00000
40.74605	1420.00000
40.76593	1418.00000
40.78580	1423.00000
40.80567	1428.00000
40.82555	1415.00000
40.84542	1422.00000
40.86530	1407.00000
40.88517	1391.00000
40.90504	1387.00000
40.92492	1375.00000
40.94479	1368.00000
40.96467	1360.00000
40.98454	1353.00000
41.00441	1348.00000
41.02429	1338.00000
41.04416	1336.00000
41.06404	1322.00000
41.08391	1324.00000
41.10378	1327.00000
41.12366	1328.00000
41.14353	1339.00000
41.16341	1349.00000
41.18328	1363.00000
41.20315	1369.00000
41.22303	1371.00000
41.24290	1395.00000
41.26278	1386.00000
41.28265	1395.00000
41.30252	1405.00000
41.32240	1414.00000
41.34227	1410.00000
41.36215	1432.00000
41.38202	1431.00000
41.40189	1442.00000
41.42177	1453.00000
41.44164	1468.00000
41.46152	1467.00000
41.48139	1482.00000
41.50126	1478.00000
41.52114	1473.00000
41.54101	1477.00000
41.56089	1465.00000
41.58076	1454.00000
41.60063	1459.00000
41.62051	1445.00000
41.64038	1431.00000
41.66026	1424.00000
41.68013	1407.00000
41.70000	1399.00000
41.71988	1385.00000
41.73975	1376.00000
41.75963	1371.00000
41.77950	1364.00000
41.79937	1345.00000
41.81925	1349.00000
41.83912	1338.00000
41.85900	1331.00000
41.87887	1334.00000
41.89874	1326.00000
41.91862	1319.00000
41.93849	1313.00000
41.95837	1301.00000
41.97824	1281.00000
41.99811	1286.00000
42.01799	1269.00000
42.03786	1261.00000
42.05774	1259.00000
42.07761	1242.00000
42.09748	1239.00000
42.11736	1215.00000
42.13723	1208.00000
42.15711	1196.00000
42.17698	1197.00000
42.19685	1185.00000
42.21673	1199.00000
42.23660	1197.00000
42.25648	1206.00000
42.27635	1211.00000
42.29622	1214.00000
42.31610	1220.00000
42.33597	1216.00000
42.35585	1222.00000
42.37572	1223.00000
42.39559	1212.00000
42.41547	1228.00000
42.43534	1217.00000
42.45522	1232.00000
42.47509	1232.00000
42.49496	1233.00000
42.51484	1236.00000
42.53471	1246.00000
42.55459	1239.00000
42.57446	1243.00000
42.59433	1241.00000
42.61421	1247.00000
42.63408	1247.00000
42.65396	1235.00000
42.67383	1245.00000
42.69370	1240.00000
42.71358	1231.00000
42.73345	1237.00000
42.75333	1231.00000
42.77320	1233.00000
42.79307	1240.00000
42.81295	1239.00000
42.83282	1254.00000
42.85270	1254.00000
42.87257	1257.00000
42.89244	1264.00000
42.91232	1266.00000
42.93219	1266.00000
42.95207	1266.00000
42.97194	1259.00000
42.99181	1257.00000
43.01169	1253.00000
43.03156	1235.00000
43.05144	1229.00000
43.07131	1229.00000
43.09118	1218.00000
43.11106	1213.00000
43.13093	1213.00000
43.15081	1205.00000
43.17068	1198.00000
43.19055	1193.00000
43.21043	1185.00000
43.23030	1177.00000
43.25018	1184.00000
43.27005	1179.00000
43.28992	1186.00000
43.30980	1187.00000
43.32967	1188.00000
43.34955	1191.00000
43.36942	1176.00000
43.38929	1184.00000
43.40917	1177.00000
43.42904	1175.00000
43.44892	1179.00000
43.46879	1191.00000
43.48866	1198.00000
43.50854	1192.00000
43.52841	1212.00000
43.54829	1200.00000
43.56816	1199.00000
43.58803	1193.00000
43.60791	1190.00000
43.62778	1184.00000
43.64766	1178.00000
43.66753	1187.00000
43.68740	1185.00000
43.70728	1193.00000
43.72715	1210.00000
43.74703	1221.00000
43.76690	1247.00000
43.78677	1257.00000
43.80665	1276.00000
43.82652	1289.00000
43.84640	1306.00000
43.86627	1313.00000
43.88614	1336.00000
43.90602	1366.00000
43.92589	1380.00000
43.94577	1406.00000
43.96564	1433.00000
43.98551	1441.00000
44.00539	1453.00000
44.02526	1463.00000
44.04514	1471.00000
44.06501	1465.00000
44.08488	1472.00000
44.10476	1468.00000
44.12463	1457.00000
44.14451	1445.00000
44.16438	1447.00000
44.18425	1436.00000
44.20413	1432.00000
44.22400	1435.00000
44.24388	1450.00000
44.26375	1436.00000
44.28362	1449.00000
44.30350	1451.00000
44.32337	1450.00000
44.34325	1451.00000
44.36312	1458.00000
44.38299	1461.00000
44.40287	1470.00000
44.42274	1483.00000
44.44262	1489.00000
44.46249	1503.00000
44.48236	1516.00000
44.50224	1506.00000
44.52211	1522.00000
44.54199	1516.00000
44.56186	1498.00000
44.58173	1497.00000
44.60161	1482.00000
44.62148	1464.00000
44.64136	1450.00000
44.66123	1423.00000
44.68110	1418.00000
44.70098	1387.00000
44.72085	1368.00000
44.74073	1359.00000
44.76060	1346.00000
44.78047	1341.00000
44.80035	1336.00000
44.82022	1345.00000
44.84010	1347.00000
44.85997	1348.00000
44.87984	1358.00000
44.89972	1362.00000
44.91959	1375.00000
44.93947	1386.00000
44.95934	1396.00000
44.97921	1414.00000
44.99909	1431.00000
45.01896	1432.00000
45.03884	1444.00000
45.05871	1459.00000
45.07858	1459.00000
45.09846	1469.00000
45.11833	1470.00000
45.13821	1471.00000
45.15808	1460.00000
45.17795	1443.00000
45.19783	1430.00000
45.21770	1400.00000
45.23758	1379.00000
45.25745	1357.00000
45.27732	1343.00000
45.29720	1310.00000
45.31707	1305.00000
45.33695	1289.00000
45.35682	1274.00000
45.37669	1272.00000
45.39657	1268.00000
45.41644	1265.00000
45.43632	1270.00000
45.45619	1268.00000
45.47606	1268.00000
45.49594	1272.00000
45.51581	1271.00000
45.53569	1275.00000
45.55556	1272.00000
45.57543	1278.00000
45.59531	1278.00000
45.61518	1280.00000
45.63506	1281.00000
45.65493	1277.00000
45.67480	1290.00000
45.69468	1277.00000
45.71455	1285.00000
45.73443	1282.00000
45.75430	1284.00000
45.77417	1270.00000
45.79405	1272.00000
45.81392	1266.00000
45.83380	1256.00000
45.85367	1254.00000
45.87354	1239.00000
45.89342	1243.00000
45.91329	1227.00000
45.93317	1223.00000
45.95304	1223.00000
45.97291	1226.00000
45.99279	1222.00000
46.01266	1233.00000
46.03254	1236.00000
46.05241	1240.00000
46.07228	1252.00000
46.09216	1246.00000
46.11203	1245.00000
46.13191	1243.00000
46.15178	1238.00000
46.17165	1225.00000
46.19153	1231.00000
46.21140	1238.00000
46.23128	1248.00000
46.25115	1255.00000
46.27102	1272.00000
46.29090	1279.00000
46.31077	1277.00000
46.33065	1286.00000
46.35052	1286.00000
46.37039	1273.00000
46.39027	1286.00000
46.41014	1272.00000
46.43002	1272.00000
46.44989	1268.00000
46.46976	1264.00000
46.48964	1264.00000
46.50951	1264.00000
46.52939	1267.00000
46.54926	1273.00000
46.56913	1263.00000
46.58901	1277.00000
46.60888	1268.00000
46.62876	1273.00000
46.64863	1268.00000
46.66850	1284.00000
46.68838	1281.00000
46.70825	1293.00000
46.72813	1298.00000
46.74800	1292.00000
46.76787	1291.00000
46.78775	1285.00000
46.80762	1265.00000
46.82750	1264.00000
46.84737	1251.00000
46.86724	1244.00000
46.88712	1244.00000
46.90699	1239.00000
46.92687	1240.00000
46.94674	1239.00000
46.96661	1246.00000
46.98649	1240.00000
47.00636	1246.00000
47.02624	1251.00000
47.04611	1242.00000
47.06598	1243.00000
47.08586	1241.00000
47.10573	1235.00000
47.12561	1221.00000
47.14548	1218.00000
47.16535	1208.00000
47.18523	1196.00000
47.20510	1193.00000
47.22498	1208.00000
47.24485	1192.00000
47.26472	1223.00000
47.28460	1232.00000
47.30447	1235.00000
47.32435	1261.00000
47.34422	1260.00000
47.36409	1276.00000
47.38397	1287.00000
47.40384	1286.00000
47.42372	1303.00000
47.44359	1306.00000
47.46346	1323.00000
47.48334	1328.00000
47.50321	1335.00000
47.52309	1352.00000
47.54296	1342.00000
47.56283	1345.00000
47.58271	1340.00000
47.60258	1317.00000
47.62246	1329.00000
47.64233	1303.00000
47.66220	1300.00000
47.68208	1289.00000
47.70195	1287.00000
47.72183	1266.00000
47.74170	1256.00000
47.76157	1249.00000
47.78145	1237.00000
47.80132	1230.00000
47.82120	1236.00000
47.84107	1230.00000
47.86094	1230.00000
47.88082	1232.00000
47.90069	1222.00000
47.92057	1220.00000
47.94044	1201.00000
47.96031	1214.00000
47.98019	1199.00000
48.00006	1199.00000
48.01994	1207.00000
48.03981	1205.00000
48.05968	1198.00000
48.07956	1193.00000
48.09943	1187.00000
48.11931	1179.00000
48.13918	1167.00000
48.15905	1167.00000
48.17893	1171.00000
48.19880	1165.00000
48.21868	1177.00000
48.23855	1173.00000
48.25842	1165.00000
48.27830	1171.00000
48.29817	1161.00000
48.31805	1163.00000
48.33792	1169.00000
48.35779	1172.00000
48.37767	1182.00000
48.39754	1196.00000
48.41742	1183.00000
48.43729	1206.00000
48.45716	1199.00000
48.47704	1207.00000
48.49691	1221.00000
48.51679	1236.00000
48.53666	1246.00000
48.55653	1268.00000
48.57641	1273.00000
48.59628	1291.00000
48.61616	1298.00000
48.63603	1313.00000
48.65590	1324.00000
48.67578	1342.00000
48.69565	1348.00000
48.71553	1353.00000
48.73540	1365.00000
48.75527	1347.00000
48.77515	1347.00000
48.79502	1341.00000
48.81490	1323.00000
48.83477	1318.00000
48.85464	1316.00000
48.87452	1305.00000
48.89439	1300.00000
48.91427	1296.00000
48.93414	1292.00000
48.95401	1283.00000
48.97389	1278.00000
48.99376	1278.00000
49.01364	1281.00000
49.03351	1279.00000
49.05338	1287.00000
49.07326	1297.00000
49.09313	1295.00000
49.11301	1306.00000
49.13288	1301.00000
49.15275	1296.00000
49.17263	1286.00000
49.19250	1271.00000
49.21238	1262.00000
49.23225	1246.00000
49.25212	1243.00000
49.27200	1239.00000
49.29187	1241.00000
49.31175	1237.00000
49.33162	1233.00000
49.35149	1230.00000
49.37137	1219.00000
49.39124	1210.00000
49.41112	1211.00000
49.43099	1202.00000
49.45086	1205.00000
49.47074	1196.00000
49.49061	1187.00000
49.51049	1188.00000
49.53036	1166.00000
49.55023	1165.00000
49.57011	1157.00000
49.58998	1149.00000
49.60986	1154.00000
49.62973	1153.00000
49.64960	1148.00000
49.66948	1152.00000
49.68935	1144.00000
49.70923	1147.00000
49.72910	1131.00000
49.74897	1140.00000
49.76885	1132.00000
49.78872	1135.00000
49.80860	1146.00000
49.82847	1138.00000
49.84834	1145.00000
49.86822	1152.00000
49.88809	1144.00000
49.90797	1157.00000
49.92784	1145.00000
49.94771	1153.00000
49.96759	1156.00000
49.98746	1153.00000
50.00734	1151.00000
50.02721	1161.00000
50.04708	1151.00000
50.06696	1155.00000
50.08683	1154.00000
50.10671	1148.00000
50.12658	1147.00000
50.14645	1154.00000
50.16633	1143.00000
50.18620	1147.00000
50.20608	1151.00000
50.22595	1140.00000
50.24582	1140.00000
50.26570	1137.00000
50.28557	1128.00000
50.30545	1131.00000
50.32532	1120.00000
50.34519	1123.00000
50.36507	1113.00000
50.38494	1110.00000
50.40482	1097.00000
50.42469	1085.00000
50.44456	1079.00000
50.46444	1062.00000
50.48431	1059.00000
50.50419	1052.00000
50.52406	1052.00000
50.54393	1057.00000
50.56381	1060.00000
50.58368	1067.00000
50.60356	1072.00000
50.62343	1075.00000
50.64330	1069.00000
50.66318	1064.00000
50.68305	1060.00000
50.70293	1045.00000
50.72280	1036.00000
50.74267	1043.00000
50.76255	1026.00000
50.78242	1034.00000
50.80230	1033.00000
50.82217	1037.00000
50.84204	1042.00000
50.86192	1038.00000
50.88179	1046.00000
50.90167	1047.00000
50.92154	1053.00000
50.94141	1049.00000
50.96129	1061.00000
50.98116	1055.00000
51.00104	1064.00000
51.02091	1064.00000
51.04078	1065.00000
51.06066	1076.00000
51.08053	1078.00000
51.10041	1086.00000
51.12028	1088.00000
51.14015	1094.00000
51.16003	1096.00000
51.17990	1093.00000
51.19978	1100.00000
51.21965	1091.00000
51.23952	1095.00000
51.25940	1103.00000
51.27927	1093.00000
51.29915	1101.00000
51.31902	1113.00000
51.33889	1109.00000
51.35877	1117.00000
51.37864	1116.00000
51.39852	1125.00000
51.41839	1124.00000
51.43826	1113.00000
51.45814	1119.00000
51.47801	1107.00000
51.49789	1099.00000
51.51776	1092.00000
51.53763	1085.00000
51.55751	1080.00000
51.57738	1078.00000
51.59726	1066.00000
51.61713	1070.00000
51.63700	1060.00000
51.65688	1051.00000
51.67675	1056.00000
51.69663	1055.00000
51.71650	1056.00000
51.73637	1062.00000
51.75625	1075.00000
51.77612	1080.00000
51.79600	1088.00000
51.81587	1096.00000
51.83574	1098.00000
51.85562	1096.00000
51.87549	1089.00000
51.89537	1083.00000
51.91524	1078.00000
51.93511	1064.00000
51.95499	1062.00000
51.97486	1060.00000
51.99474	1060.00000
52.01461	1056.00000
52.03448	1059.00000
52.05436	1066.00000
52.07423	1071.00000
52.09411	1079.00000
52.11398	1081.00000
52.13385	1098.00000
52.15373	1096.00000
52.17360	1095.00000
52.19348	1104.00000
52.21335	1111.00000
52.23322	1110.00000
52.25310	1125.00000
52.27297	1143.00000
52.29285	1149.00000
52.31272	1163.00000
52.33259	1175.00000
52.35247	1186.00000
52.37234	1196.00000
52.39222	1200.00000
52.41209	1212.00000
52.43196	1215.00000
52.45184	1212.00000
52.47171	1208.00000
52.49159	1202.00000
52.51146	1184.00000
52.53133	1179.00000
52.55121	1159.00000
52.57108	1152.00000
52.59096	1143.00000
52.61083	1129.00000
52.63070	1131.00000
52.65058	1110.00000
52.67045	1110.00000
52.69033	1097.00000
52.71020	1087.00000
52.73007	1076.00000
52.74995	1076.00000
52.76982	1076.00000
52.78970	1079.00000
52.80957	1081.00000
52.82944	1084.00000
52.84932	1094.00000
52.86919	1081.00000
52.88907	1079.00000
52.90894	1075.00000
52.92881	1068.00000
52.94869	1061.00000
52.96856	1059.00000
52.98844	1050.00000
53.00831	1052.00000
53.02818	1051.00000
53.04806	1042.00000
53.06793	1056.00000
53.08781	1054.00000
53.10768	1056.00000
53.12755	1070.00000
53.14743	1057.00000
53.16730	1063.00000
53.18718	1064.00000
53.20705	1050.00000
53.22692	1058.00000
53.24680	1064.00000
53.26667	1057.00000
53.28655	1059.00000
53.30642	1062.00000
53.32629	1066.00000
53.34617	1047.00000
53.36604	1055.00000
53.38592	1050.00000
53.40579	1057.00000
53.42566	1050.00000
53.44554	1062.00000
53.46541	1071.00000
53.48529	1069.00000
53.50516	1080.00000
53.52503	1081.00000
53.54491	1078.00000
53.56478	1075.00000
53.58466	1072.00000
53.60453	1064.00000
53.62440	1056.00000
53.64428	1049.00000
53.66415	1047.00000
53.68403	1032.00000
53.70390	1036.00000
53.72377	1034.00000
53.74365	1025.00000
53.76352	1040.00000
53.78340	1032.00000
53.80327	1038.00000
53.82314	1040.00000
53.84302	1039.00000
53.86289	1045.00000
53.88277	1046.00000
53.90264	1055.00000
53.92251	1058.00000
53.94239	1069.00000
53.96226	1079.00000
53.98214	1077.00000
54.00201	1087.00000
54.02188	1089.00000
54.04176	1089.00000
54.06163	1090.00000
54.08151	1097.00000
54.10138	1093.00000
54.12125	1101.00000
54.14113	1105.00000
54.16100	1108.00000
54.18088	1116.00000
54.20075	1117.00000
54.22062	1127.00000
54.24050	1127.00000
54.26037	1130.00000
54.28025	1121.00000
54.30012	1126.00000
54.31999	1109.00000
54.33987	1103.00000
54.35974	1091.00000
54.37962	1086.00000
54.39949	1083.00000
54.41936	1072.00000
54.43924	1071.00000
54.45911	1078.00000
54.47899	1064.00000
54.49886	1067.00000
54.51873	1066.00000
54.53861	1070.00000
54.55848	1063.00000
54.57836	1063.00000
54.59823	1070.00000
54.61810	1065.00000
54.63798	1054.00000
54.65785	1061.00000
54.67773	1051.00000
54.69760	1046.00000
54.71747	1045.00000
54.73735	1033.00000
54.75722	1026.00000
54.77710	1029.00000
54.79697	1016.00000
54.81684	1015.00000
54.83672	1016.00000
54.85659	1027.00000
54.87647	1017.00000
54.89634	1027.00000
54.91621	1026.00000
54.93609	1024.00000
54.95596	1019.00000
54.97584	1017.00000
54.99571	1016.00000
55.01558	1009.00000
55.03546	1016.00000
55.05533	1010.00000
55.07521	1010.00000
55.09508	1012.00000
55.11495	1017.00000
55.13483	1010.00000
55.15470	1003.00000
55.17458	1021.00000
55.19445	1002.00000
55.21432	1006.00000
55.23420	1013.00000
55.25407	1011.00000
55.27395	1021.00000
55.29382	1015.00000
55.31369	1025.00000
55.33357	1019.00000
55.35344	1018.00000
55.37332	1018.00000
55.39319	1012.00000
55.41306	1011.00000
55.43294	1015.00000
55.45281	1001.00000
55.47269	1008.00000
55.49256	1009.00000
55.51243	1004.00000
55.53231	1001.00000
55.55218	1003.00000
55.57206	1003.00000
55.59193	983.00000
55.61180	983.00000
55.63168	984.00000
55.65155	972.00000
55.67143	973.00000
55.69130	985.00000
55.71117	975.00000
55.73105	983.00000
55.75092	984.00000
55.77080	977.00000
55.79067	977.00000
55.81054	979.00000
55.83042	972.00000
55.85029	971.00000
55.87017	972.00000
55.89004	962.00000
55.90991	966.00000
55.92979	952.00000
55.94966	952.00000
55.96954	951.00000
55.98941	943.00000
56.00928	945.00000
56.02916	951.00000
56.04903	946.00000
56.06891	952.00000
56.08878	953.00000
56.10865	951.00000
56.12853	949.00000
56.14840	947.00000
56.16828	947.00000
56.18815	943.00000
56.20802	947.00000
56.22790	949.00000
56.24777	940.00000
56.26765	942.00000
56.28752	931.00000
56.30739	935.00000
56.32727	928.00000
56.34714	936.00000
56.36702	938.00000
56.38689	951.00000
56.40676	957.00000
56.42664	961.00000
56.44651	968.00000
56.46639	964.00000
56.48626	971.00000
56.50613	962.00000
56.52601	959.00000
56.54588	965.00000
56.56576	954.00000
56.58563	956.00000
56.60550	964.00000
56.62538	957.00000
56.64525	966.00000
56.66513	974.00000
56.68500	959.00000
56.70487	970.00000
56.72475	956.00000
56.74462	949.00000
56.76450	951.00000
56.78437	944.00000
56.80424	935.00000
56.82412	947.00000
56.84399	944.00000
56.86387	936.00000
56.88374	944.00000
56.90361	945.00000
56.92349	945.00000
56.94336	948.00000
56.96324	956.00000
56.98311	958.00000
57.00298	964.00000
57.02286	962.00000
57.04273	971.00000
57.06261	976.00000
57.08248	980.00000
57.10235	984.00000
57.12223	994.00000
57.14210	996.00000
57.16198	990.00000
57.18185	992.00000
57.20172	992.00000
57.22160	981.00000
57.24147	984.00000
57.26135	989.00000
57.28122	989.00000
57.30109	987.00000
57.32097	1004.00000
57.34084	1001.00000
57.36072	1001.00000
57.38059	1003.00000
57.40046	1004.00000
57.42034	990.00000
57.44021	999.00000
57.46009	992.00000
57.47996	985.00000
57.49983	993.00000
57.51971	991.00000
57.53958	986.00000
57.55946	987.00000
57.57933	990.00000
57.59920	981.00000
57.61908	984.00000
57.63895	980.00000
57.65883	978.00000
57.67870	974.00000
57.69857	976.00000
57.71845	979.00000
57.73832	974.00000
57.75820	981.00000
57.77807	988.00000
57.79794	982.00000
57.81782	993.00000
57.83769	998.00000
57.85757	999.00000
57.87744	1002.00000
57.89731	1005.00000
57.91719	999.00000
57.93706	997.00000
57.95694	999.00000
57.97681	989.00000
57.99668	993.00000
58.01656	996.00000
58.03643	994.00000
58.05631	996.00000
58.07618	996.00000
58.09605	999.00000
58.11593	999.00000
58.13580	999.00000
58.15568	1001.00000
58.17555	1000.00000
58.19542	999.00000
58.21530	990.00000
58.23517	976.00000
58.25505	973.00000
58.27492	956.00000
58.29479	949.00000
58.31467	946.00000
58.33454	946.00000
58.35442	951.00000
58.37429	952.00000
58.39416	959.00000
58.41404	962.00000
58.43391	958.00000
58.45379	962.00000
58.47366	960.00000
58.49353	957.00000
58.51341	953.00000
58.53328	955.00000
58.55316	952.00000
58.57303	948.00000
58.59290	949.00000
58.61278	949.00000
58.63265	949.00000
58.65253	950.00000
58.67240	949.00000
58.69227	950.00000
58.71215	947.00000
58.73202	944.00000
58.75190	938.00000
58.77177	929.00000
58.79164	928.00000
58.81152	918.00000
58.83139	917.00000
58.85127	916.00000
58.87114	914.00000
58.89101	919.00000
58.91089	914.00000
58.93076	914.00000
58.95064	915.00000
58.97051	916.00000
58.99038	921.00000
59.01026	918.00000
59.03013	926.00000
59.05001	930.00000
59.06988	923.00000
59.08975	916.00000
59.10963	920.00000
59.12950	907.00000
59.14938	904.00000
59.16925	902.00000
59.18912	906.00000
59.20900	908.00000
59.22887	904.00000
59.24875	906.00000
59.26862	904.00000
59.28849	899.00000
59.30837	886.00000
59.32824	894.00000
59.34812	886.00000
59.36799	891.00000
59.38786	888.00000
59.40774	898.00000
59.42761	893.00000
59.44749	898.00000
59.46736	894.00000
59.48723	894.00000
59.50711	898.00000
59.52698	893.00000
59.54686	892.00000
59.56673	900.00000
59.58660	890.00000
59.60648	895.00000
59.62635	894.00000
59.64623	897.00000
59.66610	895.00000
59.68597	907.00000
59.70585	901.00000
59.72572	918.00000
59.74560	915.00000
59.76547	920.00000
59.78534	924.00000
59.80522	927.00000
59.82509	921.00000
59.84497	925.00000
59.86484	923.00000
59.88471	918.00000
59.90459	917.00000
59.92446	904.00000
59.94434	910.00000
59.96421	891.00000
59.98408	893.00000
60.00396	883.00000
60.02383	887.00000
60.04371	882.00000
60.06358	879.00000
60.08345	880.00000
60.10333	878.00000
60.12320	872.00000
60.14308	868.00000
60.16295	867.00000
60.18282	869.00000
60.20270	866.00000
60.22257	872.00000
60.24245	877.00000
60.26232	878.00000
60.28219	879.00000
60.30207	887.00000
60.32194	875.00000
60.34182	879.00000
60.36169	883.00000
60.38156	873.00000
60.40144	873.00000
60.42131	871.00000
60.44119	871.00000
60.46106	865.00000
60.48093	870.00000
60.50081	874.00000
60.52068	880.00000
60.54056	880.00000
60.56043	886.00000
60.58030	885.00000
60.60018	889.00000
60.62005	884.00000
60.63993	893.00000
60.65980	880.00000
60.67967	887.00000
60.69955	883.00000
60.71942	873.00000
60.73930	871.00000
60.75917	874.00000
60.77904	875.00000
60.79892	874.00000
60.81879	879.00000
60.83867	897.00000
60.85854	886.00000
60.87841	900.00000
60.89829	902.00000
60.91816	898.00000
60.93804	907.00000
60.95791	893.00000
60.97778	900.00000
60.99766	894.00000
61.01753	898.00000
61.03741	903.00000
61.05728	902.00000
61.07715	918.00000
61.09703	923.00000
61.11690	917.00000
61.13678	926.00000
61.15665	930.00000
61.17652	914.00000
61.19640	921.00000
61.21627	914.00000
61.23615	906.00000
61.25602	908.00000
61.27589	908.00000
61.29577	909.00000
61.31564	911.00000
61.33552	916.00000
61.35539	914.00000
61.37526	920.00000
61.39514	913.00000
61.41501	916.00000
61.43489	915.00000
61.45476	918.00000
61.47463	922.00000
61.49451	919.00000
61.51438	932.00000
61.53426	930.00000
61.55413	942.00000
61.57400	930.00000
61.59388	935.00000
61.61375	936.00000
61.63363	920.00000
61.65350	917.00000
61.67337	918.00000
61.69325	909.00000
61.71312	909.00000
61.73300	918.00000
61.75287	911.00000
61.77274	920.00000
61.79262	916.00000
61.81249	910.00000
61.83237	917.00000
61.85224	906.00000
61.87211	907.00000
61.89199	903.00000
61.91186	911.00000
61.93174	909.00000
61.95161	909.00000
61.97148	915.00000
61.99136	913.00000
62.01123	920.00000
62.03111	901.00000
62.05098	910.00000
62.07085	895.00000
62.09073	895.00000
62.11060	880.00000
62.13048	873.00000
62.15035	875.00000
62.17022	866.00000
62.19010	862.00000
62.20997	863.00000
62.22985	870.00000
62.24972	862.00000
62.26959	867.00000
62.28947	868.00000
62.30934	866.00000
62.32922	864.00000
62.34909	868.00000
62.36896	871.00000
62.38884	869.00000
62.40871	872.00000
62.42859	878.00000
62.44846	875.00000
62.46833	875.00000
62.48821	880.00000
62.50808	881.00000
62.52796	886.00000
62.54783	880.00000
62.56770	888.00000
62.58758	878.00000
62.60745	880.00000
62.62733	874.00000
62.64720	877.00000
62.66707	879.00000
62.68695	876.00000
62.70682	885.00000
62.72670	882.00000
62.74657	878.00000
62.76644	889.00000
62.78632	886.00000
62.80619	890.00000
62.82607	898.00000
62.84594	907.00000
62.86581	908.00000
62.88569	913.00000
62.90556	912.00000
62.92544	920.00000
62.94531	907.00000
62.96518	903.00000
62.98506	896.00000
63.00493	896.00000
63.02481	883.00000
63.04468	890.00000
63.06455	891.00000
63.08443	900.00000
63.10430	906.00000
63.12418	906.00000
63.14405	913.00000
63.16392	917.00000
63.18380	908.00000
63.20367	915.00000
63.22355	917.00000
63.24342	912.00000
63.26329	914.00000
63.28317	923.00000
63.30304	911.00000
63.32292	916.00000
63.34279	921.00000
63.36266	912.00000
63.38254	913.00000
63.40241	908.00000
63.42229	905.00000
63.44216	902.00000
63.46203	907.00000
63.48191	889.00000
63.50178	915.00000
63.52166	903.00000
63.54153	905.00000
63.56140	916.00000
63.58128	915.00000
63.60115	915.00000
63.62103	917.00000
63.64090	915.00000
63.66077	906.00000
63.68065	905.00000
63.70052	896.00000
63.72040	890.00000
63.74027	889.00000
63.76014	883.00000
63.78002	887.00000
63.79989	889.00000
63.81977	889.00000
63.83964	896.00000
63.85951	901.00000
63.87939	911.00000
63.89926	906.00000
63.91914	917.00000
63.93901	910.00000
63.95888	905.00000
63.97876	900.00000
63.99863	897.00000
64.01851	889.00000
64.03838	887.00000
64.05825	887.00000
64.07813	884.00000
64.09800	883.00000
64.11788	875.00000
64.13775	877.00000
64.15762	872.00000
64.17750	868.00000
64.19737	869.00000
64.21725	863.00000
64.23712	865.00000
64.25699	856.00000
64.27687	858.00000
64.29674	846.00000
64.31662	848.00000
64.33649	846.00000
64.35636	846.00000
64.37624	847.00000
64.39611	854.00000
64.41599	854.00000
64.43586	859.00000
64.45573	853.00000
64.47561	856.00000
64.49548	850.00000
64.51536	843.00000
64.53523	842.00000
64.55510	838.00000
64.57498	839.00000
64.59485	843.00000
64.61473	844.00000
64.63460	852.00000
64.65447	859.00000
64.67435	856.00000
64.69422	863.00000
64.71410	853.00000
64.73397	859.00000
64.75384	849.00000
64.77372	850.00000
64.79359	846.00000
64.81347	850.00000
64.83334	850.00000
64.85321	856.00000
64.87309	849.00000
64.89296	853.00000
64.91284	848.00000
64.93271	839.00000
64.95258	839.00000
64.97246	830.00000
64.99233	835.00000
65.01221	829.00000
65.03208	834.00000
65.05195	837.00000
65.07183	835.00000
65.09170	838.00000
65.11158	840.00000
65.13145	838.00000
65.15132	834.00000
65.17120	838.00000
65.19107	834.00000
65.21095	829.00000
65.23082	832.00000
65.25069	838.00000
65.27057	834.00000
65.29044	839.00000
65.31032	845.00000
65.33019	843.00000
65.35006	841.00000
65.36994	850.00000
65.38981	844.00000
65.40969	845.00000
65.42956	851.00000
65.44943	848.00000
65.46931	848.00000
65.48918	840.00000
65.50906	844.00000
65.52893	833.00000
65.54880	836.00000
65.56868	828.00000
65.58855	836.00000
65.60843	840.00000
65.62830	845.00000
65.64817	851.00000
65.66805	860.00000
65.68792	868.00000
65.70780	865.00000
65.72767	869.00000
65.74754	869.00000
65.76742	863.00000
65.78729	865.00000
65.80717	862.00000
65.82704	862.00000
65.84691	867.00000
65.86679	867.00000
65.88666	871.00000
65.90654	883.00000
65.92641	886.00000
65.94628	882.00000
65.96616	897.00000
65.98603	893.00000
66.00591	886.00000
66.02578	889.00000
66.04565	887.00000
66.06553	885.00000
66.08540	884.00000
66.10528	890.00000
66.12515	891.00000
66.14502	896.00000
66.16490	892.00000
66.18477	894.00000
66.20465	888.00000
66.22452	886.00000
66.24439	878.00000
66.26427	882.00000
66.28414	887.00000
66.30402	888.00000
66.32389	889.00000
66.34376	891.00000
66.36364	894.00000
66.38351	884.00000
66.40339	879.00000
66.42326	876.00000
66.44313	874.00000
66.46301	867.00000
66.48288	870.00000
66.50276	873.00000
66.52263	868.00000
66.54250	870.00000
66.56238	875.00000
66.58225	867.00000
66.60213	868.00000
66.62200	873.00000
66.64187	876.00000
66.66175	882.00000
66.68162	890.00000
66.70150	891.00000
66.72137	897.00000
66.74124	892.00000
66.76112	882.00000
66.78099	884.00000
66.80087	868.00000
66.82074	869.00000
66.84061	861.00000
66.86049	856.00000
66.88036	856.00000
66.90024	847.00000
66.92011	850.00000
66.93998	844.00000
66.95986	841.00000
66.97973	847.00000
66.99961	846.00000
67.01948	848.00000
67.03935	854.00000
67.05923	856.00000
67.07910	853.00000
67.09898	855.00000
67.11885	852.00000
67.13872	849.00000
67.15860	854.00000
67.17847	859.00000
67.19835	863.00000
67.21822	868.00000
67.23809	874.00000
67.25797	866.00000
67.27784	866.00000
67.29772	862.00000
67.31759	861.00000
67.33746	851.00000
67.35734	862.00000
67.37721	858.00000
67.39709	855.00000
67.41696	855.00000
67.43683	850.00000
67.45671	845.00000
67.47658	843.00000
67.49646	831.00000
67.51633	836.00000
67.53620	829.00000
67.55608	825.00000
67.57595	828.00000
67.59583	827.00000
67.61570	826.00000
67.63557	826.00000
67.65545	828.00000
67.67532	827.00000
67.69520	830.00000
67.71507	828.00000
67.73494	836.00000
67.75482	841.00000
67.77469	834.00000
67.79457	842.00000
67.81444	844.00000
67.83431	836.00000
67.85419	839.00000
67.87406	843.00000
67.89394	841.00000
67.91381	845.00000
67.93368	851.00000
67.95356	851.00000
67.97343	854.00000
67.99331	858.00000
68.01318	856.00000
68.03305	853.00000
68.05293	853.00000
68.07280	851.00000
68.09268	846.00000
68.11255	846.00000
68.13242	850.00000
68.15230	858.00000
68.17217	856.00000
68.19205	867.00000
68.21192	873.00000
68.23179	870.00000
68.25167	872.00000
68.27154	866.00000
68.29142	867.00000
68.31129	861.00000
68.33116	863.00000
68.35104	858.00000
68.37091	865.00000
68.39079	862.00000
68.41066	855.00000
68.43053	860.00000
68.45041	856.00000
68.47028	855.00000
68.49016	854.00000
68.51003	857.00000
68.52990	855.00000
68.54978	855.00000
68.56965	847.00000
68.58953	843.00000
68.60940	843.00000
68.62927	823.00000
68.64915	835.00000
68.66902	828.00000
68.68890	822.00000
68.70877	829.00000
68.72864	832.00000
68.74852	817.00000
68.76839	827.00000
68.78827	819.00000
68.80814	815.00000
68.82801	815.00000
68.84789	815.00000
68.86776	804.00000
68.88764	810.00000
68.90751	801.00000
68.92738	804.00000
68.94726	803.00000
68.96713	805.00000
68.98701	814.00000
69.00688	818.00000
69.02675	817.00000
69.04663	818.00000
69.06650	823.00000
69.08638	820.00000
69.10625	818.00000
69.12612	818.00000
69.14600	824.00000
69.16587	822.00000
69.18575	816.00000
69.20562	823.00000
69.22549	817.00000
69.24537	816.00000
69.26524	816.00000
69.28512	816.00000
69.30499	814.00000
69.32486	817.00000
69.34474	815.00000
69.36461	813.00000
69.38449	816.00000
69.40436	816.00000
69.42423	811.00000
69.44411	810.00000
69.46398	810.00000
69.48386	800.00000
69.50373	805.00000
69.52360	804.00000
69.54348	809.00000
69.56335	810.00000
69.58323	817.00000
69.60310	817.00000
69.62297	808.00000
69.64285	809.00000
69.66272	811.00000
69.68260	797.00000
69.70247	805.00000
69.72234	805.00000
69.74222	800.00000
69.76209	813.00000
69.78197	805.00000
69.80184	811.00000
69.82171	812.00000
69.84159	813.00000
69.86146	810.00000
69.88134	808.00000
69.90121	802.00000
69.92108	788.00000
69.94096	782.00000
69.96083	765.00000
69.98071	764.00000
70.00058	754.00000
70.02045	759.00000
70.04033	768.00000
70.06020	771.00000
70.08008	785.00000
70.09995	793.00000
70.11982	792.00000
70.13970	797.00000
70.15957	804.00000
70.17945	797.00000
70.19932	803.00000
70.21919	812.00000
70.23907	806.00000
70.25894	813.00000
70.27882	807.00000
70.29869	806.00000
70.31856	805.00000
70.33844	792.00000
70.35831	794.00000
70.37819	797.00000
70.39806	785.00000
70.41793	792.00000
70.43781	799.00000
70.45768	793.00000
70.47756	803.00000
70.49743	807.00000
70.51730	810.00000
70.53718	819.00000
70.55705	819.00000
70.57693	819.00000
70.59680	826.00000
70.61667	820.00000
70.63655	820.00000
70.65642	823.00000
70.67630	820.00000
70.69617	818.00000
70.71604	821.00000
70.73592	813.00000
70.75579	815.00000
70.77567	811.00000
70.79554	810.00000
70.81541	814.00000
70.83529	812.00000
70.85516	818.00000
70.87504	819.00000
70.89491	818.00000
70.91478	822.00000
70.93466	818.00000
70.95453	816.00000
70.97441	821.00000
70.99428	809.00000
71.01415	820.00000
71.03403	808.00000
71.05390	811.00000
71.07378	802.00000
71.09365	800.00000
71.11352	800.00000
71.13340	789.00000
71.15327	797.00000
71.17315	791.00000
71.19302	788.00000
71.21289	784.00000
71.23277	785.00000
71.25264	776.00000
71.27252	784.00000
71.29239	785.00000
71.31226	788.00000
71.33214	798.00000
71.35201	797.00000
71.37189	796.00000
71.39176	802.00000
71.41163	791.00000
71.43151	794.00000
71.45138	793.00000
71.47126	797.00000
71.49113	793.00000
71.51100	798.00000
71.53088	801.00000
71.55075	791.00000
71.57063	784.00000
71.59050	781.00000
71.61037	770.00000
71.63025	765.00000
71.65012	763.00000
71.67000	769.00000
71.68987	776.00000
71.70974	785.00000
71.72962	787.00000
71.74949	796.00000
71.76937	796.00000
71.78924	788.00000
71.80911	786.00000
71.82899	783.00000
71.84886	781.00000
71.86874	776.00000
71.88861	780.00000
71.90848	781.00000
71.92836	783.00000
71.94823	782.00000
71.96811	795.00000
71.98798	783.00000
72.00785	795.00000
72.02773	789.00000
72.04760	790.00000
72.06748	790.00000
72.08735	791.00000
72.10722	789.00000
72.12710	796.00000
72.14697	793.00000
72.16685	802.00000
72.18672	800.00000
72.20659	797.00000
72.22647	798.00000
72.24634	797.00000
72.26622	789.00000
72.28609	792.00000
72.30596	794.00000
72.32584	804.00000
72.34571	808.00000
72.36559	815.00000
72.38546	827.00000
72.40533	828.00000
72.42521	822.00000
72.44508	823.00000
72.46496	823.00000
72.48483	806.00000
72.50470	808.00000
72.52458	813.00000
72.54445	806.00000
72.56433	808.00000
72.58420	806.00000
72.60407	808.00000
72.62395	792.00000
72.64382	788.00000
72.66370	786.00000
72.68357	782.00000
72.70344	780.00000
72.72332	791.00000
72.74319	791.00000
72.76307	793.00000
72.78294	791.00000
72.80281	798.00000
72.82269	788.00000
72.84256	787.00000
72.86244	795.00000
72.88231	786.00000
72.90218	791.00000
72.92206	791.00000
72.94193	791.00000
72.96181	790.00000
72.98168	790.00000
73.00155	784.00000
73.02143	789.00000
73.04130	793.00000
73.06118	787.00000
73.08105	794.00000
73.10092	795.00000
73.12080	789.00000
73.14067	786.00000
73.16055	778.00000
73.18042	779.00000
73.20029	782.00000
73.22017	787.00000
73.24004	793.00000
73.25992	811.00000
73.27979	816.00000
73.29966	811.00000
73.31954	811.00000
73.33941	812.00000
73.35929	803.00000
73.37916	797.00000
73.39903	801.00000
73.41891	794.00000
73.43878	793.00000
73.45866	789.00000
73.47853	790.00000
73.49840	789.00000
73.51828	787.00000
73.53815	793.00000
73.55803	796.00000
73.57790	796.00000
73.59777	795.00000
73.61765	803.00000
73.63752	801.00000
73.65740	800.00000
73.67727	803.00000
73.69714	804.00000
73.71702	800.00000
73.73689	803.00000
73.75677	802.00000
73.77664	801.00000
73.79651	794.00000
73.81639	800.00000
73.83626	791.00000
73.85614	792.00000
73.87601	791.00000
73.89588	786.00000
73.91576	786.00000
73.93563	790.00000
73.95551	777.00000
73.97538	781.00000
73.99525	783.00000
74.01513	782.00000
74.03500	778.00000
74.05488	786.00000
74.07475	790.00000
74.09462	786.00000
74.11450	791.00000
74.13437	790.00000
74.15425	795.00000
74.17412	789.00000
74.19399	797.00000
74.21387	808.00000
74.23374	804.00000
74.25362	814.00000
74.27349	820.00000
74.29336	817.00000
74.31324	812.00000
74.33311	812.00000
74.35299	811.00000
74.37286	807.00000
74.39273	801.00000
74.41261	804.00000
74.43248	799.00000
74.45236	787.00000
74.47223	783.00000
74.49210	778.00000
74.51198	781.00000
74.53185	775.00000
74.55173	786.00000
74.57160	787.00000
74.59147	792.00000
74.61135	796.00000
74.63122	798.00000
74.65110	800.00000
74.67097	802.00000
74.69084	802.00000
74.71072	806.00000
74.73059	798.00000
74.75047	801.00000
74.77034	796.00000
74.79021	795.00000
74.81009	793.00000
74.82996	793.00000
74.84984	788.00000
74.86971	784.00000
74.88958	784.00000
74.90946	774.00000
74.92933	780.00000
74.94921	779.00000
74.96908	781.00000
74.98895	795.00000
75.00883	794.00000
75.02870	804.00000
75.04858	806.00000
75.06845	805.00000
75.08832	806.00000
75.10820	808.00000
75.12807	799.00000
75.14795	807.00000
75.16782	806.00000
75.18769	803.00000
75.20757	808.00000
75.22744	808.00000
75.24732	808.00000
75.26719	807.00000
75.28706	813.00000
75.30694	806.00000
75.32681	801.00000
75.34669	806.00000
75.36656	791.00000
75.38643	780.00000
75.40631	785.00000
75.42618	767.00000
75.44606	772.00000
75.46593	770.00000
75.48580	773.00000
75.50568	775.00000
75.52555	778.00000
75.54543	788.00000
75.56530	783.00000
75.58517	789.00000
75.60505	792.00000
75.62492	787.00000
75.64480	787.00000
75.66467	783.00000
75.68454	781.00000
75.70442	779.00000
75.72429	779.00000
75.74417	782.00000
75.76404	790.00000
75.78391	792.00000
75.80379	794.00000
75.82366	803.00000
75.84354	791.00000
75.86341	792.00000
75.88328	786.00000
75.90316	776.00000
75.92303	782.00000
75.94291	768.00000
75.96278	764.00000
75.98265	769.00000
76.00253	764.00000
76.02240	753.00000
76.04228	756.00000
76.06215	762.00000
76.08202	748.00000
76.10190	752.00000
76.12177	759.00000
76.14165	762.00000
76.16152	765.00000
76.18139	774.00000
76.20127	784.00000
76.22114	787.00000
76.24102	790.00000
76.26089	787.00000
76.28076	786.00000
76.30064	786.00000
76.32051	780.00000
76.34039	779.00000
76.36026	782.00000
76.38013	778.00000
76.40001	780.00000
76.41988	774.00000
76.43976	775.00000
76.45963	765.00000
76.47950	774.00000
76.49938	760.00000
76.51925	769.00000
76.53913	771.00000
76.55900	766.00000
76.57887	772.00000
76.59875	768.00000
76.61862	762.00000
76.63850	764.00000
76.65837	755.00000
76.67824	752.00000
76.69812	751.00000
76.71799	751.00000
76.73787	750.00000
76.75774	754.00000
76.77761	757.00000
76.79749	761.00000
76.81736	767.00000
76.83724	770.00000
76.85711	775.00000
76.87698	775.00000
76.89686	784.00000
76.91673	779.00000
76.93661	791.00000
76.95648	787.00000
76.97635	792.00000
76.99623	797.00000
77.01610	797.00000
77.03598	789.00000
77.05585	795.00000
77.07572	790.00000
77.09560	783.00000
77.11547	783.00000
77.13535	780.00000
77.15522	777.00000
77.17509	779.00000
77.19497	773.00000
77.21484	779.00000
77.23472	779.00000
77.25459	781.00000
77.27446	780.00000
77.29434	785.00000
77.31421	785.00000
77.33409	789.00000
77.35396	786.00000
77.37383	795.00000
77.39371	787.00000
77.41358	801.00000
77.43346	783.00000
77.45333	787.00000
77.47320	786.00000
77.49308	776.00000
77.51295	768.00000
77.53283	769.00000
77.55270	762.00000
77.57257	766.00000
77.59245	771.00000
77.61232	769.00000
77.63220	786.00000
77.65207	790.00000
77.67194	781.00000
77.69182	794.00000
77.71169	781.00000
77.73157	780.00000
77.75144	776.00000
77.77131	765.00000
77.79119	769.00000
77.81106	768.00000
77.83094	755.00000
77.85081	763.00000
77.87068	757.00000
77.89056	756.00000
77.91043	754.00000
77.93031	754.00000
77.95018	755.00000
77.97005	752.00000
77.98993	758.00000
78.00980	752.00000
78.02968	759.00000
78.04955	758.00000
78.06942	760.00000
78.08930	759.00000
78.10917	761.00000
78.12905	756.00000
78.14892	746.00000
78.16879	761.00000
78.18867	749.00000
78.20854	744.00000
78.22842	761.00000
78.24829	759.00000
78.26816	751.00000
78.28804	762.00000
78.30791	758.00000
78.32779	758.00000
78.34766	760.00000
78.36753	759.00000
78.38741	762.00000
78.40728	765.00000
78.42716	763.00000
78.44703	760.00000
78.46690	764.00000
78.48678	754.00000
78.50665	751.00000
78.52653	747.00000
78.54640	740.00000
78.56627	746.00000
78.58615	738.00000
78.60602	737.00000
78.62590	747.00000
78.64577	736.00000
78.66564	741.00000
78.68552	742.00000
78.70539	739.00000
78.72527	746.00000
78.74514	750.00000
78.76501	752.00000
78.78489	755.00000
78.80476	754.00000
78.82464	753.00000
78.84451	744.00000
78.86438	736.00000
78.88426	733.00000
78.90413	738.00000
78.92401	727.00000
78.94388	742.00000
78.96375	742.00000
78.98363	749.00000
79.00350	747.00000
79.02338	750.00000
79.04325	744.00000
79.06312	748.00000
79.08300	741.00000
79.10287	741.00000
79.12275	750.00000
79.14262	744.00000
79.16249	745.00000
79.18237	741.00000
79.20224	751.00000
79.22212	738.00000
79.24199	737.00000
79.26186	743.00000
79.28174	741.00000
79.30161	730.00000
79.32149	737.00000
79.34136	738.00000
79.36123	727.00000
79.38111	730.00000
79.40098	729.00000
79.42086	730.00000
79.44073	729.00000
79.46060	732.00000
79.48048	743.00000
79.50035	739.00000
79.52023	751.00000
79.54010	759.00000
79.55997	757.00000
79.57985	766.00000
79.59972	769.00000
79.61960	774.00000
79.63947	772.00000
79.65934	778.00000
79.67922	778.00000
79.69909	779.00000
79.71897	774.00000
79.73884	775.00000
79.75871	777.00000
79.77859	769.00000
79.79846	769.00000
79.81834	768.00000
79.83821	762.00000
79.85808	761.00000
79.87796	760.00000
79.89783	763.00000
79.91771	761.00000
79.93758	760.00000
79.95745	763.00000
79.97733	759.00000
79.99720	751.00000
80.01708	755.00000
80.03695	749.00000
80.05682	750.00000
80.07670	750.00000
80.09657	749.00000
80.11645	752.00000
80.13632	754.00000
80.15619	751.00000
80.17607	762.00000
80.19594	763.00000
80.21582	770.00000
80.23569	769.00000
80.25556	773.00000
80.27544	782.00000
80.29531	770.00000
80.31519	783.00000
80.33506	779.00000
80.35493	778.00000
80.37481	780.00000
80.39468	775.00000
80.41456	774.00000
80.43443	766.00000
80.45430	772.00000
80.47418	772.00000
80.49405	763.00000
80.51393	775.00000
80.53380	773.00000
80.55367	770.00000
80.57355	772.00000
80.59342	767.00000
80.61330	767.00000
80.63317	764.00000
80.65304	758.00000
80.67292	757.00000
80.69279	748.00000
80.71267	750.00000
80.73254	739.00000
80.75241	738.00000
80.77229	742.00000
80.79216	736.00000
80.81204	742.00000
80.83191	750.00000
80.85178	747.00000
80.87166	755.00000
80.89153	756.00000
80.91141	754.00000
80.93128	753.00000
80.95115	752.00000
80.97103	749.00000
80.99090	743.00000
81.01078	739.00000
81.03065	739.00000
81.05052	726.00000
81.07040	735.00000
81.09027	723.00000
81.11015	729.00000
81.13002	730.00000
81.14989	739.00000
81.16977	735.00000
81.18964	747.00000
81.20952	746.00000
81.22939	749.00000
81.24926	751.00000
81.26914	744.00000
81.28901	749.00000
81.30889	748.00000
81.32876	750.00000
81.34863	757.00000
81.36851	754.00000
81.38838	761.00000
81.40826	765.00000
81.42813	760.00000
81.44800	764.00000
81.46788	758.00000
81.48775	760.00000
81.50763	754.00000
81.52750	750.00000
81.54737	751.00000
81.56725	747.00000
81.58712	749.00000
81.60700	746.00000
81.62687	749.00000
81.64674	752.00000
81.66662	755.00000
81.68649	750.00000
81.70637	758.00000
81.72624	756.00000
81.74611	748.00000
81.76599	745.00000
81.78586	741.00000
81.80574	735.00000
81.82561	722.00000
81.84548	726.00000
81.86536	722.00000
81.88523	724.00000
81.90511	725.00000
81.92498	726.00000
81.94485	727.00000
81.96473	730.00000
81.98460	728.00000
82.00448	733.00000
82.02435	735.00000
82.04422	742.00000
82.06410	749.00000
82.08397	747.00000
82.10385	750.00000
82.12372	751.00000
82.14359	748.00000
82.16347	749.00000
82.18334	745.00000
82.20322	748.00000
82.22309	748.00000
82.24296	743.00000
82.26284	744.00000
82.28271	736.00000
82.30259	735.00000
82.32246	735.00000
82.34233	729.00000
82.36221	728.00000
82.38208	733.00000
82.40196	728.00000
82.42183	726.00000
82.44170	733.00000
82.46158	729.00000
82.48145	731.00000
82.50133	738.00000
82.52120	735.00000
82.54107	736.00000
82.56095	736.00000
82.58082	736.00000
82.60070	739.00000
82.62057	729.00000
82.64044	736.00000
82.66032	736.00000
82.68019	728.00000
82.70007	729.00000
82.71994	736.00000
82.73981	733.00000
82.75969	739.00000
82.77956	744.00000
82.79944	750.00000
82.81931	750.00000
82.83918	756.00000
82.85906	762.00000
82.87893	760.00000
82.89881	771.00000
82.91868	767.00000
82.93855	769.00000
82.95843	767.00000
82.97830	757.00000
82.99818	755.00000
83.01805	748.00000
83.03792	747.00000
83.05780	740.00000
83.07767	748.00000
83.09755	743.00000
83.11742	748.00000
83.13729	742.00000
83.15717	749.00000
83.17704	752.00000
83.19692	753.00000
83.21679	753.00000
83.23666	763.00000
83.25654	758.00000
83.27641	757.00000
83.29629	754.00000
83.31616	753.00000
83.33603	742.00000
83.35591	750.00000
83.37578	738.00000
83.39566	744.00000
83.41553	743.00000
83.43540	743.00000
83.45528	748.00000
83.47515	744.00000
83.49503	751.00000
83.51490	748.00000
83.53477	749.00000
83.55465	750.00000
83.57452	753.00000
83.59440	749.00000
83.61427	752.00000
83.63414	756.00000
83.65402	745.00000
83.67389	753.00000
83.69377	740.00000
83.71364	748.00000
83.73351	741.00000
83.75339	735.00000
83.77326	739.00000
83.79314	733.00000
83.81301	732.00000
83.83288	723.00000
83.85276	726.00000
83.87263	726.00000
83.89251	724.00000
83.91238	722.00000
83.93225	717.00000
83.95213	720.00000
83.97200	708.00000
83.99188	705.00000
84.01175	708.00000
84.03162	710.00000
84.05150	709.00000
84.07137	719.00000
84.09125	713.00000
84.11112	722.00000
84.13099	722.00000
84.15087	718.00000
84.17074	720.00000
84.19062	724.00000
84.21049	725.00000
84.23036	720.00000
84.25024	726.00000
84.27011	729.00000
84.28999	724.00000
84.30986	726.00000
84.32973	734.00000
84.34961	731.00000
84.36948	728.00000
84.38936	731.00000
84.40923	727.00000
84.42910	721.00000
84.44898	720.00000
84.46885	722.00000
84.48873	726.00000
84.50860	723.00000
84.52847	736.00000
84.54835	735.00000
84.56822	734.00000
84.58810	739.00000
84.60797	732.00000
84.62784	728.00000
84.64772	732.00000
84.66759	725.00000
84.68747	727.00000
84.70734	730.00000
84.72721	733.00000
84.74709	727.00000
84.76696	733.00000
84.78684	730.00000
84.80671	718.00000
84.82658	722.00000
84.84646	718.00000
84.86633	711.00000
84.88621	712.00000
84.90608	718.00000
84.92595	709.00000
84.94583	712.00000
84.96570	717.00000
84.98558	705.00000
85.00545	718.00000
85.02532	712.00000
85.04520	715.00000
85.06507	721.00000
85.08495	720.00000
85.10482	714.00000
85.12469	716.00000
85.14457	708.00000
85.16444	701.00000
85.18432	696.00000
85.20419	699.00000
85.22406	696.00000
85.24394	697.00000
85.26381	702.00000
85.28369	709.00000
85.30356	711.00000
85.32343	721.00000
85.34331	732.00000
85.36318	731.00000
85.38306	737.00000
85.40293	743.00000
85.42280	733.00000
85.44268	731.00000
85.46255	731.00000
85.48243	728.00000
85.50230	719.00000
85.52217	727.00000
85.54205	720.00000
85.56192	722.00000
85.58180	721.00000
85.60167	719.00000
85.62154	719.00000
85.64142	719.00000
85.66129	716.00000
85.68117	715.00000
85.70104	720.00000
85.72091	716.00000
85.74079	717.00000
85.76066	720.00000
85.78054	718.00000
85.80041	718.00000
85.82028	723.00000
85.84016	714.00000
85.86003	720.00000
85.87991	716.00000
85.89978	713.00000
85.91965	712.00000
85.93953	714.00000
85.95940	712.00000
85.97928	713.00000
85.99915	714.00000
86.01902	710.00000
86.03890	710.00000
86.05877	709.00000
86.07865	705.00000
86.09852	709.00000
86.11839	712.00000
86.13827	712.00000
86.15814	713.00000
86.17802	711.00000
86.19789	711.00000
86.21776	705.00000
86.23764	703.00000
86.25751	700.00000
86.27739	700.00000
86.29726	701.00000
86.31713	699.00000
86.33701	704.00000
86.35688	706.00000
86.37676	700.00000
86.39663	707.00000
86.41650	706.00000
86.43638	700.00000
86.45625	702.00000
86.47613	709.00000
86.49600	706.00000
86.51587	707.00000
86.53575	708.00000
86.55562	709.00000
86.57550	708.00000
86.59537	698.00000
86.61524	713.00000
86.63512	703.00000
86.65499	712.00000
86.67487	712.00000
86.69474	717.00000
86.71461	720.00000
86.73449	726.00000
86.75436	726.00000
86.77424	725.00000
86.79411	729.00000
86.81398	725.00000
86.83386	716.00000
86.85373	720.00000
86.87361	712.00000
86.89348	711.00000
86.91335	707.00000
86.93323	707.00000
86.95310	707.00000
86.97298	701.00000
86.99285	708.00000
87.01272	710.00000
87.03260	706.00000
87.05247	707.00000
87.07235	715.00000
87.09222	703.00000
87.11209	709.00000
87.13197	714.00000
87.15184	709.00000
87.17172	718.00000
87.19159	717.00000
87.21146	721.00000
87.23134	713.00000
87.25121	722.00000
87.27109	712.00000
87.29096	708.00000
87.31083	722.00000
87.33071	709.00000
87.35058	711.00000
87.37046	718.00000
87.39033	713.00000
87.41020	710.00000
87.43008	715.00000
87.44995	711.00000
87.46983	708.00000
87.48970	714.00000
87.50957	710.00000
87.52945	705.00000
87.54932	711.00000
87.56920	709.00000
87.58907	702.00000
87.60894	704.00000
87.62882	699.00000
87.64869	701.00000
87.66857	693.00000
87.68844	697.00000
87.70831	695.00000
87.72819	700.00000
87.74806	693.00000
87.76794	698.00000
87.78781	694.00000
87.80768	688.00000
87.82756	687.00000
87.84743	690.00000
87.86731	687.00000
87.88718	699.00000
87.90705	706.00000
87.92693	711.00000
87.94680	725.00000
87.96668	721.00000
87.98655	720.00000
88.00642	726.00000
88.02630	713.00000
88.04617	712.00000
88.06605	704.00000
88.08592	700.00000
88.10579	699.00000
88.12567	700.00000
88.14554	700.00000
88.16542	708.00000
88.18529	708.00000
88.20516	711.00000
88.22504	708.00000
88.24491	709.00000
88.26479	703.00000
88.28466	705.00000
88.30453	705.00000
88.32441	707.00000
88.34428	705.00000
88.36416	703.00000
88.38403	713.00000
88.40390	697.00000
88.42378	701.00000
88.44365	698.00000
88.46353	700.00000
88.48340	695.00000
88.50327	700.00000
88.52315	705.00000
88.54302	700.00000
88.56290	710.00000
88.58277	705.00000
88.60264	713.00000
88.62252	707.00000
88.64239	715.00000
88.66227	715.00000
88.68214	715.00000
88.70201	717.00000
88.72189	720.00000
88.74176	710.00000
88.76164	717.00000
88.78151	709.00000
88.80138	707.00000
88.82126	706.00000
88.84113	708.00000
88.86101	705.00000
88.88088	711.00000
88.90075	709.00000
88.92063	708.00000
88.94050	709.00000
88.96038	709.00000
88.98025	701.00000
89.00012	706.00000
89.02000	705.00000
89.03987	699.00000
89.05975	706.00000
89.07962	695.00000
89.09949	696.00000
89.11937	692.00000
89.13924	690.00000
89.15912	688.00000
89.17899	693.00000
89.19886	690.00000
89.21874	696.00000
89.23861	694.00000
89.25849	692.00000
89.27836	693.00000
89.29823	693.00000
89.31811	688.00000
89.33798	693.00000
89.35786	695.00000
89.37773	695.00000
89.39760	694.00000
89.41748	700.00000
89.43735	692.00000
89.45723	693.00000
89.47710	692.00000
89.49697	686.00000
89.51685	683.00000
89.53672	684.00000
89.55660	680.00000
89.57647	681.00000
89.59634	687.00000
89.61622	683.00000
89.63609	687.00000
89.65597	686.00000
89.67584	687.00000
89.69571	684.00000
89.71559	689.00000
89.73546	688.00000
89.75534	691.00000
89.77521	692.00000
89.79508	689.00000
89.81496	684.00000
89.83483	684.00000
89.85471	677.00000
89.87458	678.00000
89.89445	679.00000
89.91433	687.00000
89.93420	683.00000
89.95408	692.00000
89.97395	695.00000
89.99382	697.00000
90.01370	694.00000
90.03357	700.00000
90.05345	706.00000
90.07332	693.00000
90.09319	705.00000
90.11307	699.00000
90.13294	689.00000
90.15282	685.00000
90.17269	682.00000
90.19256	674.00000
90.21244	671.00000
90.23231	674.00000
90.25219	675.00000
90.27206	681.00000
90.29193	686.00000
90.31181	692.00000
90.33168	698.00000
90.35156	704.00000
90.37143	708.00000
90.39130	706.00000
90.41118	704.00000
90.43105	704.00000
90.45093	690.00000
90.47080	691.00000
90.49067	686.00000
90.51055	683.00000
90.53042	693.00000
90.55030	688.00000
90.57017	693.00000
90.59004	701.00000
90.60992	701.00000
90.62979	692.00000
90.64967	697.00000
90.66954	690.00000
90.68941	684.00000
90.70929	683.00000
90.72916	674.00000
90.74904	677.00000
90.76891	677.00000
90.78878	668.00000
90.80866	675.00000
90.82853	675.00000
90.84841	668.00000
90.86828	677.00000
90.88815	676.00000
90.90803	681.00000
90.92790	681.00000
90.94778	690.00000
90.96765	687.00000
90.98752	687.00000
91.00740	684.00000
91.02727	683.00000
91.04715	687.00000
91.06702	680.00000
91.08689	683.00000
91.10677	688.00000
91.12664	682.00000
91.14652	683.00000
91.16639	673.00000
91.18626	676.00000
91.20614	657.00000
91.22601	662.00000
91.24589	654.00000
91.26576	657.00000
91.28563	660.00000
91.30551	668.00000
91.32538	679.00000
91.34526	681.00000
91.36513	693.00000
91.38500	690.00000
91.40488	691.00000
91.42475	693.00000
91.44463	687.00000
91.46450	685.00000
91.48437	691.00000
91.50425	688.00000
91.52412	690.00000
91.54400	692.00000
91.56387	686.00000
91.58374	688.00000
91.60362	682.00000
91.62349	678.00000
91.64337	675.00000
91.66324	674.00000
91.68311	672.00000
91.70299	666.00000
91.72286	667.00000
91.74274	664.00000
91.76261	663.00000
91.78248	658.00000
91.80236	664.00000
91.82223	662.00000
91.84211	669.00000
91.86198	670.00000
91.88185	676.00000
91.90173	684.00000
91.92160	681.00000
91.94148	682.00000
91.96135	686.00000
91.98122	680.00000
92.00110	675.00000
92.02097	684.00000
92.04085	675.00000
92.06072	674.00000
92.08059	676.00000
92.10047	671.00000
92.12034	673.00000
92.14022	670.00000
92.16009	679.00000
92.17996	681.00000
92.19984	688.00000
92.21971	689.00000
92.23959	691.00000
92.25946	691.00000
92.27933	690.00000
92.29921	683.00000
92.31908	680.00000
92.33896	683.00000
92.35883	681.00000
92.37870	677.00000
92.39858	682.00000
92.41845	685.00000
92.43833	682.00000
92.45820	678.00000
92.47807	687.00000
92.49795	676.00000
92.51782	684.00000
92.53770	678.00000
92.55757	685.00000
92.57744	683.00000
92.59732	685.00000
92.61719	686.00000
92.63707	686.00000
92.65694	685.00000
92.67681	687.00000
92.69669	685.00000
92.71656	683.00000
92.73644	684.00000
92.75631	679.00000
92.77618	678.00000
92.79606	671.00000
92.81593	667.00000
92.83581	666.00000
92.85568	656.00000
92.87555	653.00000
92.89543	657.00000
92.91530	651.00000
92.93518	654.00000
92.95505	660.00000
92.97492	665.00000
92.99480	665.00000
93.01467	669.00000
93.03455	672.00000
93.05442	665.00000
93.07429	667.00000
93.09417	666.00000
93.11404	659.00000
93.13392	665.00000
93.15379	664.00000
93.17366	667.00000
93.19354	669.00000
93.21341	679.00000
93.23329	681.00000
93.25316	683.00000
93.27303	691.00000
93.29291	687.00000
93.31278	684.00000
93.33266	677.00000
93.35253	674.00000
93.37240	666.00000
93.39228	664.00000
93.41215	651.00000
93.43203	660.00000
93.45190	660.00000
93.47177	656.00000
93.49165	666.00000
93.51152	669.00000
93.53140	669.00000
93.55127	669.00000
93.57114	669.00000
93.59102	661.00000
93.61089	664.00000
93.63077	657.00000
93.65064	654.00000
93.67051	656.00000
93.69039	654.00000
93.71026	663.00000
93.73014	655.00000
93.75001	669.00000
93.76988	678.00000
93.78976	668.00000
93.80963	680.00000
93.82951	680.00000
93.84938	678.00000
93.86925	670.00000
93.88913	665.00000
93.90900	666.00000
93.92888	657.00000
93.94875	656.00000
93.96862	657.00000
93.98850	668.00000
94.00837	668.00000
94.02825	680.00000
94.04812	676.00000
94.06799	682.00000
94.08787	679.00000
94.10774	675.00000
94.12762	672.00000
94.14749	672.00000
94.16736	672.00000
94.18724	669.00000
94.20711	671.00000
94.22699	674.00000
94.24686	673.00000
94.26673	673.00000
94.28661	677.00000
94.30648	669.00000
94.32636	670.00000
94.34623	663.00000
94.36610	660.00000
94.38598	661.00000
94.40585	655.00000
94.42573	659.00000
94.44560	660.00000
94.46547	658.00000
94.48535	657.00000
94.50522	663.00000
94.52510	658.00000
94.54497	653.00000
94.56484	662.00000
94.58472	659.00000
94.60459	660.00000
94.62447	659.00000
94.64434	665.00000
94.66421	660.00000
94.68409	659.00000
94.70396	655.00000
94.72384	653.00000
94.74371	654.00000
94.76358	654.00000
94.78346	653.00000
94.80333	659.00000
94.82321	664.00000
94.84308	662.00000
94.86295	661.00000
94.88283	661.00000
94.90270	657.00000
94.92258	650.00000
94.94245	654.00000
94.96232	647.00000
94.98220	649.00000
95.00207	654.00000
95.02195	649.00000
95.04182	662.00000
95.06169	657.00000
95.08157	665.00000
95.10144	672.00000
95.12132	675.00000
95.14119	678.00000
95.16106	675.00000
95.18094	681.00000
95.20081	665.00000
95.22069	667.00000
95.24056	661.00000
95.26043	658.00000
95.28031	655.00000
95.30018	661.00000
95.32006	663.00000
95.33993	660.00000
95.35980	667.00000
95.37968	665.00000
95.39955	664.00000
95.41943	662.00000
95.43930	664.00000
95.45917	665.00000
95.47905	664.00000
95.49892	674.00000
95.51880	673.00000
95.53867	675.00000
95.55854	675.00000
95.57842	672.00000
95.59829	669.00000
95.61817	672.00000
95.63804	664.00000
95.65791	669.00000
95.67779	667.00000
95.69766	670.00000
95.71754	666.00000
95.73741	667.00000
95.75728	663.00000
95.77716	657.00000
95.79703	660.00000
95.81691	651.00000
95.83678	646.00000
95.85665	653.00000
95.87653	646.00000
95.89640	643.00000
95.91628	648.00000
95.93615	647.00000
95.95602	650.00000
95.97590	656.00000
95.99577	650.00000
96.01565	658.00000
96.03552	654.00000
96.05539	648.00000
96.07527	649.00000
96.09514	641.00000
96.11502	643.00000
96.13489	643.00000
96.15476	629.00000
96.17464	642.00000
96.19451	634.00000
96.21439	635.00000
96.23426	639.00000
96.25413	644.00000
96.27401	644.00000
96.29388	652.00000
96.31376	651.00000
96.33363	651.00000
96.35350	656.00000
96.37338	651.00000
96.39325	648.00000
96.41313	648.00000
96.43300	645.00000
96.45287	632.00000
96.47275	636.00000
96.49262	628.00000
96.51250	623.00000
96.53237	621.00000
96.55224	623.00000
96.57212	620.00000
96.59199	622.00000
96.61187	629.00000
96.63174	628.00000
96.65161	634.00000
96.67149	636.00000
96.69136	637.00000
96.71124	641.00000
96.73111	637.00000
96.75098	647.00000
96.77086	635.00000
96.79073	644.00000
96.81061	642.00000
96.83048	633.00000
96.85035	637.00000
96.87023	633.00000
96.89010	631.00000
96.90998	635.00000
96.92985	631.00000
96.94972	638.00000
96.96960	638.00000
96.98947	638.00000
97.00935	643.00000
97.02922	642.00000
97.04909	639.00000
97.06897	642.00000
97.08884	645.00000
97.10872	641.00000
97.12859	649.00000
97.14846	655.00000
97.16834	658.00000
97.18821	663.00000
97.20809	670.00000
97.22796	667.00000
97.24783	672.00000
97.26771	665.00000
97.28758	668.00000
97.30746	659.00000
97.32733	660.00000
97.34720	656.00000
97.36708	653.00000
97.38695	655.00000
97.40683	650.00000
97.42670	653.00000
97.44657	647.00000
97.46645	649.00000
97.48632	651.00000
97.50620	649.00000
97.52607	645.00000
97.54594	653.00000
97.56582	648.00000
97.58569	643.00000
97.60557	649.00000
97.62544	642.00000
97.64531	643.00000
97.66519	648.00000
97.68506	641.00000
97.70494	649.00000
97.72481	645.00000
97.74468	649.00000
97.76456	647.00000
97.78443	647.00000
97.80431	646.00000
97.82418	645.00000
97.84405	647.00000
97.86393	646.00000
97.88380	646.00000
97.90368	649.00000
97.92355	648.00000
97.94342	646.00000
97.96330	645.00000
97.98317	646.00000
98.00305	643.00000
98.02292	645.00000
98.04279	646.00000
98.06267	641.00000
98.08254	645.00000
98.10242	640.00000
98.12229	633.00000
98.14216	634.00000
98.16204	632.00000
98.18191	626.00000
98.20179	636.00000
98.22166	629.00000
98.24153	635.00000
98.26141	633.00000
98.28128	629.00000
98.30116	635.00000
98.32103	625.00000
98.34090	633.00000
98.36078	631.00000
98.38065	633.00000
98.40053	636.00000
98.42040	633.00000
98.44027	633.00000
98.46015	634.00000
98.48002	631.00000
98.49990	631.00000
98.51977	628.00000
98.53964	639.00000
98.55952	634.00000
98.57939	641.00000
98.59927	647.00000
98.61914	653.00000
98.63901	657.00000
98.65889	659.00000
98.67876	665.00000
98.69864	661.00000
98.71851	664.00000
98.73838	663.00000
98.75826	660.00000
98.77813	651.00000
98.79801	661.00000
98.81788	646.00000
98.83775	642.00000
98.85763	642.00000
98.87750	634.00000
98.89738	634.00000
98.91725	634.00000
98.93712	631.00000
98.95700	633.00000
98.97687	634.00000
98.99675	635.00000
99.01662	630.00000
99.03649	638.00000
99.05637	635.00000
99.07624	632.00000
99.09612	642.00000
99.11599	638.00000
99.13586	637.00000
99.15574	645.00000
99.17561	647.00000
99.19549	644.00000
99.21536	654.00000
99.23523	651.00000
99.25511	654.00000
99.27498	650.00000
99.29486	645.00000
99.31473	638.00000
99.33460	642.00000
99.35448	631.00000
99.37435	639.00000
99.39423	647.00000
99.41410	644.00000
99.43397	657.00000
99.45385	659.00000
99.47372	654.00000
99.49360	657.00000
99.51347	650.00000
99.53334	644.00000
99.55322	644.00000
99.57309	638.00000
99.59297	645.00000
99.61284	639.00000
99.63271	639.00000
99.65259	644.00000
99.67246	642.00000
99.69234	635.00000
99.71221	640.00000
99.73208	647.00000
99.75196	640.00000
99.77183	645.00000
99.79171	647.00000
99.81158	645.00000
99.83145	643.00000
99.85133	636.00000
99.87120	638.00000
99.89108	635.00000
99.91095	632.00000
99.93082	637.00000
99.95070	642.00000
99.97057	642.00000
99.99045	642.00000
100.01032	645.00000
