6.76820	4631.00000
6.78660	4711.00000
6.80510	4436.00000
6.82350	4621.00000
6.84190	4546.00000
6.86040	4662.00000
6.87880	4486.00000
6.89730	4616.00000
6.91570	4506.00000
6.93410	4421.00000
6.95260	4434.00000
6.97100	4363.00000
6.98950	4460.00000
7.00790	4408.00000
7.02630	4330.00000
7.04480	4353.00000
7.06320	4444.00000
7.08170	4382.00000
7.10010	4400.00000
7.11850	4337.00000
7.13700	4373.00000
7.15540	4308.00000
7.17390	4232.00000
7.19230	4293.00000
7.21070	4293.00000
7.22920	4274.00000
7.24760	4203.00000
7.26610	4305.00000
7.28450	4283.00000
7.30290	4273.00000
7.32140	4303.00000
7.33980	4263.00000
7.35820	4263.00000
7.37670	4282.00000
7.39510	4279.00000
7.41360	4466.00000
7.43200	4366.00000
7.45040	4344.00000
7.46890	4294.00000
7.48730	4296.00000
7.50580	4328.00000
7.52420	4299.00000
7.54260	4451.00000
7.56110	4462.00000
7.57950	4415.00000
7.59800	4366.00000
7.61640	4428.00000
7.63480	4466.00000
7.65330	4428.00000
7.67170	4506.00000
7.69020	4546.00000
7.70860	4574.00000
7.72700	4591.00000
7.74550	4574.00000
7.76390	4608.00000
7.78240	4912.00000
7.80080	4801.00000
7.81920	4941.00000
7.83770	4973.00000
7.85610	5045.00000
7.87460	5197.00000
7.89300	5377.00000
7.91140	5461.00000
7.92990	5659.00000
7.94830	5919.00000
7.96680	6189.00000
7.98520	6303.00000
8.00360	6517.00000
8.02210	6980.00000
8.04050	7298.00000
8.05900	7771.00000
8.07740	8246.00000
8.09580	8918.00000
8.11430	9674.00000
8.13270	10458.00000
8.15120	11405.00000
8.16960	12565.00000
8.18800	14171.00000
8.20650	15913.00000
8.22490	18714.00000
8.24340	22027.00000
8.26180	25946.00000
8.28020	30888.00000
8.29870	34404.00000
8.31710	34369.00000
8.33550	30819.00000
8.35400	25261.00000
8.37240	19658.00000
8.39090	15183.00000
8.40930	11587.00000
8.42770	9069.00000
8.44620	7235.00000
8.46460	6122.00000
8.48310	5384.00000
8.50150	4922.00000
8.51990	4652.00000
8.53840	4486.00000
8.55680	4303.00000
8.57530	4063.00000
8.59370	4065.00000
8.61210	3937.00000
8.63060	3971.00000
8.64900	3878.00000
8.66750	3909.00000
8.68590	4008.00000
8.70430	3643.00000
8.72280	3665.00000
8.74120	3752.00000
8.75970	3787.00000
8.77810	3712.00000
8.79650	3642.00000
8.81500	3580.00000
8.83340	3644.00000
8.85190	3552.00000
8.87030	3677.00000
8.88870	3524.00000
8.90720	3600.00000
8.92560	3665.00000
8.94410	3464.00000
8.96250	3502.00000
8.98090	3366.00000
8.99940	3572.00000
9.01780	3514.00000
9.03630	3478.00000
9.05470	3490.00000
9.07310	3462.00000
9.09160	3464.00000
9.11000	3414.00000
9.12850	3420.00000
9.14690	3467.00000
9.16530	3449.00000
9.18380	3424.00000
9.20220	3527.00000
9.22060	3428.00000
9.23910	3418.00000
9.25750	3356.00000
9.27600	3412.00000
9.29440	3367.00000
9.31280	3305.00000
9.33130	3418.00000
9.34970	3364.00000
9.36820	3341.00000
9.38660	3298.00000
9.40500	3346.00000
9.42350	3206.00000
9.44190	3413.00000
9.46040	3315.00000
9.47880	3355.00000
9.49720	3310.00000
9.51570	3341.00000
9.53410	3233.00000
9.55260	3301.00000
9.57100	3204.00000
9.58940	3224.00000
9.60790	3283.00000
9.62630	3331.00000
9.64480	3182.00000
9.66320	3254.00000
9.68160	3111.00000
9.70010	3218.00000
9.71850	3125.00000
9.73700	3102.00000
9.75540	3225.00000
9.77380	3107.00000
9.79230	3151.00000
9.81070	3147.00000
9.82920	3187.00000
9.84760	3207.00000
9.86600	3135.00000
9.88450	3196.00000
9.90290	3138.00000
9.92140	3125.00000
9.93980	3183.00000
9.95820	3103.00000
9.97670	3237.00000
9.99510	3081.00000
10.01360	3114.00000
10.03200	3072.00000
10.05040	3091.00000
10.06890	3070.00000
10.08730	3102.00000
10.10580	3063.00000
10.12420	3167.00000
10.14260	3090.00000
10.16110	3025.00000
10.17950	3002.00000
10.19790	3038.00000
10.21640	3073.00000
10.23480	3048.00000
10.25330	3022.00000
10.27170	3006.00000
10.29010	2947.00000
10.30860	3141.00000
10.32700	3034.00000
10.34550	3013.00000
10.36390	3138.00000
10.38230	3032.00000
10.40080	2954.00000
10.41920	2927.00000
10.43770	2971.00000
10.45610	2975.00000
10.47450	3029.00000
10.49300	3026.00000
10.51140	2927.00000
10.52990	2941.00000
10.54830	2868.00000
10.56670	2993.00000
10.58520	2842.00000
10.60360	2920.00000
10.62210	2836.00000
10.64050	2923.00000
10.65890	3003.00000
10.67740	2903.00000
10.69580	2915.00000
10.71430	2918.00000
10.73270	2945.00000
10.75110	2883.00000
10.76960	2890.00000
10.78800	2807.00000
10.80650	2955.00000
10.82490	2967.00000
10.84330	2869.00000
10.86180	2885.00000
10.88020	2887.00000
10.89870	2905.00000
10.91710	2828.00000
10.93550	2830.00000
10.95400	2832.00000
10.97240	2752.00000
10.99090	2934.00000
11.00930	2784.00000
11.02770	2722.00000
11.04620	2790.00000
11.06460	2845.00000
11.08300	2757.00000
11.10150	2868.00000
11.11990	2742.00000
11.13840	2732.00000
11.15680	2851.00000
11.17520	2799.00000
11.19370	2772.00000
11.21210	2786.00000
11.23060	2710.00000
11.24900	2754.00000
11.26740	2786.00000
11.28590	2780.00000
11.30430	2776.00000
11.32280	2797.00000
11.34120	2776.00000
11.35960	2732.00000
11.37810	2727.00000
11.39650	2771.00000
11.41500	2812.00000
11.43340	2715.00000
11.45180	2705.00000
11.47030	2702.00000
11.48870	2773.00000
11.50720	2799.00000
11.52560	2692.00000
11.54400	2782.00000
11.56250	2716.00000
11.58090	2662.00000
11.59940	2749.00000
11.61780	2664.00000
11.63620	2800.00000
11.65470	2660.00000
11.67310	2752.00000
11.69160	2720.00000
11.71000	2706.00000
11.72840	2674.00000
11.74690	2526.00000
11.76530	2616.00000
11.78380	2781.00000
11.80220	2717.00000
11.82060	2647.00000
11.83910	2744.00000
11.85750	2648.00000
11.87600	2605.00000
11.89440	2706.00000
11.91280	2681.00000
11.93130	2736.00000
11.94970	2667.00000
11.96820	2645.00000
11.98660	2699.00000
12.00500	2663.00000
12.02350	2613.00000
12.04190	2613.00000
12.06030	2631.00000
12.07880	2713.00000
12.09720	2669.00000
12.11570	2643.00000
12.13410	2593.00000
12.15250	2491.00000
12.17100	2569.00000
12.18940	2517.00000
12.20790	2609.00000
12.22630	2635.00000
12.24470	2653.00000
12.26320	2605.00000
12.28160	2542.00000
12.30010	2584.00000
12.31850	2615.00000
12.33690	2624.00000
12.35540	2601.00000
12.37380	2574.00000
12.39230	2590.00000
12.41070	2593.00000
12.42910	2577.00000
12.44760	2528.00000
12.46600	2531.00000
12.48450	2483.00000
12.50290	2472.00000
12.52130	2548.00000
12.53980	2557.00000
12.55820	2584.00000
12.57670	2552.00000
12.59510	2657.00000
12.61350	2492.00000
12.63200	2569.00000
12.65040	2539.00000
12.66890	2458.00000
12.68730	2533.00000
12.70570	2557.00000
12.72420	2482.00000
12.74260	2511.00000
12.76110	2552.00000
12.77950	2484.00000
12.79790	2577.00000
12.81640	2556.00000
12.83480	2442.00000
12.85330	2433.00000
12.87170	2510.00000
12.89010	2514.00000
12.90860	2535.00000
12.92700	2464.00000
12.94540	2420.00000
12.96390	2479.00000
12.98230	2508.00000
13.00080	2501.00000
13.01920	2511.00000
13.03760	2529.00000
13.05610	2479.00000
13.07450	2434.00000
13.09300	2420.00000
13.11140	2476.00000
13.12980	2515.00000
13.14830	2429.00000
13.16670	2474.00000
13.18520	2473.00000
13.20360	2432.00000
13.22200	2455.00000
13.24050	2436.00000
13.25890	2469.00000
13.27740	2378.00000
13.29580	2463.00000
13.31420	2501.00000
13.33270	2420.00000
13.35110	2380.00000
13.36960	2472.00000
13.38800	2378.00000
13.40640	2372.00000
13.42490	2458.00000
13.44330	2554.00000
13.46180	2385.00000
13.48020	2428.00000
13.49860	2354.00000
13.51710	2402.00000
13.53550	2395.00000
13.55400	2366.00000
13.57240	2427.00000
13.59080	2372.00000
13.60930	2354.00000
13.62770	2460.00000
13.64620	2337.00000
13.66460	2408.00000
13.68300	2379.00000
13.70150	2389.00000
13.71990	2420.00000
13.73840	2327.00000
13.75680	2351.00000
13.77520	2313.00000
13.79370	2400.00000
13.81210	2369.00000
13.83050	2459.00000
13.84900	2404.00000
13.86740	2404.00000
13.88590	2337.00000
13.90430	2382.00000
13.92270	2316.00000
13.94120	2342.00000
13.95960	2321.00000
13.97810	2317.00000
13.99650	2366.00000
14.01490	2356.00000
14.03340	2380.00000
14.05180	2425.00000
14.07030	2289.00000
14.08870	2318.00000
14.10710	2374.00000
14.12560	2430.00000
14.14400	2292.00000
14.16250	2338.00000
14.18090	2411.00000
14.19930	2371.00000
14.21780	2391.00000
14.23620	2363.00000
14.25470	2342.00000
14.27310	2378.00000
14.29150	2460.00000
14.31000	2509.00000
14.32840	2575.00000
14.34690	2623.00000
14.36530	2580.00000
14.38370	2458.00000
14.40220	2443.00000
14.42060	2363.00000
14.43910	2320.00000
14.45750	2391.00000
14.47590	2253.00000
14.49440	2297.00000
14.51280	2301.00000
14.53130	2352.00000
14.54970	2286.00000
14.56810	2384.00000
14.58660	2305.00000
14.60500	2380.00000
14.62350	2385.00000
14.64190	2353.00000
14.66030	2324.00000
14.67880	2399.00000
14.69720	2387.00000
14.71570	2303.00000
14.73410	2344.00000
14.75250	2295.00000
14.77100	2235.00000
14.78940	2310.00000
14.80780	2297.00000
14.82630	2340.00000
14.84470	2273.00000
14.86320	2289.00000
14.88160	2330.00000
14.90000	2283.00000
14.91850	2357.00000
14.93690	2323.00000
14.95540	2306.00000
14.97380	2304.00000
14.99220	2323.00000
15.01070	2311.00000
15.02910	2263.00000
15.04760	2343.00000
15.06600	2332.00000
15.08440	2240.00000
15.10290	2359.00000
15.12130	2312.00000
15.13980	2286.00000
15.15820	2253.00000
15.17660	2386.00000
15.19510	2385.00000
15.21350	2231.00000
15.23200	2243.00000
15.25040	2312.00000
15.26880	2351.00000
15.28730	2394.00000
15.30570	2306.00000
15.32420	2286.00000
15.34260	2263.00000
15.36100	2368.00000
15.37950	2297.00000
15.39790	2321.00000
15.41640	2243.00000
15.43480	2216.00000
15.45320	2329.00000
15.47170	2222.00000
15.49010	2220.00000
15.50860	2299.00000
15.52700	2281.00000
15.54540	2213.00000
15.56390	2239.00000
15.58230	2371.00000
15.60080	2256.00000
15.61920	2360.00000
15.63760	2309.00000
15.65610	2255.00000
15.67450	2288.00000
15.69290	2222.00000
15.71140	2301.00000
15.72980	2319.00000
15.74830	2274.00000
15.76670	2228.00000
15.78510	2261.00000
15.80360	2283.00000
15.82200	2283.00000
15.84050	2257.00000
15.85890	2239.00000
15.87730	2318.00000
15.89580	2324.00000
15.91420	2277.00000
15.93270	2289.00000
15.95110	2319.00000
15.96950	2224.00000
15.98800	2313.00000
16.00640	2258.00000
16.02490	2142.00000
16.04330	2241.00000
16.06170	2355.00000
16.08020	2250.00000
16.09860	2245.00000
16.11710	2295.00000
16.13550	2278.00000
16.15390	2274.00000
16.17240	2258.00000
16.19080	2283.00000
16.20930	2310.00000
16.22770	2271.00000
16.24610	2394.00000
16.26460	2377.00000
16.28300	2274.00000
16.30150	2294.00000
16.31990	2326.00000
16.33830	2449.00000
16.35680	2322.00000
16.37520	2379.00000
16.39370	2341.00000
16.41210	2504.00000
16.43050	2347.00000
16.44900	2564.00000
16.46740	2469.00000
16.48590	2533.00000
16.50430	2606.00000
16.52270	2791.00000
16.54120	2892.00000
16.55960	3145.00000
16.57810	3433.00000
16.59650	3611.00000
16.61490	3707.00000
16.63340	3687.00000
16.65180	3529.00000
16.67020	3158.00000
16.68870	3086.00000
16.70710	2809.00000
16.72560	2810.00000
16.74400	2644.00000
16.76240	2661.00000
16.78090	2687.00000
16.79930	2480.00000
16.81780	2514.00000
16.83620	2497.00000
16.85460	2451.00000
16.87310	2421.00000
16.89150	2449.00000
16.91000	2406.00000
16.92840	2422.00000
16.94680	2339.00000
16.96530	2343.00000
16.98370	2461.00000
17.00220	2342.00000
17.02060	2303.00000
17.03900	2348.00000
17.05750	2288.00000
17.07590	2362.00000
17.09440	2407.00000
17.11280	2354.00000
17.13120	2415.00000
17.14970	2335.00000
17.16810	2468.00000
17.18660	2402.00000
17.20500	2309.00000
17.22340	2389.00000
17.24190	2392.00000
17.26030	2319.00000
17.27880	2420.00000
17.29720	2433.00000
17.31560	2364.00000
17.33410	2357.00000
17.35250	2322.00000
17.37100	2286.00000
17.38940	2304.00000
17.40780	2307.00000
17.42630	2333.00000
17.44470	2397.00000
17.46320	2335.00000
17.48160	2336.00000
17.50000	2449.00000
17.51850	2341.00000
17.53690	2388.00000
17.55530	2391.00000
17.57380	2400.00000
17.59220	2316.00000
17.61070	2383.00000
17.62910	2390.00000
17.64750	2374.00000
17.66600	2334.00000
17.68440	2395.00000
17.70290	2378.00000
17.72130	2371.00000
17.73970	2332.00000
17.75820	2377.00000
17.77660	2371.00000
17.79510	2395.00000
17.81350	2378.00000
17.83190	2352.00000
17.85040	2436.00000
17.86880	2497.00000
17.88730	2426.00000
17.90570	2337.00000
17.92410	2447.00000
17.94260	2451.00000
17.96100	2463.00000
17.97950	2502.00000
17.99790	2408.00000
18.01630	2450.00000
18.03480	2578.00000
18.05320	2385.00000
18.07170	2426.00000
18.09010	2407.00000
18.10850	2471.00000
18.12700	2415.00000
18.14540	2501.00000
18.16390	2586.00000
18.18230	2504.00000
18.20070	2568.00000
18.21920	2360.00000
18.23760	2616.00000
18.25610	2586.00000
18.27450	2479.00000
18.29290	2498.00000
18.31140	2464.00000
18.32980	2501.00000
18.34830	2418.00000
18.36670	2544.00000
18.38510	2552.00000
18.40360	2504.00000
18.42200	2518.00000
18.44040	2516.00000
18.45890	2487.00000
18.47730	2487.00000
18.49580	2524.00000
18.51420	2467.00000
18.53260	2500.00000
18.55110	2519.00000
18.56950	2504.00000
18.58800	2580.00000
18.60640	2524.00000
18.62480	2540.00000
18.64330	2541.00000
18.66170	2503.00000
18.68020	2600.00000
18.69860	2505.00000
18.71700	2579.00000
18.73550	2628.00000
18.75390	2518.00000
18.77240	2587.00000
18.79080	2626.00000
18.80920	2551.00000
18.82770	2623.00000
18.84610	2612.00000
18.86460	2623.00000
18.88300	2659.00000
18.90140	2538.00000
18.91990	2704.00000
18.93830	2575.00000
18.95680	2591.00000
18.97520	2657.00000
18.99360	2684.00000
19.01210	2630.00000
19.03050	2627.00000
19.04900	2671.00000
19.06740	2681.00000
19.08580	2777.00000
19.10430	2777.00000
19.12270	2772.00000
19.14120	2798.00000
19.15960	2705.00000
19.17800	2818.00000
19.19650	2931.00000
19.21490	3088.00000
19.23340	3249.00000
19.25180	3230.00000
19.27020	3143.00000
19.28870	3198.00000
19.30710	3110.00000
19.32560	2875.00000
19.34400	2838.00000
19.36240	2818.00000
19.38090	2847.00000
19.39930	2743.00000
19.41770	2879.00000
19.43620	2942.00000
19.45460	2988.00000
19.47310	2876.00000
19.49150	2952.00000
19.50990	3001.00000
19.52840	3166.00000
19.54680	3120.00000
19.56530	3343.00000
19.58370	3454.00000
19.60210	3819.00000
19.62060	4228.00000
19.63900	4204.00000
19.65750	4418.00000
19.67590	4581.00000
19.69430	4833.00000
19.71280	5153.00000
19.73120	5736.00000
19.74970	6602.00000
19.76810	7309.00000
19.78650	7667.00000
19.80500	7446.00000
19.82340	6833.00000
19.84190	5968.00000
19.86030	5064.00000
19.87870	4145.00000
19.89720	3653.00000
19.91560	3385.00000
19.93410	3301.00000
19.95250	3115.00000
19.97090	3078.00000
19.98940	3071.00000
20.00780	3125.00000
20.02630	3005.00000
20.04470	3004.00000
20.06310	2985.00000
20.08160	2937.00000
20.10000	3018.00000
20.11850	2967.00000
20.13690	3014.00000
20.15530	2915.00000
20.17380	2921.00000
20.19220	2932.00000
20.21070	2948.00000
20.22910	2887.00000
20.24750	2889.00000
20.26600	2964.00000
20.28440	2881.00000
20.30280	2915.00000
20.32130	2990.00000
20.33970	2966.00000
20.35820	2867.00000
20.37660	2929.00000
20.39500	2874.00000
20.41350	2886.00000
20.43190	2932.00000
20.45040	2931.00000
20.46880	2963.00000
20.48720	2944.00000
20.50570	2884.00000
20.52410	3068.00000
20.54260	2995.00000
20.56100	3046.00000
20.57940	2979.00000
20.59790	3070.00000
20.61630	3037.00000
20.63480	3103.00000
20.65320	3134.00000
20.67160	3319.00000
20.69010	3329.00000
20.70850	3422.00000
20.72700	3618.00000
20.74540	3756.00000
20.76380	3969.00000
20.78230	4229.00000
20.80070	4553.00000
20.81920	5026.00000
20.83760	5501.00000
20.85600	6001.00000
20.87450	6306.00000
20.89290	6714.00000
20.91140	6773.00000
20.92980	6721.00000
20.94820	6548.00000
20.96670	6111.00000
20.98510	5558.00000
21.00360	4986.00000
21.02200	4486.00000
21.04040	4063.00000
21.05890	3836.00000
21.07730	3639.00000
21.09580	3470.00000
21.11420	3358.00000
21.13260	3328.00000
21.15110	3265.00000
21.16950	3153.00000
21.18800	3266.00000
21.20640	3089.00000
21.22480	3177.00000
21.24330	3252.00000
21.26170	3207.00000
21.28010	3189.00000
21.29860	3381.00000
21.31700	3267.00000
21.33550	3174.00000
21.35390	3267.00000
21.37230	3280.00000
21.39080	3318.00000
21.40920	3285.00000
21.42770	3405.00000
21.44610	3428.00000
21.46450	3616.00000
21.48300	3394.00000
21.50140	3444.00000
21.51990	3302.00000
21.53830	3398.00000
21.55670	3327.00000
21.57520	3347.00000
21.59360	3337.00000
21.61210	3241.00000
21.63050	3207.00000
21.64890	3291.00000
21.66740	3182.00000
21.68580	3326.00000
21.70430	3370.00000
21.72270	3515.00000
21.74110	3663.00000
21.75960	3664.00000
21.77800	3826.00000
21.79650	3944.00000
21.81490	4242.00000
21.83330	4383.00000
21.85180	4762.00000
21.87020	5321.00000
21.88870	5885.00000
21.90710	6501.00000
21.92550	7743.00000
21.94400	8849.00000
21.96240	10157.00000
21.98090	11092.00000
21.99930	11432.00000
22.01770	11099.00000
22.03620	9950.00000
22.05460	8530.00000
22.07310	7154.00000
22.09150	6041.00000
22.10990	5095.00000
22.12840	4563.00000
22.14680	3971.00000
22.16520	3784.00000
22.18370	3501.00000
22.20210	3482.00000
22.22060	3422.00000
22.23900	3218.00000
22.25740	3178.00000
22.27590	3275.00000
22.29430	3148.00000
22.31280	3213.00000
22.33120	3062.00000
22.34960	3057.00000
22.36810	2999.00000
22.38650	3025.00000
22.40500	2991.00000
22.42340	2997.00000
22.44180	2998.00000
22.46030	3034.00000
22.47870	3010.00000
22.49720	2908.00000
22.51560	2959.00000
22.53400	2902.00000
22.55250	2925.00000
22.57090	2904.00000
22.58940	2881.00000
22.60780	2845.00000
22.62620	2805.00000
22.64470	2918.00000
22.66310	2862.00000
22.68160	2856.00000
22.70000	2863.00000
22.71840	2839.00000
22.73690	2989.00000
22.75530	2770.00000
22.77380	2758.00000
22.79220	2880.00000
22.81060	2757.00000
22.82910	2897.00000
22.84750	2711.00000
22.86600	2802.00000
22.88440	2815.00000
22.90280	2800.00000
22.92130	2808.00000
22.93970	2928.00000
22.95820	2792.00000
22.97660	2805.00000
22.99500	2768.00000
23.01350	2833.00000
23.03190	2798.00000
23.05030	2729.00000
23.06880	2844.00000
23.08720	2842.00000
23.10570	2844.00000
23.12410	2827.00000
23.14250	2841.00000
23.16100	2903.00000
23.17940	2881.00000
23.19790	2775.00000
23.21630	2920.00000
23.23470	3004.00000
23.25320	2946.00000
23.27160	2892.00000
23.29010	3076.00000
23.30850	2973.00000
23.32690	3136.00000
23.34540	3111.00000
23.36380	3208.00000
23.38230	3228.00000
23.40070	3379.00000
23.41910	3516.00000
23.43760	3678.00000
23.45600	4055.00000
23.47450	4338.00000
23.49290	4616.00000
23.51130	5345.00000
23.52980	5878.00000
23.54820	6630.00000
23.56670	7403.00000
23.58510	8245.00000
23.60350	8478.00000
23.62200	8224.00000
23.64040	7941.00000
23.65890	7482.00000
23.67730	6660.00000
23.69570	5706.00000
23.71420	5245.00000
23.73260	4724.00000
23.75110	4354.00000
23.76950	4062.00000
23.78790	4158.00000
23.80640	4182.00000
23.82480	4263.00000
23.84330	4441.00000
23.86170	4615.00000
23.88010	4949.00000
23.89860	5505.00000
23.91700	6032.00000
23.93550	6487.00000
23.95390	6875.00000
23.97230	7051.00000
23.99080	6990.00000
24.00920	6717.00000
24.02760	6311.00000
24.04610	6067.00000
24.06450	5559.00000
24.08300	5092.00000
24.10140	4718.00000
24.11980	4407.00000
24.13830	4135.00000
24.15670	3967.00000
24.17520	4003.00000
24.19360	3858.00000
24.21200	3765.00000
24.23050	3831.00000
24.24890	3713.00000
24.26740	3468.00000
24.28580	3405.00000
24.30420	3136.00000
24.32270	3092.00000
24.34110	2939.00000
24.35960	2864.00000
24.37800	2841.00000
24.39640	2700.00000
24.41490	2628.00000
24.43330	2674.00000
24.45180	2483.00000
24.47020	2534.00000
24.48860	2532.00000
24.50710	2606.00000
24.52550	2543.00000
24.54400	2521.00000
24.56240	2522.00000
24.58080	2576.00000
24.59930	2523.00000
24.61770	2643.00000
24.63620	2675.00000
24.65460	2653.00000
24.67300	2750.00000
24.69150	2923.00000
24.70990	3042.00000
24.72840	3164.00000
24.74680	3177.00000
24.76520	3155.00000
24.78370	3281.00000
24.80210	3183.00000
24.82060	3137.00000
24.83900	2971.00000
24.85740	3015.00000
24.87590	2774.00000
24.89430	2894.00000
24.91270	2873.00000
24.93120	2971.00000
24.94960	3065.00000
24.96810	3222.00000
24.98650	3255.00000
25.00490	3458.00000
25.02340	3518.00000
25.04180	3453.00000
25.06030	3448.00000
25.07870	3211.00000
25.09710	3124.00000
25.11560	2911.00000
25.13400	2805.00000
25.15250	2597.00000
25.17090	2596.00000
25.18930	2532.00000
25.20780	2400.00000
25.22620	2312.00000
25.24470	2320.00000
25.26310	2286.00000
25.28150	2249.00000
25.30000	2142.00000
25.31840	2255.00000
25.33690	2076.00000
25.35530	2125.00000
25.37370	2129.00000
25.39220	2099.00000
25.41060	2071.00000
25.42910	2086.00000
25.44750	2032.00000
25.46590	2047.00000
25.48440	2079.00000
25.50280	2059.00000
25.52130	2123.00000
25.53970	2139.00000
25.55810	2026.00000
25.57660	2068.00000
25.59500	2118.00000
25.61350	2107.00000
25.63190	2093.00000
25.65030	2106.00000
25.66880	2219.00000
25.68720	2333.00000
25.70570	2323.00000
25.72410	2490.00000
25.74250	2760.00000
25.76100	3137.00000
25.77940	3306.00000
25.79790	3376.00000
25.81630	3193.00000
25.83470	2993.00000
25.85320	2843.00000
25.87160	2606.00000
25.89000	2323.00000
25.90850	2222.00000
25.92690	2101.00000
25.94540	2007.00000
25.96380	1910.00000
25.98220	1930.00000
26.00070	1911.00000
26.01910	1970.00000
26.03760	1957.00000
26.05600	1894.00000
26.07440	2005.00000
26.09290	1935.00000
26.11130	1996.00000
26.12980	2002.00000
26.14820	2132.00000
26.16660	1985.00000
26.18510	2005.00000
26.20350	2095.00000
26.22200	2142.00000
26.24040	2107.00000
26.25880	2093.00000
26.27730	2117.00000
26.29570	2063.00000
26.31420	1939.00000
26.33260	1947.00000
26.35100	1964.00000
26.36950	1852.00000
26.38790	1889.00000
26.40640	1839.00000
26.42480	1908.00000
26.44320	1824.00000
26.46170	1908.00000
26.48010	1917.00000
26.49860	1989.00000
26.51700	1858.00000
26.53540	1937.00000
26.55390	1944.00000
26.57230	1979.00000
26.59080	1998.00000
26.60920	2058.00000
26.62760	2053.00000
26.64610	2206.00000
26.66450	2178.00000
26.68300	2319.00000
26.70140	2491.00000
26.71980	2636.00000
26.73830	2775.00000
26.75670	2947.00000
26.77510	3096.00000
26.79360	3156.00000
26.81200	3015.00000
26.83050	3043.00000
26.84890	2904.00000
26.86730	2832.00000
26.88580	2573.00000
26.90420	2432.00000
26.92270	2335.00000
26.94110	2179.00000
26.95950	2065.00000
26.97800	2039.00000
26.99640	1958.00000
27.01490	1909.00000
27.03330	1979.00000
27.05170	1884.00000
27.07020	1825.00000
27.08860	1825.00000
27.10710	1819.00000
27.12550	1767.00000
27.14390	1661.00000
27.16240	1726.00000
27.18080	1691.00000
27.19930	1743.00000
27.21770	1711.00000
27.23610	1697.00000
27.25460	1701.00000
27.27300	1748.00000
27.29150	1656.00000
27.30990	1695.00000
27.32830	1643.00000
27.34680	1651.00000
27.36520	1600.00000
27.38370	1713.00000
27.40210	1668.00000
27.42050	1639.00000
27.43900	1692.00000
27.45740	1728.00000
27.47590	1572.00000
27.49430	1609.00000
27.51270	1665.00000
27.53120	1613.00000
27.54960	1673.00000
27.56810	1631.00000
27.58650	1647.00000
27.60490	1654.00000
27.62340	1614.00000
27.64180	1673.00000
27.66020	1635.00000
27.67870	1694.00000
27.69710	1727.00000
27.71560	1662.00000
27.73400	1701.00000
27.75240	1622.00000
27.77090	1684.00000
27.78930	1702.00000
27.80780	1728.00000
27.82620	1846.00000
27.84460	1856.00000
27.86310	1872.00000
27.88150	1882.00000
27.90000	1750.00000
27.91840	1688.00000
27.93680	1652.00000
27.95530	1729.00000
27.97370	1628.00000
27.99220	1684.00000
28.01060	1620.00000
28.02900	1675.00000
28.04750	1644.00000
28.06590	1614.00000
28.08440	1681.00000
28.10280	1770.00000
28.12120	1767.00000
28.13970	1874.00000
28.15810	1975.00000
28.17660	2244.00000
28.19500	2354.00000
28.21340	2734.00000
28.23190	3042.00000
28.25030	3444.00000
28.26880	3375.00000
28.28720	3197.00000
28.30560	2897.00000
28.32410	2812.00000
28.34250	2624.00000
28.36100	2366.00000
28.37940	2099.00000
28.39780	1981.00000
28.41630	1967.00000
28.43470	2062.00000
28.45320	2230.00000
28.47160	2269.00000
28.49000	2260.00000
28.50850	2251.00000
28.52690	2231.00000
28.54540	2286.00000
28.56380	2376.00000
28.58220	2370.00000
28.60070	2417.00000
28.61910	2544.00000
28.63750	2748.00000
28.65600	2702.00000
28.67440	2649.00000
28.69290	2719.00000
28.71130	2629.00000
28.72970	2523.00000
28.74820	2372.00000
28.76660	2275.00000
28.78510	2243.00000
28.80350	2114.00000
28.82190	2202.00000
28.84040	2036.00000
28.85880	2004.00000
28.87730	1993.00000
28.89570	2001.00000
28.91410	1944.00000
28.93260	1749.00000
28.95100	1903.00000
28.96950	1871.00000
28.98790	1697.00000
29.00630	1762.00000
29.02480	1769.00000
29.04320	1770.00000
29.06170	1881.00000
29.08010	1890.00000
29.09850	1883.00000
29.11700	2026.00000
29.13540	2175.00000
29.15390	2278.00000
29.17230	2351.00000
29.19070	2532.00000
29.20920	2678.00000
29.22760	2817.00000
29.24610	3025.00000
29.26450	3283.00000
29.28290	3608.00000
29.30140	4032.00000
29.31980	4225.00000
29.33830	4576.00000
29.35670	4347.00000
29.37510	4403.00000
29.39360	4618.00000
29.41200	4696.00000
29.43050	4553.00000
29.44890	3989.00000
29.46730	3770.00000
29.48580	3419.00000
29.50420	3110.00000
29.52260	2939.00000
29.54110	2597.00000
29.55950	2428.00000
29.57800	2267.00000
29.59640	2219.00000
29.61480	2227.00000
29.63330	2126.00000
29.65170	2109.00000
29.67020	1984.00000
29.68860	1928.00000
29.70700	1961.00000
29.72550	1759.00000
29.74390	1766.00000
29.76240	1678.00000
29.78080	1632.00000
29.79920	1586.00000
29.81770	1500.00000
29.83610	1571.00000
29.85460	1480.00000
29.87300	1406.00000
29.89140	1444.00000
29.90990	1394.00000
29.92830	1418.00000
29.94680	1436.00000
29.96520	1422.00000
29.98360	1374.00000
30.00210	1361.00000
30.02050	1361.00000
30.03900	1343.00000
30.05740	1472.00000
30.07580	1414.00000
30.09430	1488.00000
30.11270	1434.00000
30.13120	1430.00000
30.14960	1413.00000
30.16800	1486.00000
30.18650	1512.00000
30.20490	1553.00000
30.22340	1569.00000
30.24180	1601.00000
30.26020	1547.00000
30.27870	1569.00000
30.29710	1606.00000
30.31560	1555.00000
30.33400	1530.00000
30.35240	1457.00000
30.37090	1457.00000
30.38930	1437.00000
30.40780	1392.00000
30.42620	1363.00000
30.44460	1392.00000
30.46310	1423.00000
30.48150	1412.00000
30.49990	1432.00000
30.51840	1420.00000
30.53680	1451.00000
30.55530	1552.00000
30.57370	1591.00000
30.59210	1569.00000
30.61060	1739.00000
30.62900	1935.00000
30.64750	1962.00000
30.66590	2203.00000
30.68430	2376.00000
30.70280	2855.00000
30.72120	3119.00000
30.73970	3269.00000
30.75810	2999.00000
30.77650	2833.00000
30.79500	2529.00000
30.81340	2397.00000
30.83190	2173.00000
30.85030	1942.00000
30.86870	1751.00000
30.88720	1529.00000
30.90560	1466.00000
30.92410	1520.00000
30.94250	1551.00000
30.96090	1557.00000
30.97940	1625.00000
30.99780	1574.00000
31.01630	1632.00000
31.03470	1611.00000
31.05310	1509.00000
31.07160	1531.00000
31.09000	1466.00000
31.10850	1504.00000
31.12690	1455.00000
31.14530	1433.00000
31.16380	1385.00000
31.18220	1336.00000
31.20070	1319.00000
31.21910	1375.00000
31.23750	1297.00000
31.25600	1315.00000
31.27440	1299.00000
31.29290	1382.00000
31.31130	1352.00000
31.32970	1383.00000
31.34820	1390.00000
31.36660	1422.00000
31.38500	1384.00000
31.40350	1334.00000
31.42190	1327.00000
31.44040	1234.00000
31.45880	1404.00000
31.47720	1334.00000
31.49570	1337.00000
31.51410	1346.00000
31.53260	1296.00000
31.55100	1288.00000
31.56940	1279.00000
31.58790	1268.00000
31.60630	1224.00000
31.62480	1199.00000
31.64320	1227.00000
31.66160	1217.00000
31.68010	1240.00000
31.69850	1198.00000
31.71700	1190.00000
31.73540	1164.00000
31.75380	1210.00000
31.77230	1221.00000
31.79070	1243.00000
31.80920	1188.00000
31.82760	1193.00000
31.84600	1135.00000
31.86450	1182.00000
31.88290	1184.00000
31.90140	1198.00000
31.91980	1211.00000
31.93820	1215.00000
31.95670	1315.00000
31.97510	1270.00000
31.99360	1384.00000
32.01200	1463.00000
32.03040	1534.00000
32.04890	1739.00000
32.06730	1991.00000
32.08580	2007.00000
32.10420	1924.00000
32.12260	1806.00000
32.14110	1644.00000
32.15950	1621.00000
32.17800	1579.00000
32.19640	1503.00000
32.21480	1318.00000
32.23330	1259.00000
32.25170	1198.00000
32.27010	1210.00000
32.28860	1231.00000
32.30700	1262.00000
32.32550	1216.00000
32.34390	1166.00000
32.36230	1271.00000
32.38080	1198.00000
32.39920	1259.00000
32.41770	1215.00000
32.43610	1226.00000
32.45450	1213.00000
32.47300	1217.00000
32.49140	1190.00000
32.50990	1194.00000
32.52830	1167.00000
32.54670	1159.00000
32.56520	1173.00000
32.58360	1169.00000
32.60210	1120.00000
32.62050	1268.00000
32.63890	1136.00000
32.65740	1145.00000
32.67580	1211.00000
32.69430	1152.00000
32.71270	1181.00000
32.73110	1159.00000
32.74960	1245.00000
32.76800	1202.00000
32.78650	1198.00000
32.80490	1179.00000
32.82330	1189.00000
32.84180	1194.00000
32.86020	1242.00000
32.87870	1298.00000
32.89710	1302.00000
32.91550	1343.00000
32.93400	1344.00000
32.95240	1401.00000
32.97090	1426.00000
32.98930	1548.00000
33.00770	1523.00000
33.02620	1600.00000
33.04460	1754.00000
33.06310	1907.00000
33.08150	2162.00000
33.09990	2300.00000
33.11840	2336.00000
33.13680	2468.00000
33.15530	2459.00000
33.17370	2325.00000
33.19210	2407.00000
33.21060	2130.00000
33.22900	2110.00000
33.24740	2095.00000
33.26590	1826.00000
33.28430	1750.00000
33.30280	1745.00000
33.32120	1714.00000
33.33960	1644.00000
33.35810	1629.00000
33.37650	1604.00000
33.39500	1649.00000
33.41340	1652.00000
33.43180	1678.00000
33.45030	1790.00000
33.46870	1917.00000
33.48720	2184.00000
33.50560	2409.00000
33.52400	2499.00000
33.54250	2550.00000
33.56090	2426.00000
33.57940	2259.00000
33.59780	2299.00000
33.61620	2216.00000
33.63470	1943.00000
33.65310	1768.00000
33.67160	1649.00000
33.69000	1542.00000
33.70840	1494.00000
33.72690	1404.00000
33.74530	1392.00000
33.76380	1397.00000
33.78220	1388.00000
33.80060	1354.00000
33.81910	1340.00000
33.83750	1342.00000
33.85600	1269.00000
33.87440	1241.00000
33.89280	1316.00000
33.91130	1227.00000
33.92970	1205.00000
33.94820	1244.00000
33.96660	1188.00000
33.98500	1180.00000
34.00350	1199.00000
34.02190	1196.00000
34.04040	1162.00000
34.05880	1211.00000
34.07720	1183.00000
34.09570	1123.00000
34.11410	1196.00000
34.13250	1173.00000
34.15100	1211.00000
34.16940	1204.00000
34.18790	1306.00000
34.20630	1347.00000
34.22470	1375.00000
34.24320	1515.00000
34.26160	1528.00000
34.28010	1558.00000
34.29850	1613.00000
34.31690	1535.00000
34.33540	1474.00000
34.35380	1412.00000
34.37230	1380.00000
34.39070	1304.00000
34.40910	1268.00000
34.42760	1195.00000
34.44600	1138.00000
34.46450	1159.00000
34.48290	1195.00000
34.50130	1108.00000
34.51980	1098.00000
34.53820	1100.00000
34.55670	1143.00000
34.57510	1109.00000
34.59350	1045.00000
34.61200	1139.00000
34.63040	1096.00000
34.64890	1090.00000
34.66730	1079.00000
34.68570	1096.00000
34.70420	1188.00000
34.72260	1116.00000
34.74110	1105.00000
34.75950	1106.00000
34.77790	1168.00000
34.79640	1215.00000
34.81480	1235.00000
34.83330	1211.00000
34.85170	1227.00000
34.87010	1276.00000
34.88860	1284.00000
34.90700	1391.00000
34.92550	1488.00000
34.94390	1673.00000
34.96230	1710.00000
34.98080	1898.00000
34.99920	2094.00000
35.01760	2310.00000
35.03610	2527.00000
35.05450	2860.00000
35.07300	2985.00000
35.09140	3229.00000
35.10980	3261.00000
35.12830	3264.00000
35.14670	3388.00000
35.16520	3231.00000
35.18360	2938.00000
35.20200	2813.00000
35.22050	2668.00000
35.23890	2423.00000
35.25740	2201.00000
35.27580	2104.00000
35.29420	1942.00000
35.31270	1899.00000
35.33110	1918.00000
35.34960	1863.00000
35.36800	1959.00000
35.38640	2064.00000
35.40490	2254.00000
35.42330	2254.00000
35.44180	2327.00000
35.46020	2323.00000
35.47860	2275.00000
35.49710	2160.00000
35.51550	2046.00000
35.53400	1906.00000
35.55240	1830.00000
35.57080	1747.00000
35.58930	1703.00000
35.60770	1478.00000
35.62620	1542.00000
35.64460	1522.00000
35.66300	1649.00000
35.68150	1633.00000
35.69990	1673.00000
35.71840	1815.00000
35.73680	1900.00000
35.75520	1983.00000
35.77370	2126.00000
35.79210	2155.00000
35.81060	1998.00000
35.82900	2067.00000
35.84740	2121.00000
35.86590	1975.00000
35.88430	2033.00000
35.90280	1951.00000
35.92120	1824.00000
35.93960	1775.00000
35.95810	1693.00000
35.97650	1659.00000
35.99490	1609.00000
36.01340	1559.00000
36.03180	1569.00000
36.05030	1532.00000
36.06870	1509.00000
36.08710	1563.00000
36.10560	1513.00000
36.12400	1632.00000
36.14250	1606.00000
36.16090	1666.00000
36.17930	1699.00000
36.19780	1705.00000
36.21620	1836.00000
36.23470	1699.00000
36.25310	1657.00000
36.27150	1623.00000
36.29000	1717.00000
36.30840	1561.00000
36.32690	1538.00000
36.34530	1530.00000
36.36370	1510.00000
36.38220	1524.00000
36.40060	1546.00000
36.41910	1471.00000
36.43750	1497.00000
36.45590	1544.00000
36.47440	1683.00000
36.49280	1843.00000
36.51130	1927.00000
36.52970	2183.00000
36.54810	2321.00000
36.56660	2360.00000
36.58500	2500.00000
36.60350	2462.00000
36.62190	2316.00000
36.64030	2406.00000
36.65880	2326.00000
36.67720	2228.00000
36.69570	2303.00000
36.71410	2198.00000
36.73250	2098.00000
36.75100	1924.00000
36.76940	1824.00000
36.78790	1759.00000
36.80630	1643.00000
36.82470	1608.00000
36.84320	1487.00000
36.86160	1515.00000
36.88000	1521.00000
36.89850	1509.00000
36.91690	1553.00000
36.93540	1514.00000
36.95380	1543.00000
36.97220	1637.00000
36.99070	1654.00000
37.00910	1611.00000
37.02760	1618.00000
37.04600	1646.00000
37.06440	1666.00000
37.08290	1523.00000
37.10130	1465.00000
37.11980	1429.00000
37.13820	1381.00000
37.15660	1416.00000
37.17510	1375.00000
37.19350	1300.00000
37.21200	1359.00000
37.23040	1419.00000
37.24880	1389.00000
37.26730	1401.00000
37.28570	1564.00000
37.30420	1639.00000
37.32260	1702.00000
37.34100	1693.00000
37.35950	1722.00000
37.37790	1624.00000
37.39640	1600.00000
37.41480	1587.00000
37.43320	1466.00000
37.45170	1504.00000
37.47010	1393.00000
37.48860	1320.00000
37.50700	1263.00000
37.52540	1272.00000
37.54390	1317.00000
37.56230	1350.00000
37.58080	1250.00000
37.59920	1323.00000
37.61760	1442.00000
37.63610	1439.00000
37.65450	1526.00000
37.67300	1691.00000
37.69140	1880.00000
37.70980	2126.00000
37.72830	2253.00000
37.74670	2375.00000
37.76520	2546.00000
37.78360	2701.00000
37.80200	2746.00000
37.82050	2781.00000
37.83890	2684.00000
37.85730	2696.00000
37.87580	2512.00000
37.89420	2354.00000
37.91270	2256.00000
37.93110	2087.00000
37.94950	2049.00000
37.96800	1857.00000
37.98640	1927.00000
38.00490	1854.00000
38.02330	1784.00000
38.04170	1621.00000
38.06020	1674.00000
38.07860	1674.00000
38.09710	1612.00000
38.11550	1665.00000
38.13390	1722.00000
38.15240	1661.00000
38.17080	1536.00000
38.18930	1533.00000
38.20770	1516.00000
38.22610	1365.00000
38.24460	1431.00000
38.26300	1409.00000
38.28150	1279.00000
38.29990	1302.00000
38.31830	1195.00000
38.33680	1172.00000
38.35520	1067.00000
38.37370	1174.00000
38.39210	1166.00000
38.41050	1076.00000
38.42900	1019.00000
38.44740	1077.00000
38.46590	1047.00000
38.48430	1065.00000
38.50270	1038.00000
38.52120	1086.00000
38.53960	1083.00000
38.55810	1104.00000
38.57650	1148.00000
38.59490	1196.00000
38.61340	1174.00000
38.63180	1124.00000
38.65030	1177.00000
38.66870	1162.00000
38.68710	1168.00000
38.70560	1213.00000
38.72400	1226.00000
38.74240	1246.00000
38.76090	1276.00000
38.77930	1156.00000
38.79780	1229.00000
38.81620	1169.00000
38.83460	1164.00000
38.85310	1214.00000
38.87150	1093.00000
38.89000	1099.00000
38.90840	1125.00000
38.92680	1045.00000
38.94530	1014.00000
38.96370	974.00000
38.98220	1007.00000
39.00060	973.00000
39.01900	955.00000
39.03750	1019.00000
39.05590	1008.00000
39.07440	920.00000
39.09280	957.00000
39.11120	960.00000
39.12970	973.00000
39.14810	944.00000
39.16660	978.00000
39.18500	942.00000
39.20340	1025.00000
39.22190	1034.00000
39.24030	1073.00000
39.25880	1128.00000
39.27720	1333.00000
39.29560	1386.00000
39.31410	1535.00000
39.33250	1558.00000
39.35100	1456.00000
39.36940	1343.00000
39.38780	1288.00000
39.40630	1280.00000
39.42470	1284.00000
39.44320	1207.00000
39.46160	1167.00000
39.48000	949.00000
39.49850	1029.00000
39.51690	990.00000
39.53540	986.00000
39.55380	968.00000
39.57220	936.00000
39.59070	981.00000
39.60910	1021.00000
39.62750	940.00000
39.64600	949.00000
39.66440	1020.00000
39.68290	977.00000
39.70130	1082.00000
39.71970	1093.00000
39.73820	1150.00000
39.75660	1230.00000
39.77510	1296.00000
39.79350	1442.00000
39.81190	1671.00000
39.83040	1806.00000
39.84880	1895.00000
39.86730	2027.00000
39.88570	2027.00000
39.90410	2126.00000
39.92260	1910.00000
39.94100	1987.00000
39.95950	1852.00000
39.97790	1760.00000
39.99630	1702.00000
40.01480	1608.00000
40.03320	1543.00000
40.05170	1395.00000
40.07010	1390.00000
40.08850	1237.00000
40.10700	1327.00000
40.12540	1266.00000
40.14390	1263.00000
40.16230	1302.00000
40.18070	1336.00000
40.19920	1224.00000
40.21760	1313.00000
40.23610	1285.00000
40.25450	1229.00000
40.27290	1211.00000
40.29140	1290.00000
40.30980	1349.00000
40.32830	1357.00000
40.34670	1399.00000
40.36510	1411.00000
40.38360	1358.00000
40.40200	1417.00000
40.42050	1408.00000
40.43890	1486.00000
40.45730	1493.00000
40.47580	1510.00000
40.49420	1461.00000
40.51270	1537.00000
40.53110	1365.00000
40.54950	1398.00000
40.56800	1399.00000
40.58640	1312.00000
40.60480	1354.00000
40.62330	1335.00000
40.64170	1352.00000
40.66020	1394.00000
40.67860	1448.00000
40.69700	1563.00000
40.71550	1632.00000
40.73390	1623.00000
40.75240	1787.00000
40.77080	1773.00000
40.78920	1797.00000
40.80770	1829.00000
40.82610	1665.00000
40.84460	1692.00000
40.86300	1592.00000
40.88140	1509.00000
40.89990	1509.00000
40.91830	1427.00000
40.93680	1342.00000
40.95520	1302.00000
40.97360	1238.00000
40.99210	1169.00000
41.01050	1151.00000
41.02900	1064.00000
41.04740	1041.00000
41.06580	1033.00000
41.08430	945.00000
41.10270	1036.00000
41.12120	1045.00000
41.13960	991.00000
41.15800	1074.00000
41.17650	1024.00000
41.19490	1006.00000
41.21340	1005.00000
41.23180	1047.00000
41.25020	985.00000
41.26870	983.00000
41.28710	961.00000
41.30560	948.00000
41.32400	911.00000
41.34240	947.00000
41.36090	950.00000
41.37930	940.00000
41.39780	984.00000
41.41620	1026.00000
41.43460	1025.00000
41.45310	1028.00000
41.47150	1039.00000
41.48990	1021.00000
41.50840	1017.00000
41.52680	1077.00000
41.54530	1032.00000
41.56370	1127.00000
41.58210	1110.00000
41.60060	1121.00000
41.61900	1149.00000
41.63750	1196.00000
41.65590	1182.00000
41.67430	1223.00000
41.69280	1192.00000
41.71120	1282.00000
41.72970	1246.00000
41.74810	1345.00000
41.76650	1378.00000
41.78500	1411.00000
41.80340	1318.00000
41.82190	1341.00000
41.84030	1436.00000
41.85870	1444.00000
41.87720	1374.00000
41.89560	1547.00000
41.91410	1554.00000
41.93250	1679.00000
41.95090	1744.00000
41.96940	1907.00000
41.98780	1891.00000
42.00630	1812.00000
42.02470	1717.00000
42.04310	1637.00000
42.06160	1579.00000
42.08000	1573.00000
42.09850	1569.00000
42.11690	1551.00000
42.13530	1522.00000
42.15380	1448.00000
42.17220	1476.00000
42.19070	1422.00000
42.20910	1554.00000
42.22750	1582.00000
42.24600	1681.00000
42.26440	1622.00000
42.28290	1657.00000
42.30130	1545.00000
42.31970	1508.00000
42.33820	1518.00000
42.35660	1465.00000
42.37510	1469.00000
42.39350	1495.00000
42.41190	1529.00000
42.43040	1423.00000
42.44880	1472.00000
42.46720	1408.00000
42.48570	1516.00000
42.50410	1556.00000
42.52260	1552.00000
42.54100	1677.00000
42.55940	1694.00000
42.57790	1720.00000
42.59630	1742.00000
42.61480	1615.00000
42.63320	1668.00000
42.65160	1669.00000
42.67010	1653.00000
42.68850	1698.00000
42.70700	1584.00000
42.72540	1637.00000
42.74380	1652.00000
42.76230	1589.00000
42.78070	1540.00000
42.79920	1458.00000
42.81760	1459.00000
42.83600	1405.00000
42.85450	1341.00000
42.87290	1312.00000
42.89140	1265.00000
42.90980	1263.00000
42.92820	1097.00000
42.94670	1112.00000
42.96510	1083.00000
42.98360	1038.00000
43.00200	1015.00000
43.02040	1032.00000
43.03890	1007.00000
43.05730	971.00000
43.07580	1014.00000
43.09420	1011.00000
43.11260	1050.00000
43.13110	1036.00000
43.14950	1058.00000
43.16800	1098.00000
43.18640	1123.00000
43.20480	1128.00000
43.22330	1157.00000
43.24170	1268.00000
43.26020	1264.00000
43.27860	1344.00000
43.29700	1358.00000
43.31550	1401.00000
43.33390	1437.00000
43.35230	1477.00000
43.37080	1382.00000
43.38920	1440.00000
43.40770	1386.00000
43.42610	1288.00000
43.44450	1319.00000
43.46300	1348.00000
43.48140	1277.00000
43.49990	1279.00000
43.51830	1291.00000
43.53670	1254.00000
43.55520	1194.00000
43.57360	1321.00000
43.59210	1376.00000
43.61050	1413.00000
43.62890	1459.00000
43.64740	1477.00000
43.66580	1605.00000
43.68430	1633.00000
43.70270	1636.00000
43.72110	1595.00000
43.73960	1650.00000
43.75800	1592.00000
43.77650	1519.00000
43.79490	1571.00000
43.81330	1515.00000
43.83180	1356.00000
43.85020	1453.00000
43.86870	1355.00000
43.88710	1388.00000
43.90550	1273.00000
43.92400	1277.00000
43.94240	1207.00000
43.96090	1136.00000
43.97930	1187.00000
43.99770	1186.00000
44.01620	1157.00000
44.03460	1109.00000
44.05310	1095.00000
44.07150	1062.00000
44.08990	1070.00000
44.10840	1099.00000
44.12680	1103.00000
44.14530	1060.00000
44.16370	1048.00000
44.18210	1027.00000
44.20060	1012.00000
44.21900	1025.00000
44.23750	1057.00000
44.25590	1062.00000
44.27430	1004.00000
44.29280	1028.00000
44.31120	1039.00000
44.32960	1076.00000
44.34810	1108.00000
44.36650	1092.00000
44.38500	1098.00000
44.40340	1198.00000
44.42180	1144.00000
44.44030	1245.00000
44.45870	1271.00000
44.47720	1382.00000
44.49560	1482.00000
44.51400	1547.00000
44.53250	1506.00000
44.55090	1609.00000
44.56940	1592.00000
44.58780	1634.00000
44.60620	1583.00000
44.62470	1613.00000
44.64310	1557.00000
44.66160	1662.00000
44.68000	1613.00000
44.69840	1603.00000
44.71690	1572.00000
44.73530	1642.00000
44.75380	1671.00000
44.77220	1651.00000
44.79060	1790.00000
44.80910	1751.00000
44.82750	1639.00000
44.84600	1749.00000
44.86440	1620.00000
44.88280	1548.00000
44.90130	1540.00000
44.91970	1422.00000
44.93820	1435.00000
44.95660	1383.00000
44.97500	1331.00000
44.99350	1243.00000
45.01190	1215.00000
45.03040	1168.00000
45.04880	1128.00000
45.06720	1127.00000
45.08570	1120.00000
45.10410	1070.00000
45.12260	1132.00000
45.14100	1145.00000
45.15940	1059.00000
45.17790	1140.00000
45.19630	1138.00000
45.21470	1103.00000
45.23320	1079.00000
45.25160	1020.00000
45.27010	1085.00000
45.28850	1147.00000
45.30690	1193.00000
45.32540	1171.00000
45.34380	1225.00000
45.36230	1257.00000
45.38070	1227.00000
45.39910	1383.00000
45.41760	1364.00000
45.43600	1322.00000
45.45450	1347.00000
45.47290	1286.00000
45.49130	1277.00000
45.50980	1284.00000
45.52820	1239.00000
45.54670	1265.00000
45.56510	1237.00000
45.58350	1211.00000
45.60200	1198.00000
45.62040	1143.00000
45.63890	1102.00000
45.65730	1203.00000
45.67570	1210.00000
45.69420	1219.00000
45.71260	1270.00000
45.73110	1353.00000
45.74950	1395.00000
45.76790	1345.00000
45.78640	1346.00000
45.80480	1313.00000
45.82330	1318.00000
45.84170	1287.00000
45.86010	1323.00000
45.87860	1308.00000
45.89700	1269.00000
45.91550	1177.00000
45.93390	1151.00000
45.95230	1165.00000
45.97080	1114.00000
45.98920	1088.00000
46.00770	1086.00000
46.02610	1078.00000
46.04450	1068.00000
46.06300	1064.00000
46.08140	1066.00000
46.09980	1026.00000
46.11830	1082.00000
46.13670	1069.00000
46.15520	1097.00000
46.17360	1146.00000
46.19200	1161.00000
46.21050	1210.00000
46.22890	1206.00000
46.24740	1296.00000
46.26580	1425.00000
46.28420	1517.00000
46.30270	1633.00000
46.32110	1628.00000
46.33960	1705.00000
46.35800	1709.00000
46.37640	1628.00000
46.39490	1581.00000
46.41330	1531.00000
46.43180	1523.00000
46.45020	1493.00000
46.46860	1521.00000
46.48710	1385.00000
46.50550	1288.00000
46.52400	1248.00000
46.54240	1219.00000
46.56080	1255.00000
46.57930	1244.00000
46.59770	1183.00000
46.61620	1182.00000
46.63460	1177.00000
46.65300	1161.00000
46.67150	1119.00000
46.68990	1057.00000
46.70840	1060.00000
46.72680	1005.00000
46.74520	1060.00000
46.76370	993.00000
46.78210	1026.00000
46.80060	1038.00000
46.81900	1018.00000
46.83740	992.00000
46.85590	1102.00000
46.87430	1057.00000
46.89280	1035.00000
46.91120	1013.00000
46.92960	956.00000
46.94810	956.00000
46.96650	972.00000
46.98500	1088.00000
47.00340	996.00000
47.02180	986.00000
47.04030	965.00000
47.05870	976.00000
47.07710	995.00000
47.09560	967.00000
47.11400	954.00000
47.13250	974.00000
47.15090	968.00000
47.16930	1009.00000
47.18780	970.00000
47.20620	964.00000
47.22470	978.00000
47.24310	1032.00000
47.26150	984.00000
47.28000	997.00000
47.29840	974.00000
47.31690	988.00000
47.33530	986.00000
47.35370	970.00000
47.37220	1007.00000
47.39060	1005.00000
47.40910	949.00000
47.42750	915.00000
47.44590	969.00000
47.46440	912.00000
47.48280	930.00000
47.50130	860.00000
47.51970	867.00000
47.53810	877.00000
47.55660	854.00000
47.57500	868.00000
47.59350	890.00000
47.61190	838.00000
47.63030	840.00000
47.64880	876.00000
47.66720	848.00000
47.68570	882.00000
47.70410	862.00000
47.72250	830.00000
47.74100	888.00000
47.75940	838.00000
47.77790	880.00000
47.79630	861.00000
47.81470	867.00000
47.83320	862.00000
47.85160	809.00000
47.87010	927.00000
47.88850	888.00000
47.90690	868.00000
47.92540	893.00000
47.94380	851.00000
47.96220	982.00000
47.98070	962.00000
47.99910	954.00000
48.01760	974.00000
48.03600	978.00000
48.05440	989.00000
48.07290	1056.00000
48.09130	1012.00000
48.10980	1053.00000
48.12820	1051.00000
48.14660	1077.00000
48.16510	1137.00000
48.18350	1114.00000
48.20200	1124.00000
48.22040	1079.00000
48.23880	1103.00000
48.25730	1054.00000
48.27570	1119.00000
48.29420	1062.00000
48.31260	1104.00000
48.33100	1000.00000
48.34950	998.00000
48.36790	1050.00000
48.38640	1014.00000
48.40480	1002.00000
48.42320	991.00000
48.44170	996.00000
48.46010	967.00000
48.47860	843.00000
48.49700	928.00000
48.51540	903.00000
48.53390	843.00000
48.55230	909.00000
48.57080	904.00000
48.58920	913.00000
48.60760	829.00000
48.62610	860.00000
48.64450	837.00000
48.66300	905.00000
48.68140	940.00000
48.69980	916.00000
48.71830	949.00000
48.73670	943.00000
48.75520	968.00000
48.77360	1024.00000
48.79200	1095.00000
48.81050	1150.00000
48.82890	1124.00000
48.84730	1159.00000
48.86580	1066.00000
48.88420	1054.00000
48.90270	1064.00000
48.92110	1100.00000
48.93950	1194.00000
48.95800	1229.00000
48.97640	1204.00000
48.99490	1157.00000
49.01330	1196.00000
49.03170	1214.00000
49.05020	1227.00000
49.06860	1184.00000
49.08710	1280.00000
49.10550	1218.00000
49.12390	1311.00000
49.14240	1249.00000
49.16080	1386.00000
49.17930	1314.00000
49.19770	1353.00000
49.21610	1248.00000
49.23460	1183.00000
49.25300	1149.00000
49.27150	1111.00000
49.28990	1166.00000
49.30830	1225.00000
49.32680	1182.00000
49.34520	1119.00000
49.36370	1132.00000
49.38210	1103.00000
49.40050	1121.00000
49.41900	1175.00000
49.43740	1046.00000
49.45590	1117.00000
49.47430	1042.00000
49.49270	1039.00000
49.51120	1052.00000
49.52960	994.00000
49.54810	1028.00000
49.56650	1018.00000
49.58490	1050.00000
49.60340	960.00000
49.62180	1033.00000
49.64030	1002.00000
49.65870	962.00000
49.67710	1051.00000
49.69560	1011.00000
49.71400	1005.00000
49.73250	1029.00000
49.75090	1049.00000
49.76930	1036.00000
49.78780	1030.00000
49.80620	1045.00000
49.82460	1041.00000
49.84310	1023.00000
49.86150	1013.00000
49.88000	1002.00000
49.89840	975.00000
49.91680	1016.00000
49.93530	941.00000
49.95370	942.00000
49.97220	912.00000
49.99060	932.00000
50.00900	961.00000
50.02750	899.00000
50.04590	979.00000
50.06440	905.00000
50.08280	971.00000
50.10120	960.00000
50.11970	1024.00000
50.13810	964.00000
50.15660	1003.00000
50.17500	982.00000
50.19340	1004.00000
50.21190	1006.00000
50.23030	1053.00000
50.24880	1034.00000
50.26720	989.00000
50.28560	1004.00000
50.30410	1024.00000
50.32250	1017.00000
50.34100	1013.00000
50.35940	1051.00000
50.37780	1023.00000
50.39630	919.00000
50.41470	977.00000
50.43320	945.00000
50.45160	954.00000
50.47000	895.00000
50.48850	928.00000
50.50690	862.00000
50.52540	915.00000
50.54380	912.00000
50.56220	921.00000
50.58070	894.00000
50.59910	976.00000
50.61760	926.00000
50.63600	1001.00000
50.65440	977.00000
50.67290	1022.00000
50.69130	1027.00000
50.70970	949.00000
50.72820	986.00000
50.74660	971.00000
50.76510	957.00000
50.78350	990.00000
50.80190	988.00000
50.82040	973.00000
50.83880	1008.00000
50.85730	998.00000
50.87570	936.00000
50.89410	985.00000
50.91260	900.00000
50.93100	902.00000
50.94950	1013.00000
50.96790	1025.00000
50.98630	1003.00000
51.00480	1025.00000
51.02320	1025.00000
51.04170	1074.00000
51.06010	1028.00000
51.07850	1106.00000
51.09700	1067.00000
51.11540	1123.00000
51.13390	1182.00000
51.15230	1266.00000
51.17070	1332.00000
51.18920	1469.00000
51.20760	1621.00000
51.22610	1714.00000
51.24450	1719.00000
51.26290	1688.00000
51.28140	1663.00000
51.29980	1542.00000
51.31830	1514.00000
51.33670	1486.00000
51.35510	1492.00000
51.37360	1526.00000
51.39200	1456.00000
51.41050	1409.00000
51.42890	1313.00000
51.44730	1229.00000
51.46580	1167.00000
51.48420	1094.00000
51.50270	1010.00000
51.52110	1040.00000
51.53950	1092.00000
51.55800	977.00000
51.57640	965.00000
51.59490	959.00000
51.61330	1030.00000
51.63170	939.00000
51.65020	990.00000
51.66860	989.00000
51.68700	974.00000
51.70550	989.00000
51.72390	973.00000
51.74240	921.00000
51.76080	1005.00000
51.77920	901.00000
51.79770	965.00000
51.81610	955.00000
51.83460	983.00000
51.85300	932.00000
51.87140	900.00000
51.88990	934.00000
51.90830	946.00000
51.92680	931.00000
51.94520	859.00000
51.96360	837.00000
51.98210	868.00000
52.00050	901.00000
52.01900	830.00000
52.03740	832.00000
52.05580	788.00000
52.07430	820.00000
52.09270	834.00000
52.11120	843.00000
52.12960	841.00000
52.14800	805.00000
52.16650	862.00000
52.18490	836.00000
52.20340	821.00000
52.22180	906.00000
52.24020	912.00000
52.25870	857.00000
52.27710	873.00000
52.29560	888.00000
52.31400	927.00000
52.33240	918.00000
52.35090	900.00000
52.36930	930.00000
52.38780	960.00000
52.40620	911.00000
52.42460	953.00000
52.44310	969.00000
52.46150	879.00000
52.48000	872.00000
52.49840	881.00000
52.51680	848.00000
52.53530	877.00000
52.55370	845.00000
52.57210	834.00000
52.59060	876.00000
52.60900	850.00000
52.62750	865.00000
52.64590	850.00000
52.66430	841.00000
52.68280	904.00000
52.70120	849.00000
52.71970	856.00000
52.73810	894.00000
52.75650	897.00000
52.77500	856.00000
52.79340	870.00000
52.81190	862.00000
52.83030	878.00000
52.84870	885.00000
52.86720	902.00000
52.88560	881.00000
52.90410	866.00000
52.92250	923.00000
52.94090	919.00000
52.95940	886.00000
52.97780	886.00000
52.99630	914.00000
53.01470	882.00000
53.03310	868.00000
53.05160	836.00000
53.07000	858.00000
53.08850	901.00000
53.10690	973.00000
53.12530	880.00000
53.14380	939.00000
53.16220	906.00000
53.18070	978.00000
53.19910	984.00000
53.21750	933.00000
53.23600	961.00000
53.25440	992.00000
53.27290	971.00000
53.29130	907.00000
53.30970	926.00000
53.32820	1026.00000
53.34660	954.00000
53.36510	977.00000
53.38350	884.00000
53.40190	915.00000
53.42040	916.00000
53.43880	868.00000
53.45730	896.00000
53.47570	852.00000
53.49410	848.00000
53.51260	933.00000
53.53100	918.00000
53.54940	880.00000
53.56790	910.00000
53.58630	887.00000
53.60480	962.00000
53.62320	928.00000
53.64160	1030.00000
53.66010	1023.00000
53.67850	982.00000
53.69700	1059.00000
53.71540	1011.00000
53.73380	1065.00000
53.75230	1045.00000
53.77070	982.00000
53.78920	1060.00000
53.80760	1132.00000
53.82600	1100.00000
53.84450	1146.00000
53.86290	1221.00000
53.88140	1144.00000
53.89980	1237.00000
53.91820	1190.00000
53.93670	1187.00000
53.95510	1192.00000
53.97360	1201.00000
53.99200	1173.00000
54.01040	1184.00000
54.02890	1104.00000
54.04730	1134.00000
54.06580	1175.00000
54.08420	1159.00000
54.10260	1154.00000
54.12110	1136.00000
54.13950	1211.00000
54.15800	1122.00000
54.17640	1140.00000
54.19480	1118.00000
54.21330	1183.00000
54.23170	1207.00000
54.25020	1178.00000
54.26860	1205.00000
54.28700	1208.00000
54.30550	1185.00000
54.32390	1204.00000
54.34240	1147.00000
54.36080	1156.00000
54.37920	1211.00000
54.39770	1153.00000
54.41610	1166.00000
54.43450	1041.00000
54.45300	1162.00000
54.47140	1070.00000
54.48990	1099.00000
54.50830	1081.00000
54.52670	1040.00000
54.54520	1121.00000
54.56360	1132.00000
54.58210	1130.00000
54.60050	1056.00000
54.61890	1070.00000
54.63740	1098.00000
54.65580	1111.00000
54.67430	1096.00000
54.69270	1075.00000
54.71110	1127.00000
54.72960	1093.00000
54.74800	1129.00000
54.76650	1096.00000
54.78490	1143.00000
54.80330	1146.00000
54.82180	1168.00000
54.84020	1195.00000
54.85870	1222.00000
54.87710	1238.00000
54.89550	1202.00000
54.91400	1313.00000
54.93240	1417.00000
54.95090	1402.00000
54.96930	1425.00000
54.98770	1483.00000
55.00620	1421.00000
55.02460	1520.00000
55.04310	1418.00000
55.06150	1431.00000
55.07990	1492.00000
55.09840	1418.00000
55.11680	1438.00000
55.13530	1524.00000
55.15370	1441.00000
55.17210	1384.00000
55.19060	1301.00000
55.20900	1301.00000
55.22750	1190.00000
55.24590	1176.00000
55.26430	1153.00000
55.28280	1045.00000
55.30120	1147.00000
55.31960	1101.00000
55.33810	1117.00000
55.35650	1076.00000
55.37500	1068.00000
55.39340	1064.00000
55.41180	1073.00000
55.43030	1115.00000
55.44870	1006.00000
55.46720	1055.00000
55.48560	1057.00000
55.50400	1099.00000
55.52250	1075.00000
55.54090	1027.00000
55.55940	1026.00000
55.57780	1061.00000
55.59620	1061.00000
55.61470	1047.00000
55.63310	1040.00000
55.65160	1044.00000
55.67000	1031.00000
55.68840	1024.00000
55.70690	979.00000
55.72530	962.00000
55.74380	921.00000
55.76220	1005.00000
55.78060	969.00000
55.79910	930.00000
55.81750	982.00000
55.83600	920.00000
55.85440	964.00000
55.87280	919.00000
55.89130	907.00000
55.90970	960.00000
55.92820	939.00000
55.94660	909.00000
55.96500	921.00000
55.98350	956.00000
56.00190	930.00000
56.02040	974.00000
56.03880	979.00000
56.05720	946.00000
56.07570	997.00000
56.09410	989.00000
56.11260	978.00000
56.13100	986.00000
56.14940	1082.00000
56.16790	947.00000
56.18630	950.00000
56.20480	1055.00000
56.22320	1115.00000
56.24160	1107.00000
56.26010	1100.00000
56.27850	1024.00000
56.29690	1009.00000
56.31540	1060.00000
56.33380	1089.00000
56.35230	993.00000
56.37070	1028.00000
56.38910	1026.00000
56.40760	1037.00000
56.42600	1014.00000
56.44450	1057.00000
56.46290	1028.00000
56.48130	1064.00000
56.49980	1041.00000
56.51820	1028.00000
56.53670	1203.00000
56.55510	1219.00000
56.57350	1316.00000
56.59200	1242.00000
56.61040	1272.00000
56.62890	1271.00000
56.64730	1231.00000
56.66570	1287.00000
56.68420	1232.00000
56.70260	1203.00000
56.72110	1230.00000
56.73950	1264.00000
56.75790	1278.00000
56.77640	1335.00000
56.79480	1322.00000
56.81330	1252.00000
56.83170	1229.00000
56.85010	1198.00000
56.86860	1149.00000
56.88700	1218.00000
56.90550	1175.00000
56.92390	1173.00000
56.94230	1168.00000
56.96080	1213.00000
56.97920	1119.00000
56.99770	1089.00000
57.01610	1100.00000
57.03450	1139.00000
57.05300	1053.00000
57.07140	1182.00000
57.08990	1133.00000
57.10830	1116.00000
57.12670	1124.00000
57.14520	1184.00000
57.16360	1190.00000
57.18200	1127.00000
57.20050	1214.00000
57.21890	1169.00000
57.23740	1204.00000
57.25580	1291.00000
57.27420	1265.00000
57.29270	1273.00000
57.31110	1359.00000
57.32960	1372.00000
57.34800	1379.00000
57.36640	1262.00000
57.38490	1425.00000
57.40330	1417.00000
57.42180	1423.00000
57.44020	1587.00000
57.45860	1546.00000
57.47710	1539.00000
57.49550	1554.00000
57.51400	1522.00000
57.53240	1487.00000
57.55080	1409.00000
57.56930	1375.00000
57.58770	1351.00000
57.60620	1342.00000
57.62460	1343.00000
57.64300	1333.00000
57.66150	1283.00000
57.67990	1218.00000
57.69840	1228.00000
57.71680	1205.00000
57.73520	1107.00000
57.75370	1086.00000
57.77210	1057.00000
57.79060	1071.00000
57.80900	1053.00000
57.82740	1039.00000
57.84590	969.00000
57.86430	987.00000
57.88280	1001.00000
57.90120	943.00000
57.91960	943.00000
57.93810	981.00000
57.95650	908.00000
57.97500	934.00000
57.99340	929.00000
58.01180	939.00000
58.03030	936.00000
58.04870	995.00000
58.06710	907.00000
58.08560	921.00000
58.10400	970.00000
58.12250	976.00000
58.14090	1007.00000
58.15930	1006.00000
58.17780	1043.00000
58.19620	1138.00000
58.21470	1182.00000
58.23310	1206.00000
58.25150	1178.00000
58.27000	1243.00000
58.28840	1258.00000
58.30690	1224.00000
58.32530	1154.00000
58.34370	1197.00000
58.36220	1193.00000
58.38060	1234.00000
58.39910	1207.00000
58.41750	1266.00000
58.43590	1182.00000
58.45440	1136.00000
58.47280	1120.00000
58.49130	1118.00000
58.50970	1120.00000
58.52810	1085.00000
58.54660	1019.00000
58.56500	1019.00000
58.58350	998.00000
58.60190	1019.00000
58.62030	991.00000
58.63880	956.00000
58.65720	923.00000
58.67570	1001.00000
58.69410	937.00000
58.71250	943.00000
58.73100	966.00000
58.74940	999.00000
58.76790	988.00000
58.78630	960.00000
58.80470	981.00000
58.82320	998.00000
58.84160	953.00000
58.86010	987.00000
58.87850	944.00000
58.89690	1040.00000
58.91540	1029.00000
58.93380	971.00000
58.95230	1032.00000
58.97070	1040.00000
58.98910	1064.00000
59.00760	1039.00000
59.02600	1012.00000
59.04440	994.00000
59.06290	1041.00000
59.08130	990.00000
59.09980	1002.00000
59.11820	968.00000
59.13660	990.00000
59.15510	1009.00000
59.17350	1029.00000
59.19200	1009.00000
59.21040	1025.00000
59.22880	971.00000
59.24730	1112.00000
59.26570	958.00000
59.28420	951.00000
59.30260	1010.00000
59.32100	1009.00000
59.33950	1018.00000
59.35790	985.00000
59.37640	936.00000
59.39480	988.00000
59.41320	1017.00000
59.43170	970.00000
59.45010	1009.00000
59.46860	992.00000
59.48700	1060.00000
59.50540	1083.00000
59.52390	1013.00000
59.54230	1048.00000
59.56080	1140.00000
59.57920	1111.00000
59.59760	1135.00000
59.61610	1096.00000
59.63450	1093.00000
59.65300	1101.00000
59.67140	1138.00000
59.68980	1089.00000
59.70830	1053.00000
59.72670	1084.00000
59.74520	1139.00000
59.76360	1122.00000
59.78200	1147.00000
59.80050	1086.00000
59.81890	1068.00000
59.83740	1094.00000
59.85580	1126.00000
59.87420	1064.00000
59.89270	1125.00000
59.91110	1063.00000
59.92950	1072.00000
59.94800	1064.00000
59.96640	1046.00000
59.98490	1049.00000
60.00330	1080.00000
60.02170	1043.00000
60.04020	1111.00000
60.05860	1115.00000
60.07710	1102.00000
60.09550	1144.00000
60.11390	1171.00000
60.13240	1084.00000
60.15080	1150.00000
60.16930	1100.00000
60.18770	1008.00000
60.20610	1080.00000
60.22460	1073.00000
60.24300	1094.00000
60.26150	1102.00000
60.27990	1106.00000
60.29830	1082.00000
60.31680	1058.00000
60.33520	1015.00000
60.35370	1048.00000
60.37210	1067.00000
60.39050	1026.00000
60.40900	1016.00000
60.42740	1072.00000
60.44590	1151.00000
60.46430	1085.00000
60.48270	1162.00000
60.50120	1187.00000
60.51960	1260.00000
60.53810	1292.00000
60.55650	1307.00000
60.57490	1326.00000
60.59340	1406.00000
60.61180	1437.00000
60.63030	1493.00000
60.64870	1508.00000
60.66710	1465.00000
60.68560	1434.00000
60.70400	1454.00000
60.72250	1493.00000
60.74090	1517.00000
60.75930	1518.00000
60.77780	1459.00000
60.79620	1417.00000
60.81470	1453.00000
60.83310	1352.00000
60.85150	1285.00000
60.87000	1322.00000
60.88840	1281.00000
60.90680	1255.00000
60.92530	1306.00000
60.94370	1280.00000
60.96220	1289.00000
60.98060	1257.00000
60.99900	1260.00000
61.01750	1262.00000
61.03590	1307.00000
61.05440	1277.00000
61.07280	1397.00000
61.09120	1388.00000
61.10970	1382.00000
61.12810	1450.00000
61.14660	1453.00000
61.16500	1363.00000
61.18340	1349.00000
61.20190	1321.00000
61.22030	1305.00000
61.23880	1320.00000
61.25720	1304.00000
61.27560	1381.00000
61.29410	1283.00000
61.31250	1283.00000
61.33100	1221.00000
61.34940	1305.00000
61.36780	1213.00000
61.38630	1158.00000
61.40470	1156.00000
61.42320	1116.00000
61.44160	1159.00000
61.46000	1158.00000
61.47850	1045.00000
61.49690	1085.00000
61.51540	1112.00000
61.53380	1053.00000
61.55220	1144.00000
61.57070	1108.00000
61.58910	1060.00000
61.60760	1086.00000
61.62600	1111.00000
61.64440	1148.00000
61.66290	1093.00000
61.68130	1093.00000
61.69980	1124.00000
61.71820	1102.00000
61.73660	1005.00000
61.75510	1099.00000
61.77350	1113.00000
61.79190	1138.00000
61.81040	1159.00000
61.82880	1164.00000
61.84730	1182.00000
61.86570	1253.00000
61.88410	1332.00000
61.90260	1313.00000
61.92100	1342.00000
61.93950	1409.00000
61.95790	1499.00000
61.97630	1514.00000
61.99480	1492.00000
62.01320	1520.00000
62.03170	1455.00000
62.05010	1457.00000
62.06850	1358.00000
62.08700	1350.00000
62.10540	1396.00000
62.12390	1342.00000
62.14230	1340.00000
62.16070	1342.00000
62.17920	1281.00000
62.19760	1236.00000
62.21610	1253.00000
62.23450	1122.00000
62.25290	1134.00000
62.27140	1141.00000
62.28980	1118.00000
62.30830	1141.00000
62.32670	1136.00000
62.34510	1095.00000
62.36360	1115.00000
62.38200	1056.00000
62.40050	1080.00000
62.41890	1068.00000
62.43730	1125.00000
62.45580	1098.00000
62.47420	1083.00000
62.49270	1061.00000
62.51110	1034.00000
62.52950	1051.00000
62.54800	1008.00000
62.56640	996.00000
62.58490	1052.00000
62.60330	979.00000
62.62170	1006.00000
62.64020	1022.00000
62.65860	992.00000
62.67710	1017.00000
62.69550	957.00000
62.71390	964.00000
62.73240	904.00000
62.75080	966.00000
62.76920	997.00000
62.78770	1001.00000
62.80610	987.00000
62.82460	1004.00000
62.84300	987.00000
62.86140	921.00000
62.87990	992.00000
62.89830	1012.00000
62.91680	993.00000
62.93520	951.00000
62.95360	960.00000
62.97210	998.00000
62.99050	1007.00000
63.00900	947.00000
63.02740	938.00000
63.04580	934.00000
63.06430	972.00000
63.08270	975.00000
63.10120	978.00000
63.11960	997.00000
63.13800	971.00000
63.15650	998.00000
63.17490	982.00000
63.19340	979.00000
63.21180	971.00000
63.23020	1027.00000
63.24870	1007.00000
63.26710	1049.00000
63.28560	1101.00000
63.30400	1077.00000
63.32240	1137.00000
63.34090	1046.00000
63.35930	1080.00000
63.37780	1126.00000
63.39620	1183.00000
63.41460	1137.00000
63.43310	1129.00000
63.45150	1139.00000
63.47000	1129.00000
63.48840	1062.00000
63.50680	1107.00000
63.52530	1070.00000
63.54370	1127.00000
63.56220	1183.00000
63.58060	1155.00000
63.59900	1107.00000
63.61750	1059.00000
63.63590	1127.00000
63.65430	1130.00000
63.67280	1140.00000
63.69120	1143.00000
63.70970	1129.00000
63.72810	1154.00000
63.74650	1212.00000
63.76500	1151.00000
63.78340	1131.00000
63.80190	1068.00000
63.82030	1099.00000
63.83870	1141.00000
63.85720	1050.00000
63.87560	1119.00000
63.89410	1120.00000
63.91250	1142.00000
63.93090	1096.00000
63.94940	1174.00000
63.96780	1192.00000
63.98630	1158.00000
64.00470	1055.00000
64.02310	1076.00000
64.04160	1072.00000
64.06000	1059.00000
64.07850	1161.00000
64.09690	1122.00000
64.11530	1146.00000
64.13380	1174.00000
64.15220	1076.00000
64.17070	1158.00000
64.18910	1159.00000
64.20750	1144.00000
64.22600	1120.00000
64.24440	1137.00000
64.26290	1149.00000
64.28130	1113.00000
64.29970	1120.00000
64.31820	1156.00000
64.33660	1152.00000
64.35510	1127.00000
64.37350	1067.00000
64.39190	1015.00000
64.41040	1145.00000
64.42880	1086.00000
64.44730	1051.00000
64.46570	1080.00000
64.48410	1085.00000
64.50260	1101.00000
64.52100	1103.00000
64.53940	1079.00000
64.55790	1084.00000
64.57630	1149.00000
64.59480	1122.00000
64.61320	1123.00000
64.63160	1197.00000
64.65010	1144.00000
64.66850	1184.00000
64.68700	1205.00000
64.70540	1271.00000
64.72380	1365.00000
64.74230	1363.00000
64.76070	1381.00000
64.77920	1377.00000
64.79760	1463.00000
64.81600	1366.00000
64.83450	1468.00000
64.85290	1444.00000
64.87140	1544.00000
64.88980	1535.00000
64.90820	1557.00000
64.92670	1609.00000
64.94510	1508.00000
64.96360	1507.00000
64.98200	1451.00000
65.00040	1482.00000
65.01890	1341.00000
65.03730	1457.00000
65.05580	1336.00000
65.07420	1369.00000
65.09260	1374.00000
65.11110	1329.00000
65.12950	1332.00000
65.14800	1222.00000
65.16640	1324.00000
65.18480	1177.00000
65.20330	1222.00000
65.22170	1202.00000
65.24020	1169.00000
65.25860	1170.00000
65.27700	1154.00000
65.29550	1098.00000
65.31390	1192.00000
65.33240	1171.00000
65.35080	1100.00000
65.36920	1136.00000
65.38770	1191.00000
65.40610	1176.00000
65.42460	1142.00000
65.44300	1155.00000
65.46140	1149.00000
65.47990	1165.00000
65.49830	1162.00000
65.51670	1227.00000
65.53520	1227.00000
65.55360	1223.00000
65.57210	1200.00000
65.59050	1284.00000
65.60890	1271.00000
65.62740	1307.00000
65.64580	1338.00000
65.66430	1422.00000
65.68270	1328.00000
65.70110	1364.00000
65.71960	1331.00000
65.73800	1382.00000
65.75650	1376.00000
65.77490	1346.00000
65.79330	1429.00000
65.81180	1303.00000
65.83020	1414.00000
65.84870	1333.00000
65.86710	1354.00000
65.88550	1392.00000
65.90400	1446.00000
65.92240	1476.00000
65.94090	1498.00000
65.95930	1450.00000
65.97770	1497.00000
65.99620	1445.00000
66.01460	1444.00000
66.03310	1448.00000
66.05150	1396.00000
66.06990	1430.00000
66.08840	1369.00000
66.10680	1419.00000
66.12530	1350.00000
66.14370	1319.00000
66.16210	1344.00000
66.18060	1325.00000
66.19900	1338.00000
66.21750	1301.00000
66.23590	1304.00000
66.25430	1251.00000
66.27280	1294.00000
66.29120	1218.00000
66.30970	1228.00000
66.32810	1163.00000
66.34650	1125.00000
66.36500	1179.00000
66.38340	1139.00000
66.40180	1126.00000
66.42030	1041.00000
66.43870	1128.00000
66.45720	1028.00000
66.47560	1038.00000
66.49400	1097.00000
66.51250	1062.00000
66.53090	1069.00000
66.54940	1112.00000
66.56780	1109.00000
66.58620	1037.00000
66.60470	1103.00000
66.62310	1069.00000
66.64160	1018.00000
66.66000	1032.00000
66.67840	1088.00000
66.69690	1093.00000
66.71530	1076.00000
66.73380	1018.00000
66.75220	1086.00000
66.77060	1000.00000
66.78910	983.00000
66.80750	1001.00000
66.82600	1047.00000
66.84440	980.00000
66.86280	1037.00000
66.88130	998.00000
66.89970	994.00000
66.91820	988.00000
66.93660	977.00000
66.95500	959.00000
66.97350	1031.00000
66.99190	895.00000
67.01040	937.00000
67.02880	968.00000
67.04720	889.00000
67.06570	926.00000
67.08410	1000.00000
67.10260	979.00000
67.12100	986.00000
67.13940	943.00000
67.15790	949.00000
67.17630	937.00000
67.19480	950.00000
67.21320	923.00000
67.23160	991.00000
67.25010	881.00000
67.26850	947.00000
67.28700	1001.00000
67.30540	938.00000
67.32380	937.00000
67.34230	947.00000
67.36070	972.00000
67.37910	983.00000
67.39760	983.00000
67.41600	1023.00000
67.43450	1001.00000
67.45290	993.00000
67.47130	1023.00000
67.48980	1050.00000
67.50820	976.00000
67.52670	988.00000
67.54510	1042.00000
67.56350	1053.00000
67.58200	1028.00000
67.60040	1062.00000
67.61890	1065.00000
67.63730	996.00000
67.65570	1046.00000
67.67420	993.00000
67.69260	969.00000
67.71110	1061.00000
67.72950	1010.00000
67.74790	1069.00000
67.76640	1045.00000
67.78480	1017.00000
67.80330	1034.00000
67.82170	1030.00000
67.84010	1017.00000
67.85860	1036.00000
67.87700	1009.00000
67.89550	951.00000
67.91390	962.00000
67.93230	963.00000
67.95080	1007.00000
67.96920	1015.00000
67.98770	1025.00000
68.00610	978.00000
68.02450	952.00000
68.04300	879.00000
68.06140	961.00000
68.07990	966.00000
68.09830	986.00000
68.11670	984.00000
68.13520	1006.00000
68.15360	951.00000
68.17210	987.00000
68.19050	984.00000
68.20890	1000.00000
68.22740	1004.00000
68.24580	1029.00000
68.26420	946.00000
68.28270	1017.00000
68.30110	1046.00000
68.31960	980.00000
68.33800	1032.00000
68.35640	945.00000
68.37490	996.00000
68.39330	1005.00000
68.41180	1017.00000
68.43020	971.00000
68.44860	948.00000
68.46710	1052.00000
68.48550	974.00000
68.50400	1003.00000
68.52240	942.00000
68.54080	1024.00000
68.55930	967.00000
68.57770	980.00000
68.59620	986.00000
68.61460	990.00000
68.63300	938.00000
68.65150	960.00000
68.66990	1016.00000
68.68840	980.00000
68.70680	1006.00000
68.72520	1004.00000
68.74370	977.00000
68.76210	1013.00000
68.78060	957.00000
68.79900	931.00000
68.81740	945.00000
68.83590	1015.00000
68.85430	983.00000
68.87280	1015.00000
68.89120	959.00000
68.90960	997.00000
68.92810	935.00000
68.94650	969.00000
68.96500	977.00000
68.98340	986.00000
69.00180	1019.00000
69.02030	979.00000
69.03870	970.00000
69.05720	965.00000
69.07560	1030.00000
69.09400	922.00000
69.11250	973.00000
69.13090	1011.00000
69.14930	1016.00000
69.16780	997.00000
69.18620	1028.00000
69.20470	1018.00000
69.22310	1030.00000
69.24150	1019.00000
69.26000	978.00000
69.27840	948.00000
69.29690	986.00000
69.31530	1017.00000
69.33370	993.00000
69.35220	977.00000
69.37060	955.00000
69.38910	976.00000
69.40750	1006.00000
69.42590	957.00000
69.44440	998.00000
69.46280	951.00000
69.48130	929.00000
69.49970	994.00000
69.51810	965.00000
69.53660	974.00000
69.55500	983.00000
69.57350	941.00000
69.59190	973.00000
69.61030	940.00000
69.62880	1007.00000
69.64720	969.00000
69.66570	908.00000
69.68410	973.00000
69.70250	973.00000
69.72100	960.00000
69.73940	903.00000
69.75790	961.00000
69.77630	994.00000
69.79470	934.00000
69.81320	981.00000
69.83160	1011.00000
69.85010	982.00000
69.86850	1016.00000
69.88690	996.00000
69.90540	992.00000
69.92380	1069.00000
69.94230	1022.00000
69.96070	977.00000
69.97910	1050.00000
69.99760	1032.00000
70.01600	1035.00000
70.03450	1011.00000
70.05290	1028.00000
70.07130	1035.00000
70.08980	1085.00000
70.10820	1107.00000
70.12660	1119.00000
70.14510	1096.00000
70.16350	1065.00000
70.18200	1093.00000
70.20040	1183.00000
70.21880	1145.00000
70.23730	1157.00000
70.25570	1175.00000
70.27420	1157.00000
70.29260	1107.00000
70.31100	1078.00000
70.32950	1149.00000
70.34790	1192.00000
70.36640	1159.00000
70.38480	1226.00000
70.40320	1257.00000
70.42170	1217.00000
70.44010	1179.00000
70.45860	1152.00000
70.47700	1203.00000
70.49540	1124.00000
70.51390	1081.00000
70.53230	1120.00000
70.55080	1068.00000
70.56920	1087.00000
70.58760	1062.00000
70.60610	1142.00000
70.62450	1112.00000
70.64300	1011.00000
70.66140	1023.00000
70.67980	1006.00000
70.69830	1043.00000
70.71670	1045.00000
70.73520	1006.00000
70.75360	976.00000
70.77200	1027.00000
70.79050	1074.00000
70.80890	987.00000
70.82740	1008.00000
70.84580	916.00000
70.86420	954.00000
70.88270	931.00000
70.90110	974.00000
70.91960	989.00000
70.93800	956.00000
70.95640	1023.00000
70.97490	948.00000
70.99330	980.00000
71.01170	953.00000
71.03020	992.00000
71.04860	954.00000
71.06710	1056.00000
71.08550	1028.00000
71.10390	947.00000
71.12240	926.00000
71.14080	965.00000
71.15930	927.00000
71.17770	909.00000
71.19610	922.00000
71.21460	904.00000
71.23300	980.00000
71.25150	918.00000
71.26990	922.00000
71.28830	981.00000
71.30680	950.00000
71.32520	987.00000
71.34370	904.00000
71.36210	958.00000
71.38050	957.00000
71.39900	968.00000
71.41740	894.00000
71.43590	984.00000
71.45430	986.00000
71.47270	940.00000
71.49120	982.00000
71.50960	925.00000
71.52810	943.00000
71.54650	944.00000
71.56490	939.00000
71.58340	967.00000
71.60180	956.00000
71.62030	958.00000
71.63870	942.00000
71.65710	934.00000
71.67560	925.00000
71.69400	928.00000
71.71250	920.00000
71.73090	979.00000
71.74930	986.00000
71.76780	943.00000
71.78620	907.00000
71.80470	997.00000
71.82310	927.00000
71.84150	923.00000
71.86000	1004.00000
71.87840	960.00000
71.89690	1009.00000
71.91530	1001.00000
71.93370	1061.00000
71.95220	992.00000
71.97060	1040.00000
71.98900	989.00000
72.00750	983.00000
72.02590	959.00000
72.04440	1021.00000
72.06280	1006.00000
72.08120	1011.00000
72.09970	1010.00000
72.11810	1003.00000
72.13660	1027.00000
72.15500	1030.00000
72.17340	1016.00000
72.19190	987.00000
72.21030	1038.00000
72.22880	1014.00000
72.24720	1017.00000
72.26560	978.00000
72.28410	991.00000
72.30250	1020.00000
72.32100	1025.00000
72.33940	997.00000
72.35780	1001.00000
72.37630	1018.00000
72.39470	981.00000
72.41320	955.00000
72.43160	975.00000
72.45000	997.00000
72.46850	963.00000
72.48690	946.00000
72.50540	944.00000
72.52380	967.00000
72.54220	992.00000
72.56070	927.00000
72.57910	925.00000
72.59760	1000.00000
72.61600	1012.00000
72.63440	933.00000
72.65290	972.00000
72.67130	967.00000
72.68980	999.00000
72.70820	976.00000
72.72660	982.00000
72.74510	919.00000
72.76350	942.00000
72.78200	953.00000
72.80040	938.00000
72.81880	933.00000
72.83730	957.00000
72.85570	940.00000
72.87410	986.00000
72.89260	977.00000
72.91100	941.00000
72.92950	977.00000
72.94790	990.00000
72.96630	990.00000
72.98480	940.00000
73.00320	912.00000
73.02170	964.00000
73.04010	944.00000
73.05850	877.00000
73.07700	989.00000
73.09540	890.00000
73.11390	858.00000
73.13230	924.00000
73.15070	952.00000
73.16920	927.00000
73.18760	945.00000
73.20610	925.00000
73.22450	968.00000
73.24290	910.00000
73.26140	915.00000
73.27980	952.00000
73.29830	911.00000
73.31670	909.00000
73.33510	913.00000
73.35360	933.00000
73.37200	965.00000
73.39050	888.00000
73.40890	912.00000
73.42730	890.00000
73.44580	888.00000
73.46420	928.00000
73.48270	891.00000
73.50110	893.00000
73.51950	937.00000
73.53800	914.00000
73.55640	891.00000
73.57490	943.00000
73.59330	964.00000
73.61170	913.00000
73.63020	991.00000
73.64860	961.00000
73.66710	969.00000
73.68550	1012.00000
73.70390	1070.00000
73.72240	1056.00000
73.74080	1089.00000
73.75920	1043.00000
73.77770	1011.00000
73.79610	983.00000
73.81460	958.00000
73.83300	1072.00000
73.85140	1046.00000
73.86990	1046.00000
73.88830	1037.00000
73.90680	991.00000
73.92520	1088.00000
73.94360	1022.00000
73.96210	1005.00000
73.98050	1008.00000
73.99900	980.00000
74.01740	1062.00000
74.03580	1014.00000
74.05430	1023.00000
74.07270	1123.00000
74.09120	1006.00000
74.10960	1029.00000
74.12800	1013.00000
74.14650	1046.00000
74.16490	1026.00000
74.18340	1064.00000
74.20180	1036.00000
74.22020	1087.00000
74.23870	1078.00000
74.25710	1036.00000
74.27560	1065.00000
74.29400	1110.00000
74.31240	1031.00000
74.33090	1067.00000
74.34930	1028.00000
74.36780	1051.00000
74.38620	1113.00000
74.40460	1113.00000
74.42310	1080.00000
74.44150	1015.00000
74.46000	1019.00000
74.47840	1035.00000
74.49680	1039.00000
74.51530	1016.00000
74.53370	1040.00000
74.55220	996.00000
74.57060	1011.00000
74.58900	995.00000
74.60750	1081.00000
74.62590	1081.00000
74.64440	997.00000
74.66280	1082.00000
74.68120	1119.00000
74.69970	1076.00000
74.71810	1066.00000
74.73650	1094.00000
74.75500	1073.00000
74.77340	1042.00000
74.79190	1064.00000
74.81030	1033.00000
74.82870	1011.00000
74.84720	976.00000
74.86560	1007.00000
74.88410	1065.00000
74.90250	1070.00000
74.92090	1031.00000
74.93940	1030.00000
74.95780	969.00000
74.97630	998.00000
74.99470	949.00000
75.01310	969.00000
75.03160	980.00000
75.05000	981.00000
