2.60250	3748.01000
2.61090	3779.49000
2.61930	3770.92000
2.62770	3763.18000
2.63610	3794.52000
2.64450	3778.15000
2.65290	3801.58000
2.66130	3805.87000
2.66970	3792.45000
2.67810	3823.32000
2.68650	3832.33000
2.69490	3826.02000
2.70330	3865.52000
2.71170	3849.66000
2.72010	3861.09000
2.72850	3902.57000
2.73690	3889.93000
2.74530	3910.52000
2.75370	3934.05000
2.76210	3941.75000
2.77050	3956.59000
2.77890	3951.18000
2.78730	3966.82000
2.79570	3990.61000
2.80410	3993.31000
2.81250	4004.30000
2.82090	4047.36000
2.82930	4037.94000
2.83770	4084.90000
2.84610	4093.88000
2.85450	4115.33000
2.86290	4156.40000
2.87130	4178.17000
2.87970	4224.48000
2.88810	4285.91000
2.89650	4297.60000
2.90490	4368.67000
2.91330	4421.18000
2.92170	4455.77000
2.93010	4529.55000
2.93850	4590.97000
2.94690	4684.23000
2.95530	4773.33000
2.96370	4838.19000
2.97210	4949.19000
2.98050	5083.04000
2.98890	5171.71000
2.99730	5338.64000
3.00570	5470.59000
3.01410	5645.67000
3.02250	5879.73000
3.03090	6077.74000
3.03930	6312.31000
3.04770	6641.05000
3.05610	6979.16000
3.06450	7334.24000
3.07290	7857.15000
3.08130	8336.33000
3.08970	9030.79000
3.09810	9823.95000
3.10650	10813.30000
3.11490	11985.60000
3.12330	13520.00000
3.13170	15484.40000
3.14010	18000.50000
3.14850	21787.20000
3.15690	26845.30000
3.16530	34025.30000
3.17370	44757.20000
3.18210	59223.30000
3.19050	79000.10000
3.19890	105325.00000
3.20730	137071.00000
3.21570	167248.00000
3.22410	198794.00000
3.23250	213906.00000
3.24090	213104.00000
3.24930	195659.00000
3.25770	171128.00000
3.26610	141139.00000
3.27450	113622.00000
3.28290	85815.70000
3.29130	69539.90000
3.29970	52724.10000
3.30810	41039.50000
3.31650	33104.30000
3.32490	26546.20000
3.33330	21754.10000
3.34170	18357.00000
3.35010	15309.30000
3.35850	13286.20000
3.36690	11554.60000
3.37530	10251.50000
3.38370	9158.25000
3.39210	8387.03000
3.40050	7587.94000
3.40890	7041.36000
3.41730	6534.50000
3.42570	6141.28000
3.43410	5796.07000
3.44250	5501.62000
3.45090	5245.92000
3.45930	4998.19000
3.46770	4792.91000
3.47610	4618.79000
3.48450	4450.00000
3.49290	4305.45000
3.50130	4178.13000
3.50970	4045.87000
3.51810	3947.46000
3.52650	3852.10000
3.53490	3743.37000
3.54330	3666.74000
3.55170	3608.85000
3.56010	3511.15000
3.56850	3456.47000
3.57690	3395.14000
3.58530	3321.45000
3.59370	3291.76000
3.60210	3246.41000
3.61050	3169.91000
3.61890	3157.37000
3.62730	3081.40000
3.63570	3067.43000
3.64410	3035.85000
3.65250	2990.91000
3.66090	2979.95000
3.66930	2937.02000
3.67770	2904.62000
3.68610	2889.59000
3.69450	2850.27000
3.70290	2829.52000
3.71130	2804.25000
3.71970	2774.64000
3.72810	2767.10000
3.73650	2749.53000
3.74490	2711.49000
3.75330	2704.99000
3.76170	2679.83000
3.77010	2670.52000
3.77850	2662.00000
3.78690	2628.23000
3.79530	2622.77000
3.80370	2600.73000
3.81210	2589.41000
3.82050	2578.41000
3.82890	2560.50000
3.83730	2538.84000
3.84570	2541.17000
3.85410	2518.79000
3.86250	2508.69000
3.87090	2508.68000
3.87930	2485.70000
3.88770	2489.03000
3.89610	2472.02000
3.90450	2454.94000
3.91290	2457.81000
3.92130	2443.30000
3.92970	2427.69000
3.93810	2434.14000
3.94650	2418.58000
3.95490	2415.80000
3.96330	2398.08000
3.97170	2387.32000
3.98010	2393.90000
3.98850	2373.82000
3.99690	2365.79000
4.00530	2365.76000
4.01370	2357.00000
4.02210	2368.18000
4.03050	2344.33000
4.03890	2337.92000
4.04730	2337.37000
4.05570	2334.28000
4.06410	2329.97000
4.07250	2311.92000
4.08090	2309.75000
4.08930	2311.10000
4.09770	2314.51000
4.10610	2296.32000
4.11450	2304.71000
4.12290	2289.92000
4.13130	2286.03000
4.13970	2286.31000
4.14810	2287.32000
4.15650	2275.83000
4.16490	2279.56000
4.17330	2269.33000
4.18170	2267.30000
4.19010	2270.76000
4.19850	2251.14000
4.20690	2248.51000
4.21530	2248.22000
4.22370	2239.82000
4.23210	2242.70000
4.24050	2240.75000
4.24890	2231.66000
4.25730	2238.94000
4.26570	2225.94000
4.27410	2229.59000
4.28250	2232.91000
4.29090	2211.74000
4.29930	2224.61000
4.30770	2207.96000
4.31610	2204.71000
4.32450	2219.55000
4.33290	2204.45000
4.34130	2207.83000
4.34970	2209.76000
4.35810	2201.05000
4.36650	2208.46000
4.37490	2212.23000
4.38330	2196.19000
4.39170	2201.93000
4.40010	2194.62000
4.40850	2191.34000
4.41690	2207.58000
4.42530	2182.26000
4.43370	2185.55000
4.44210	2179.39000
4.45050	2180.30000
4.45890	2191.67000
4.46730	2177.42000
4.47570	2180.75000
4.48410	2183.99000
4.49250	2171.69000
4.50090	2173.67000
4.50930	2173.90000
4.51770	2167.77000
4.52610	2170.62000
4.53450	2168.30000
4.54290	2165.28000
4.55130	2170.94000
4.55970	2161.83000
4.56810	2167.79000
4.57650	2170.92000
4.58490	2158.40000
4.59330	2164.52000
4.60170	2161.27000
4.61010	2152.79000
4.61850	2163.82000
4.62690	2151.17000
4.63530	2154.35000
4.64370	2172.52000
4.65210	2156.88000
4.66050	2158.41000
4.66890	2156.67000
4.67730	2163.17000
4.68570	2163.74000
4.69410	2149.53000
4.70250	2159.65000
4.71090	2162.40000
4.71930	2155.39000
4.72770	2160.28000
4.73610	2156.52000
4.74450	2153.92000
4.75290	2156.90000
4.76130	2151.67000
4.76970	2161.03000
4.77810	2177.45000
4.78650	2165.59000
4.79490	2157.39000
4.80330	2169.86000
4.81170	2151.43000
4.82010	2170.26000
4.82850	2168.72000
4.83690	2156.61000
4.84530	2167.91000
4.85370	2171.81000
4.86210	2171.09000
4.87050	2180.32000
4.87890	2178.25000
4.88730	2180.18000
4.89570	2180.94000
4.90410	2180.54000
4.91250	2196.87000
4.92090	2181.21000
4.92930	2187.74000
4.93770	2205.53000
4.94610	2192.38000
4.95450	2198.71000
4.96290	2210.36000
4.97130	2189.65000
4.97970	2214.15000
4.98810	2218.07000
4.99650	2221.19000
5.00490	2224.84000
5.01330	2212.93000
5.02170	2234.54000
5.03010	2237.90000
5.03850	2234.41000
5.04690	2244.48000
5.05530	2253.37000
5.06370	2247.35000
5.07210	2258.84000
5.08050	2260.30000
5.08890	2263.49000
5.09730	2277.15000
5.10570	2290.80000
5.11410	2298.89000
5.12250	2323.80000
5.13090	2306.38000
5.13930	2335.75000
5.14770	2331.13000
5.15610	2338.63000
5.16450	2364.15000
5.17290	2369.33000
5.18130	2384.14000
5.18970	2405.03000
5.19810	2404.78000
5.20650	2426.61000
5.21490	2439.67000
5.22330	2466.74000
5.23170	2474.52000
5.24010	2493.36000
5.24850	2523.14000
5.25690	2552.67000
5.26530	2570.53000
5.27370	2607.92000
5.28210	2631.85000
5.29050	2666.51000
5.29890	2703.39000
5.30730	2734.58000
5.31570	2782.88000
5.32410	2835.50000
5.33250	2882.01000
5.34090	2938.74000
5.34930	3004.74000
5.35770	3070.03000
5.36610	3155.31000
5.37450	3227.44000
5.38290	3308.23000
5.39130	3439.14000
5.39970	3551.16000
5.40810	3692.35000
5.41650	3857.60000
5.42490	4012.96000
5.43330	4227.75000
5.44170	4473.69000
5.45010	4761.25000
5.45850	5098.47000
5.46690	5515.68000
5.47530	6005.54000
5.48370	6583.78000
5.49210	7344.67000
5.50050	8291.45000
5.50890	9494.72000
5.51730	11120.10000
5.52570	12942.90000
5.53410	15853.50000
5.54250	19280.90000
5.55090	23521.60000
5.55930	29781.70000
5.56770	36100.00000
5.57610	43073.90000
5.58450	51309.20000
5.59290	57486.90000
5.60130	61604.90000
5.60970	62385.90000
5.61810	60223.40000
5.62650	55163.40000
5.63490	48205.00000
5.64330	41422.70000
5.65170	34521.20000
5.66010	28752.20000
5.66850	23701.10000
5.67690	19859.00000
5.68530	16477.80000
5.69370	13936.80000
5.70210	11919.70000
5.71050	10296.70000
5.71890	8993.98000
5.72730	7921.93000
5.73570	7036.10000
5.74410	6331.67000
5.75250	5776.39000
5.76090	5265.83000
5.76930	4892.01000
5.77770	4550.06000
5.78610	4242.72000
5.79450	4016.48000
5.80290	3810.14000
5.81130	3605.81000
5.81970	3476.94000
5.82810	3333.07000
5.83650	3203.25000
5.84490	3113.98000
5.85330	3005.94000
5.86170	2930.23000
5.87010	2861.26000
5.87850	2783.40000
5.88690	2735.70000
5.89530	2676.32000
5.90370	2615.80000
5.91210	2587.87000
5.92050	2542.56000
5.92890	2489.74000
5.93730	2470.64000
5.94570	2437.66000
5.95410	2411.12000
5.96250	2375.92000
5.97090	2355.47000
5.97930	2329.57000
5.98770	2297.06000
5.99610	2289.86000
6.00450	2270.65000
6.01290	2250.67000
6.02130	2241.28000
6.02970	2226.14000
6.03810	2210.51000
6.04650	2206.22000
6.05490	2181.24000
6.06330	2185.27000
6.07170	2175.03000
6.08010	2154.25000
6.08850	2141.64000
6.09690	2137.81000
6.10530	2124.10000
6.11370	2117.41000
6.12210	2116.26000
6.13050	2106.93000
6.13890	2100.18000
6.14730	2091.40000
6.15570	2092.52000
6.16410	2093.68000
6.17250	2085.12000
6.18090	2084.42000
6.18930	2072.62000
6.19770	2061.85000
6.20610	2068.29000
6.21450	2064.36000
6.22290	2068.53000
6.23130	2071.16000
6.23970	2048.20000
6.24810	2064.07000
6.25650	2056.18000
6.26490	2050.14000
6.27330	2059.90000
6.28170	2045.66000
6.29010	2058.48000
6.29850	2054.38000
6.30690	2050.14000
6.31530	2056.12000
6.32370	2064.94000
6.33210	2056.65000
6.34050	2073.42000
6.34890	2076.38000
6.35730	2069.67000
6.36570	2095.41000
6.37410	2106.25000
6.38250	2138.32000
6.39090	2163.41000
6.39930	2205.30000
6.40770	2273.25000
6.41610	2346.42000
6.42450	2442.13000
6.43290	2546.33000
6.44130	2612.95000
6.44970	2656.01000
6.45810	2644.41000
6.46650	2578.50000
6.47490	2505.08000
6.48330	2408.66000
6.49170	2324.68000
6.50010	2260.35000
6.50850	2191.58000
6.51690	2158.11000
6.52530	2101.00000
6.53370	2064.85000
6.54210	2047.70000
6.55050	2019.09000
6.55890	1999.90000
6.56730	2000.27000
6.57570	1981.12000
6.58410	1983.07000
6.59250	1972.78000
6.60090	1958.99000
6.60930	1965.11000
6.61770	1950.93000
6.62610	1950.35000
6.63450	1957.36000
6.64290	1938.08000
6.65130	1931.01000
6.65970	1949.50000
6.66810	1921.21000
6.67650	1931.17000
6.68490	1931.48000
6.69330	1922.32000
6.70170	1921.03000
6.71010	1916.91000
6.71850	1919.17000
6.72690	1921.29000
6.73530	1905.85000
6.74370	1913.02000
6.75210	1913.69000
6.76050	1916.45000
6.76890	1915.24000
6.77730	1911.41000
6.78570	1917.35000
6.79410	1915.31000
6.80250	1901.00000
6.81090	1906.94000
6.81930	1912.63000
6.82770	1901.16000
6.83610	1921.54000
6.84450	1905.92000
6.85290	1903.65000
6.86130	1913.26000
6.86970	1901.76000
6.87810	1911.18000
6.88650	1912.70000
6.89490	1904.12000
6.90330	1909.47000
6.91170	1912.37000
6.92010	1902.08000
6.92850	1906.60000
6.93690	1898.35000
6.94530	1904.86000
6.95370	1901.22000
6.96210	1904.17000
6.97050	1905.29000
6.97890	1904.36000
6.98730	1904.14000
6.99570	1919.82000
7.00410	1904.35000
7.01250	1912.91000
7.02090	1912.34000
7.02930	1913.69000
7.03770	1915.78000
7.04610	1918.87000
7.05450	1909.54000
7.06290	1927.70000
7.07130	1926.76000
7.07970	1938.63000
7.08810	1935.18000
7.09650	1937.47000
7.10490	1961.25000
7.11330	1962.42000
7.12170	1976.48000
7.13010	1997.63000
7.13850	2037.40000
7.14690	2080.64000
7.15530	2140.59000
7.16370	2208.76000
7.17210	2331.69000
7.18050	2471.84000
7.18890	2626.94000
7.19730	2796.76000
7.20570	2922.64000
7.21410	2978.98000
7.22250	2978.87000
7.23090	2877.80000
7.23930	2733.51000
7.24770	2596.88000
7.25610	2444.60000
7.26450	2328.79000
7.27290	2225.00000
7.28130	2159.66000
7.28970	2092.52000
7.29810	2056.97000
7.30650	2021.35000
7.31490	2005.76000
7.32330	1979.06000
7.33170	1975.50000
7.34010	1960.31000
7.34850	1957.75000
7.35690	1955.12000
7.36530	1938.68000
7.37370	1950.10000
7.38210	1937.39000
7.39050	1939.21000
7.39890	1940.45000
7.40730	1930.71000
7.41570	1930.48000
7.42410	1934.45000
7.43250	1929.22000
7.44090	1941.65000
7.44930	1933.57000
7.45770	1934.13000
7.46610	1937.26000
7.47450	1934.76000
7.48290	1936.71000
7.49130	1945.66000
7.49970	1936.52000
7.50810	1936.45000
7.51650	1946.13000
7.52490	1939.94000
7.53330	1951.53000
7.54170	1949.63000
7.55010	1946.22000
7.55850	1952.42000
7.56690	1950.68000
7.57530	1952.93000
7.58370	1968.80000
7.59210	1952.13000
7.60050	1979.55000
7.60890	1972.42000
7.61730	1970.27000
7.62570	1979.20000
7.63410	1986.93000
7.64250	1986.45000
7.65090	1992.37000
7.65930	1996.98000
7.66770	2006.23000
7.67610	2011.89000
7.68450	2000.80000
7.69290	2031.99000
7.70130	2025.97000
7.70970	2042.94000
7.71810	2054.93000
7.72650	2070.50000
7.73490	2084.42000
7.74330	2102.20000
7.75170	2107.24000
7.76010	2153.10000
7.76850	2163.52000
7.77690	2199.94000
7.78530	2246.68000
7.79370	2286.44000
7.80210	2350.44000
7.81050	2421.16000
7.81890	2520.27000
7.82730	2665.54000
7.83570	2862.09000
7.84410	3135.93000
7.85250	3506.90000
7.86090	4075.34000
7.86930	4789.43000
7.87770	5674.49000
7.88610	6757.86000
7.89450	7792.74000
7.90290	8640.17000
7.91130	8978.58000
7.91970	8827.95000
7.92810	8212.83000
7.93650	7245.05000
7.94490	6351.19000
7.95330	5318.06000
7.96170	4575.93000
7.97010	3948.67000
7.97850	3478.10000
7.98690	3142.95000
7.99530	2881.23000
8.00370	2695.22000
8.01210	2560.89000
8.02050	2440.32000
8.02890	2376.23000
8.03730	2304.10000
8.04570	2259.65000
8.05410	2224.26000
8.06250	2193.97000
8.07090	2174.20000
8.07930	2150.13000
8.08770	2125.65000
8.09610	2127.05000
8.10450	2105.62000
8.11290	2099.90000
8.12130	2102.78000
8.12970	2077.73000
8.13810	2096.34000
8.14650	2079.09000
8.15490	2073.60000
8.16330	2082.06000
8.17170	2076.08000
8.18010	2075.76000
8.18850	2083.27000
8.19690	2069.23000
8.20530	2076.73000
8.21370	2086.30000
8.22210	2077.65000
8.23050	2089.44000
8.23890	2088.62000
8.24730	2090.50000
8.25570	2101.98000
8.26410	2104.10000
8.27250	2113.23000
8.28090	2118.78000
8.28930	2128.36000
8.29770	2154.02000
8.30610	2152.68000
8.31450	2178.92000
8.32290	2192.63000
8.33130	2206.95000
8.33970	2224.98000
8.34810	2256.97000
8.35650	2270.97000
8.36490	2313.61000
8.37330	2340.84000
8.38170	2390.36000
8.39010	2439.24000
8.39850	2489.17000
8.40690	2559.56000
8.41530	2639.72000
8.42370	2726.24000
8.43210	2850.61000
8.44050	2974.58000
8.44890	3127.44000
8.45730	3319.11000
8.46570	3553.45000
8.47410	3849.87000
8.48250	4165.85000
8.49090	4637.21000
8.49930	5099.21000
8.50770	5791.28000
8.51610	6456.54000
8.52450	7363.22000
8.53290	8264.62000
8.54130	9239.08000
8.54970	10170.00000
8.55810	10906.80000
8.56650	11426.60000
8.57490	11518.80000
8.58330	11274.90000
8.59170	10738.90000
8.60010	9918.83000
8.60850	9075.11000
8.61690	8168.43000
8.62530	7360.13000
8.63370	6569.09000
8.64210	5936.20000
8.65050	5349.42000
8.65890	4909.62000
8.66730	4484.72000
8.67570	4155.83000
8.68410	3876.98000
8.69250	3625.42000
8.70090	3420.02000
8.70930	3238.49000
8.71770	3085.00000
8.72610	2972.60000
8.73450	2850.29000
8.74290	2759.54000
8.75130	2678.09000
8.75970	2603.88000
8.76810	2544.17000
8.77650	2489.07000
8.78490	2437.17000
8.79330	2400.38000
8.80170	2353.57000
8.81010	2325.23000
8.81850	2299.18000
8.82690	2253.59000
8.83530	2238.36000
8.84370	2213.82000
8.85210	2183.24000
8.86050	2171.70000
8.86890	2153.75000
8.87730	2139.89000
8.88570	2124.89000
8.89410	2102.10000
8.90250	2099.18000
8.91090	2078.26000
8.91930	2071.55000
8.92770	2067.00000
8.93610	2054.29000
8.94450	2055.30000
8.95290	2045.04000
8.96130	2030.31000
8.96970	2033.95000
8.97810	2025.08000
8.98650	2015.65000
8.99490	2020.73000
9.00330	2009.68000
9.01170	2017.97000
9.02010	2003.42000
9.02850	2003.60000
9.03690	2014.81000
9.04530	2012.35000
9.05370	2020.30000
9.06210	2020.56000
9.07050	2029.17000
9.07890	2044.65000
9.08730	2061.76000
9.09570	2078.35000
9.10410	2114.90000
9.11250	2142.84000
9.12090	2169.22000
9.12930	2195.20000
9.13770	2206.33000
9.14610	2212.98000
9.15450	2200.85000
9.16290	2163.20000
9.17130	2142.05000
9.17970	2103.25000
9.18810	2078.74000
9.19650	2045.88000
9.20490	2008.46000
9.21330	1997.48000
9.22170	1973.84000
9.23010	1958.68000
9.23850	1945.82000
9.24690	1929.96000
9.25530	1930.49000
9.26370	1918.55000
9.27210	1898.81000
9.28050	1899.41000
9.28890	1899.15000
9.29730	1885.90000
9.30570	1888.17000
9.31410	1882.51000
9.32250	1882.05000
9.33090	1869.72000
9.33930	1866.22000
9.34770	1865.53000
9.35610	1871.19000
9.36450	1866.22000
9.37290	1868.26000
9.38130	1859.59000
9.38970	1873.10000
9.39810	1860.93000
9.40650	1854.36000
9.41490	1856.70000
9.42330	1850.82000
9.43170	1850.92000
9.44010	1850.01000
9.44850	1848.77000
9.45690	1849.44000
9.46530	1852.08000
9.47370	1839.28000
9.48210	1852.79000
9.49050	1842.94000
9.49890	1857.46000
9.50730	1857.81000
9.51570	1849.93000
9.52410	1856.28000
9.53250	1864.27000
9.54090	1857.78000
9.54930	1871.84000
9.55770	1877.63000
9.56610	1882.50000
9.57450	1893.63000
9.58290	1896.62000
9.59130	1916.27000
9.59970	1927.31000
9.60810	1936.92000
9.61650	1969.98000
9.62490	1993.98000
9.63330	2019.40000
9.64170	2073.36000
9.65010	2129.27000
9.65850	2211.46000
9.66690	2302.39000
9.67530	2406.24000
9.68370	2508.96000
9.69210	2614.22000
9.70050	2689.78000
9.70890	2713.93000
9.71730	2693.52000
9.72570	2639.37000
9.73410	2556.42000
9.74250	2471.47000
9.75090	2357.32000
9.75930	2262.31000
9.76770	2190.12000
9.77610	2121.08000
9.78450	2056.04000
9.79290	2010.06000
9.80130	1968.07000
9.80970	1931.26000
9.81810	1913.12000
9.82650	1889.21000
9.83490	1868.71000
9.84330	1863.25000
9.85170	1839.33000
9.86010	1836.18000
9.86850	1833.39000
9.87690	1824.95000
9.88530	1813.53000
9.89370	1814.49000
9.90210	1820.43000
9.91050	1804.30000
9.91890	1809.44000
9.92730	1806.27000
9.93570	1805.01000
9.94410	1815.35000
9.95250	1805.45000
9.96090	1813.20000
9.96930	1822.00000
9.97770	1818.24000
9.98610	1828.02000
9.99450	1832.31000
10.00290	1842.81000
10.01130	1845.79000
10.01970	1865.14000
10.02810	1868.37000
10.03650	1880.53000
10.04490	1904.93000
10.05330	1920.61000
10.06170	1932.79000
10.07010	1955.39000
10.07850	1992.95000
10.08690	2028.90000
10.09530	2078.43000
10.10370	2129.54000
10.11210	2204.48000
10.12050	2272.63000
10.12890	2388.51000
10.13730	2507.22000
10.14570	2693.18000
10.15410	2910.72000
10.16250	3223.31000
10.17090	3583.76000
10.17930	4083.93000
10.18770	4640.36000
10.19610	5321.76000
10.20450	6061.68000
10.21290	6754.60000
10.22130	7361.80000
10.22970	7678.54000
10.23810	7723.88000
10.24650	7464.83000
10.25490	7000.63000
10.26330	6406.68000
10.27170	5700.32000
10.28010	5125.61000
10.28850	4530.30000
10.29690	4066.06000
10.30530	3662.20000
10.31370	3326.94000
10.32210	3047.38000
10.33050	2837.10000
10.33890	2657.57000
10.34730	2509.47000
10.35570	2394.07000
10.36410	2285.58000
10.37250	2217.20000
10.38090	2135.96000
10.38930	2081.37000
10.39770	2035.30000
10.40610	1988.89000
10.41450	1955.02000
10.42290	1919.80000
10.43130	1889.86000
10.43970	1868.91000
10.44810	1853.79000
10.45650	1828.45000
10.46490	1815.27000
10.47330	1795.34000
10.48170	1781.15000
10.49010	1775.05000
10.49850	1758.87000
10.50690	1757.58000
10.51530	1741.15000
10.52370	1745.11000
10.53210	1726.48000
10.54050	1723.16000
10.54890	1716.47000
10.55730	1707.97000
10.56570	1705.93000
10.57410	1708.71000
10.58250	1697.37000
10.59090	1694.44000
10.59930	1691.34000
10.60770	1687.45000
10.61610	1690.29000
10.62450	1681.92000
10.63290	1677.52000
10.64130	1669.95000
10.64970	1673.34000
10.65810	1666.83000
10.66650	1665.62000
10.67490	1665.45000
10.68330	1664.05000
10.69170	1661.47000
10.70010	1656.66000
10.70850	1655.81000
10.71690	1651.71000
10.72530	1652.49000
10.73370	1655.59000
10.74210	1653.21000
10.75050	1654.55000
10.75890	1650.55000
10.76730	1652.60000
10.77570	1647.34000
10.78410	1647.26000
10.79250	1641.22000
10.80090	1643.20000
10.80930	1651.67000
10.81770	1651.33000
10.82610	1642.94000
10.83450	1647.61000
10.84290	1643.82000
10.85130	1650.07000
10.85970	1649.25000
10.86810	1649.13000
10.87650	1659.30000
10.88490	1657.04000
10.89330	1654.35000
10.90170	1665.83000
10.91010	1667.41000
10.91850	1668.20000
10.92690	1677.15000
10.93530	1673.44000
10.94370	1683.37000
10.95210	1685.49000
10.96050	1697.99000
10.96890	1707.28000
10.97730	1703.98000
10.98570	1717.75000
10.99410	1730.39000
11.00250	1740.62000
11.01090	1757.28000
11.01930	1770.91000
11.02770	1780.43000
11.03610	1802.83000
11.04450	1828.57000
11.05290	1857.48000
11.06130	1883.58000
11.06970	1916.39000
11.07810	1962.00000
11.08650	2008.63000
11.09490	2062.28000
11.10330	2127.75000
11.11170	2203.76000
11.12010	2292.55000
11.12850	2410.92000
11.13690	2509.36000
11.14530	2661.44000
11.15370	2817.47000
11.16210	3017.83000
11.17050	3226.65000
11.17890	3479.76000
11.18730	3715.76000
11.19570	3974.69000
11.20410	4199.23000
11.21250	4386.63000
11.22090	4531.31000
11.22930	4558.77000
11.23770	4516.40000
11.24610	4391.27000
11.25450	4201.32000
11.26290	3978.16000
11.27130	3749.08000
11.27970	3516.81000
11.28810	3270.35000
11.29650	3074.31000
11.30490	2895.52000
11.31330	2741.90000
11.32170	2609.41000
11.33010	2479.04000
11.33850	2376.86000
11.34690	2293.45000
11.35530	2215.09000
11.36370	2149.02000
11.37210	2094.52000
11.38050	2044.73000
11.38890	2002.29000
11.39730	1972.71000
11.40570	1945.20000
11.41410	1916.44000
11.42250	1894.40000
11.43090	1881.15000
11.43930	1863.21000
11.44770	1852.06000
11.45610	1852.64000
11.46450	1839.46000
11.47290	1849.10000
11.48130	1849.01000
11.48970	1848.00000
11.49810	1862.61000
11.50650	1873.05000
11.51490	1900.84000
11.52330	1924.57000
11.53170	1946.83000
11.54010	1988.32000
11.54850	2033.60000
11.55690	2077.79000
11.56530	2154.91000
11.57370	2242.81000
11.58210	2338.58000
11.59050	2453.20000
11.59890	2577.84000
11.60730	2744.64000
11.61570	2934.12000
11.62410	3143.66000
11.63250	3383.15000
11.64090	3669.76000
11.64930	3900.88000
11.65770	4179.29000
11.66610	4351.80000
11.67450	4502.92000
11.68290	4544.21000
11.69130	4498.23000
11.69970	4363.41000
11.70810	4181.53000
11.71650	3960.19000
11.72490	3708.12000
11.73330	3478.06000
11.74170	3261.00000
11.75010	3040.56000
11.75850	2879.82000
11.76690	2709.43000
11.77530	2579.07000
11.78370	2457.35000
11.79210	2361.54000
11.80050	2273.48000
11.80890	2193.05000
11.81730	2128.94000
11.82570	2080.20000
11.83410	2025.19000
11.84250	1995.91000
11.85090	1960.06000
11.85930	1932.09000
11.86770	1911.60000
11.87610	1895.08000
11.88450	1872.65000
11.89290	1868.82000
11.90130	1851.70000
11.90970	1858.04000
11.91810	1863.71000
11.92650	1859.24000
11.93490	1874.15000
11.94330	1893.17000
11.95170	1901.24000
11.96010	1928.97000
11.96850	1967.91000
11.97690	1993.62000
11.98530	2060.63000
11.99370	2108.13000
12.00210	2204.42000
12.01050	2297.29000
12.01890	2401.77000
12.02730	2572.94000
12.03570	2729.12000
12.04410	3006.16000
12.05250	3316.10000
12.06090	3685.45000
12.06930	4132.51000
12.07770	4698.33000
12.08610	5245.65000
12.09450	5905.79000
12.10290	6487.69000
12.11130	6886.23000
12.11970	7138.30000
12.12810	7084.53000
12.13650	6795.74000
12.14490	6403.61000
12.15330	5839.56000
12.16170	5244.10000
12.17010	4686.15000
12.17850	4206.26000
12.18690	3747.47000
12.19530	3410.52000
12.20370	3117.20000
12.21210	2852.83000
12.22050	2652.84000
12.22890	2465.21000
12.23730	2335.37000
12.24570	2212.01000
12.25410	2113.65000
12.26250	2033.29000
12.27090	1955.76000
12.27930	1899.31000
12.28770	1847.29000
12.29610	1806.13000
12.30450	1766.86000
12.31290	1732.86000
12.32130	1704.84000
12.32970	1677.45000
12.33810	1659.14000
12.34650	1627.67000
12.35490	1619.96000
12.36330	1597.91000
12.37170	1592.22000
12.38010	1572.27000
12.38850	1562.19000
12.39690	1555.59000
12.40530	1549.94000
12.41370	1537.09000
12.42210	1529.19000
12.43050	1516.34000
12.43890	1515.15000
12.44730	1504.47000
12.45570	1494.52000
12.46410	1495.57000
12.47250	1484.55000
12.48090	1490.07000
12.48930	1484.23000
12.49770	1471.72000
12.50610	1470.37000
12.51450	1466.50000
12.52290	1467.04000
12.53130	1456.59000
12.53970	1458.53000
12.54810	1453.75000
12.55650	1451.23000
12.56490	1447.04000
12.57330	1445.41000
12.58170	1439.23000
12.59010	1437.88000
12.59850	1436.54000
12.60690	1435.95000
12.61530	1437.58000
12.62370	1426.41000
12.63210	1433.69000
12.64050	1431.96000
12.64890	1423.70000
12.65730	1427.76000
12.66570	1423.02000
12.67410	1427.69000
12.68250	1423.01000
12.69090	1423.66000
12.69930	1420.88000
12.70770	1425.30000
12.71610	1424.65000
12.72450	1425.13000
12.73290	1416.84000
12.74130	1427.94000
12.74970	1429.70000
12.75810	1431.13000
12.76650	1432.52000
12.77490	1433.25000
12.78330	1445.40000
12.79170	1444.57000
12.80010	1457.39000
12.80850	1460.49000
12.81690	1477.05000
12.82530	1476.99000
12.83370	1502.33000
12.84210	1508.39000
12.85050	1541.04000
12.85890	1569.83000
12.86730	1578.67000
12.87570	1640.58000
12.88410	1677.64000
12.89250	1744.35000
12.90090	1808.33000
12.90930	1886.93000
12.91770	1965.65000
12.92610	2053.21000
12.93450	2133.94000
12.94290	2206.16000
12.95130	2266.55000
12.95970	2307.32000
12.96810	2321.11000
12.97650	2299.05000
12.98490	2259.15000
12.99330	2194.42000
13.00170	2117.37000
13.01010	2041.80000
13.01850	1964.14000
13.02690	1888.95000
13.03530	1822.85000
13.04370	1757.30000
13.05210	1714.30000
13.06050	1662.67000
13.06890	1625.38000
13.07730	1590.07000
13.08570	1557.15000
13.09410	1540.08000
13.10250	1509.28000
13.11090	1491.12000
13.11930	1480.49000
13.12770	1462.19000
13.13610	1450.70000
13.14450	1438.38000
13.15290	1426.76000
13.16130	1417.68000
13.16970	1413.46000
13.17810	1405.69000
13.18650	1401.95000
13.19490	1397.63000
13.20330	1395.07000
13.21170	1390.41000
13.22010	1396.31000
13.22850	1396.57000
13.23690	1401.63000
13.24530	1417.07000
13.25370	1424.05000
13.26210	1447.74000
13.27050	1475.45000
13.27890	1512.84000
13.28730	1570.28000
13.29570	1623.86000
13.30410	1688.10000
13.31250	1733.97000
13.32090	1761.54000
13.32930	1766.16000
13.33770	1742.72000
13.34610	1696.03000
13.35450	1642.78000
13.36290	1586.03000
13.37130	1541.10000
13.37970	1492.62000
13.38810	1456.22000
13.39650	1430.34000
13.40490	1406.60000
13.41330	1383.74000
13.42170	1364.10000
13.43010	1361.98000
13.43850	1344.57000
13.44690	1338.64000
13.45530	1338.65000
13.46370	1332.49000
13.47210	1321.67000
13.48050	1321.33000
13.48890	1319.44000
13.49730	1313.58000
13.50570	1314.43000
13.51410	1313.34000
13.52250	1320.24000
13.53090	1321.97000
13.53930	1314.11000
13.54770	1322.70000
13.55610	1323.74000
13.56450	1328.11000
13.57290	1326.10000
13.58130	1332.59000
13.58970	1330.91000
13.59810	1347.55000
13.60650	1349.47000
13.61490	1361.56000
13.62330	1364.28000
13.63170	1379.86000
13.64010	1387.53000
13.64850	1393.24000
13.65690	1417.15000
13.66530	1432.50000
13.67370	1457.74000
13.68210	1477.09000
13.69050	1499.69000
13.69890	1528.87000
13.70730	1561.62000
13.71570	1596.32000
13.72410	1625.22000
13.73250	1649.58000
13.74090	1674.69000
13.74930	1700.86000
13.75770	1695.43000
13.76610	1700.16000
13.77450	1673.42000
13.78290	1656.61000
13.79130	1629.97000
13.79970	1596.48000
13.80810	1571.59000
13.81650	1536.21000
13.82490	1507.31000
13.83330	1491.94000
13.84170	1468.37000
13.85010	1449.03000
13.85850	1427.13000
13.86690	1417.31000
13.87530	1406.45000
13.88370	1399.39000
13.89210	1389.80000
13.90050	1389.31000
13.90890	1379.87000
13.91730	1382.27000
13.92570	1376.39000
13.93410	1380.76000
13.94250	1378.79000
13.95090	1384.04000
13.95930	1395.07000
13.96770	1389.07000
13.97610	1406.03000
13.98450	1416.42000
13.99290	1418.78000
14.00130	1436.54000
14.00970	1456.97000
14.01810	1468.44000
14.02650	1509.34000
14.03490	1526.57000
14.04330	1563.52000
14.05170	1606.63000
14.06010	1642.44000
14.06850	1707.23000
14.07690	1747.68000
14.08530	1819.36000
14.09370	1874.95000
14.10210	1931.54000
14.11050	1993.03000
14.11890	2041.38000
14.12730	2085.51000
14.13570	2116.91000
14.14410	2133.45000
14.15250	2128.89000
14.16090	2109.99000
14.16930	2072.67000
14.17770	2025.58000
14.18610	1964.61000
14.19450	1909.24000
14.20290	1847.04000
14.21130	1797.08000
14.21970	1739.76000
14.22810	1697.28000
14.23650	1653.49000
14.24490	1615.98000
14.25330	1581.82000
14.26170	1553.13000
14.27010	1528.63000
14.27850	1506.57000
14.28690	1489.37000
14.29530	1484.94000
14.30370	1466.67000
14.31210	1462.02000
14.32050	1460.85000
14.32890	1460.56000
14.33730	1458.23000
14.34570	1462.40000
14.35410	1471.64000
14.36250	1484.56000
14.37090	1505.03000
14.37930	1524.59000
14.38770	1563.34000
14.39610	1597.39000
14.40450	1651.78000
14.41290	1715.27000
14.42130	1782.58000
14.42970	1871.37000
14.43810	1969.91000
14.44650	2060.09000
14.45490	2157.97000
14.46330	2237.44000
14.47170	2291.93000
14.48010	2337.30000
14.48850	2340.70000
14.49690	2332.58000
14.50530	2295.99000
14.51370	2245.59000
14.52210	2174.94000
14.53050	2115.85000
14.53890	2034.38000
14.54730	1964.20000
14.55570	1894.78000
14.56410	1833.20000
14.57250	1774.30000
14.58090	1725.76000
14.58930	1684.16000
14.59770	1648.53000
14.60610	1617.84000
14.61450	1600.69000
14.62290	1574.76000
14.63130	1556.66000
14.63970	1549.97000
14.64810	1540.61000
14.65650	1553.36000
14.66490	1549.86000
14.67330	1555.48000
14.68170	1566.81000
14.69010	1594.09000
14.69850	1607.71000
14.70690	1641.97000
14.71530	1682.48000
14.72370	1731.34000
14.73210	1791.54000
14.74050	1867.91000
14.74890	1957.98000
14.75730	2066.53000
14.76570	2196.91000
14.77410	2352.12000
14.78250	2547.01000
14.79090	2760.94000
14.79930	3038.86000
14.80770	3305.40000
14.81610	3626.29000
14.82450	3944.12000
14.83290	4220.32000
14.84130	4516.41000
14.84970	4705.35000
14.85810	4837.54000
14.86650	4869.11000
14.87490	4803.37000
14.88330	4638.83000
14.89170	4418.60000
14.90010	4141.64000
14.90850	3845.58000
14.91690	3551.10000
14.92530	3278.28000
14.93370	3025.80000
14.94210	2805.21000
14.95050	2601.71000
14.95890	2435.70000
14.96730	2282.93000
14.97570	2153.74000
14.98410	2038.76000
14.99250	1942.42000
15.00090	1852.69000
15.00930	1781.66000
15.01770	1711.16000
15.02610	1664.74000
15.03450	1611.98000
15.04290	1569.86000
15.05130	1524.56000
15.05970	1491.51000
15.06810	1465.22000
15.07650	1434.97000
15.08490	1412.39000
15.09330	1392.04000
15.10170	1368.60000
15.11010	1355.07000
15.11850	1336.82000
15.12690	1323.14000
15.13530	1311.58000
15.14370	1298.66000
15.15210	1282.94000
15.16050	1274.43000
15.16890	1264.85000
15.17730	1263.12000
15.18570	1254.46000
15.19410	1239.82000
15.20250	1238.32000
15.21090	1230.18000
15.21930	1223.04000
15.22770	1219.15000
15.23610	1210.15000
15.24450	1211.08000
15.25290	1207.85000
15.26130	1205.48000
15.26970	1199.83000
15.27810	1194.57000
15.28650	1189.02000
15.29490	1186.81000
15.30330	1186.70000
15.31170	1182.53000
15.32010	1179.26000
15.32850	1174.13000
15.33690	1176.13000
15.34530	1177.57000
15.35370	1173.16000
15.36210	1166.81000
15.37050	1167.74000
15.37890	1169.51000
15.38730	1166.49000
15.39570	1171.44000
15.40410	1168.35000
15.41250	1161.44000
15.42090	1168.56000
15.42930	1164.64000
15.43770	1167.96000
15.44610	1165.63000
15.45450	1170.86000
15.46290	1169.90000
15.47130	1174.26000
15.47970	1173.33000
15.48810	1181.42000
15.49650	1188.90000
15.50490	1191.35000
15.51330	1197.29000
15.52170	1205.65000
15.53010	1206.49000
15.53850	1207.29000
15.54690	1202.30000
15.55530	1205.74000
15.56370	1205.27000
15.57210	1202.96000
15.58050	1200.30000
15.58890	1191.25000
15.59730	1192.45000
15.60570	1195.23000
15.61410	1197.15000
15.62250	1203.43000
15.63090	1200.52000
15.63930	1206.65000
15.64770	1212.37000
15.65610	1210.92000
15.66450	1218.44000
15.67290	1230.26000
15.68130	1231.18000
15.68970	1248.84000
15.69810	1257.72000
15.70650	1266.18000
15.71490	1284.65000
15.72330	1295.64000
15.73170	1324.40000
15.74010	1345.98000
15.74850	1375.08000
15.75690	1407.27000
15.76530	1445.42000
15.77370	1498.82000
15.78210	1561.54000
15.79050	1639.79000
15.79890	1740.02000
15.80730	1857.78000
15.81570	2024.29000
15.82410	2208.24000
15.83250	2424.36000
15.84090	2667.15000
15.84930	2895.69000
15.85770	3105.92000
15.86610	3249.75000
15.87450	3310.29000
15.88290	3287.66000
15.89130	3208.37000
15.89970	3077.28000
15.90810	2931.02000
15.91650	2767.72000
15.92490	2603.32000
15.93330	2447.11000
15.94170	2304.74000
15.95010	2183.34000
15.95850	2069.85000
15.96690	1975.40000
15.97530	1896.27000
15.98370	1832.58000
15.99210	1771.06000
16.00050	1730.82000
16.00890	1691.63000
16.01730	1665.16000
16.02570	1652.63000
16.03410	1645.50000
16.04250	1645.64000
16.05090	1651.02000
16.05930	1668.03000
16.06770	1691.30000
16.07610	1736.03000
16.08450	1771.70000
16.09290	1837.83000
16.10130	1907.66000
16.10970	2008.31000
16.11810	2119.39000
16.12650	2250.88000
16.13490	2412.88000
16.14330	2594.01000
16.15170	2817.54000
16.16010	3041.27000
16.16850	3295.67000
16.17690	3515.75000
16.18530	3691.79000
16.19370	3822.92000
16.20210	3854.06000
16.21050	3812.28000
16.21890	3691.56000
16.22730	3534.39000
16.23570	3347.46000
16.24410	3142.53000
16.25250	2940.96000
16.26090	2746.87000
16.26930	2571.98000
16.27770	2423.78000
16.28610	2279.58000
16.29450	2161.83000
16.30290	2041.64000
16.31130	1955.31000
16.31970	1880.98000
16.32810	1799.87000
16.33650	1746.29000
16.34490	1693.29000
16.35330	1645.96000
16.36170	1615.09000
16.37010	1573.86000
16.37850	1558.66000
16.38690	1537.24000
16.39530	1522.52000
16.40370	1512.45000
16.41210	1504.27000
16.42050	1498.88000
16.42890	1502.34000
16.43730	1511.89000
16.44570	1519.98000
16.45410	1530.89000
16.46250	1553.78000
16.47090	1569.67000
16.47930	1596.25000
16.48770	1624.32000
16.49610	1658.20000
16.50450	1695.10000
16.51290	1734.43000
16.52130	1769.48000
16.52970	1808.20000
16.53810	1835.92000
16.54650	1858.85000
16.55490	1867.02000
16.56330	1866.23000
16.57170	1851.64000
16.58010	1815.78000
16.58850	1784.95000
16.59690	1738.16000
16.60530	1698.53000
16.61370	1657.40000
16.62210	1613.48000
16.63050	1584.48000
16.63890	1548.17000
16.64730	1512.86000
16.65570	1484.60000
16.66410	1460.01000
16.67250	1440.99000
16.68090	1424.32000
16.68930	1412.19000
16.69770	1402.92000
16.70610	1398.53000
16.71450	1394.67000
16.72290	1400.80000
16.73130	1406.04000
16.73970	1414.82000
16.74810	1426.00000
16.75650	1453.09000
16.76490	1479.77000
16.77330	1508.80000
16.78170	1562.64000
16.79010	1616.43000
16.79850	1672.97000
16.80690	1737.89000
16.81530	1804.06000
16.82370	1863.96000
16.83210	1899.57000
16.84050	1920.70000
16.84890	1906.76000
16.85730	1871.71000
16.86570	1824.03000
16.87410	1757.13000
16.88250	1692.71000
16.89090	1622.98000
16.89930	1571.13000
16.90770	1516.65000
16.91610	1470.96000
16.92450	1436.92000
16.93290	1402.68000
16.94130	1376.02000
16.94970	1358.18000
16.95810	1339.62000
16.96650	1331.84000
16.97490	1322.37000
16.98330	1314.28000
16.99170	1321.13000
17.00010	1321.80000
17.00850	1330.35000
17.01690	1338.48000
17.02530	1351.81000
17.03370	1368.97000
17.04210	1385.27000
17.05050	1409.95000
17.05890	1437.46000
17.06730	1470.50000
17.07570	1511.57000
17.08410	1556.11000
17.09250	1609.20000
17.10090	1668.19000
17.10930	1732.21000
17.11770	1808.76000
17.12610	1887.65000
17.13450	1978.26000
17.14290	2080.83000
17.15130	2175.96000
17.15970	2279.46000
17.16810	2375.22000
17.17650	2437.53000
17.18490	2482.68000
17.19330	2499.31000
17.20170	2465.21000
17.21010	2422.36000
17.21850	2349.88000
17.22690	2264.33000
17.23530	2174.39000
17.24370	2071.19000
17.25210	1991.75000
17.26050	1904.82000
17.26890	1833.50000
17.27730	1765.13000
17.28570	1707.75000
17.29410	1653.53000
17.30250	1609.27000
17.31090	1569.57000
17.31930	1537.61000
17.32770	1507.59000
17.33610	1486.59000
17.34450	1473.61000
17.35290	1458.65000
17.36130	1452.43000
17.36970	1452.63000
17.37810	1456.77000
17.38650	1474.96000
17.39490	1497.20000
17.40330	1533.33000
17.41170	1580.12000
17.42010	1638.08000
17.42850	1713.24000
17.43690	1784.02000
17.44530	1864.00000
17.45370	1919.90000
17.46210	1960.70000
17.47050	1967.85000
17.47890	1944.63000
17.48730	1908.10000
17.49570	1834.28000
17.50410	1775.38000
17.51250	1702.95000
17.52090	1639.13000
17.52930	1583.23000
17.53770	1525.04000
17.54610	1481.01000
17.55450	1439.80000
17.56290	1403.87000
17.57130	1383.56000
17.57970	1354.11000
17.58810	1338.11000
17.59650	1323.67000
17.60490	1311.16000
17.61330	1311.56000
17.62170	1308.28000
17.63010	1312.40000
17.63850	1307.39000
17.64690	1313.09000
17.65530	1328.84000
17.66370	1338.13000
17.67210	1356.56000
17.68050	1378.67000
17.68890	1399.94000
17.69730	1436.26000
17.70570	1467.55000
17.71410	1506.84000
17.72250	1558.67000
17.73090	1611.56000
17.73930	1676.78000
17.74770	1732.41000
17.75610	1803.59000
17.76450	1867.04000
17.77290	1942.20000
17.78130	1998.25000
17.78970	2030.88000
17.79810	2056.34000
17.80650	2048.16000
17.81490	2030.16000
17.82330	1984.68000
17.83170	1931.69000
17.84010	1882.24000
17.84850	1817.19000
17.85690	1777.29000
17.86530	1706.06000
17.87370	1655.31000
17.88210	1618.84000
17.89050	1571.09000
17.89890	1547.81000
17.90730	1521.16000
17.91570	1502.26000
17.92410	1485.47000
17.93250	1479.04000
17.94090	1477.19000
17.94930	1479.10000
17.95770	1497.18000
17.96610	1512.79000
17.97450	1531.75000
17.98290	1575.56000
17.99130	1623.78000
17.99970	1682.46000
18.00810	1748.89000
18.01650	1836.90000
18.02490	1925.17000
18.03330	2023.23000
18.04170	2118.26000
18.05010	2192.67000
18.05850	2246.05000
18.06690	2285.79000
18.07530	2264.06000
18.08370	2230.93000
18.09210	2170.34000
18.10050	2095.51000
18.10890	2024.00000
18.11730	1937.94000
18.12570	1865.27000
18.13410	1790.53000
18.14250	1723.97000
18.15090	1667.31000
18.15930	1621.92000
18.16770	1574.67000
18.17610	1533.58000
18.18450	1501.02000
18.19290	1479.50000
18.20130	1456.04000
18.20970	1436.43000
18.21810	1428.57000
18.22650	1421.99000
18.23490	1417.86000
18.24330	1427.31000
18.25170	1442.36000
18.26010	1459.90000
18.26850	1483.63000
18.27690	1514.27000
18.28530	1554.41000
18.29370	1596.76000
18.30210	1642.81000
18.31050	1703.61000
18.31890	1764.13000
18.32730	1826.38000
18.33570	1871.10000
18.34410	1915.42000
18.35250	1941.43000
18.36090	1947.79000
18.36930	1925.05000
18.37770	1887.59000
18.38610	1833.62000
18.39450	1781.97000
18.40290	1717.66000
18.41130	1662.22000
18.41970	1606.40000
18.42810	1550.30000
18.43650	1503.89000
18.44490	1456.44000
18.45330	1423.39000
18.46170	1385.17000
18.47010	1356.82000
18.47850	1326.11000
18.48690	1294.74000
18.49530	1276.43000
18.50370	1257.72000
18.51210	1233.52000
18.52050	1221.49000
18.52890	1211.73000
18.53730	1202.29000
18.54570	1189.14000
18.55410	1181.44000
18.56250	1177.77000
18.57090	1172.70000
18.57930	1167.31000
18.58770	1167.14000
18.59610	1162.11000
18.60450	1154.14000
18.61290	1144.82000
18.62130	1138.61000
18.62970	1133.38000
18.63810	1131.26000
18.64650	1129.83000
18.65490	1127.25000
18.66330	1121.76000
18.67170	1119.58000
18.68010	1123.15000
18.68850	1124.56000
18.69690	1124.43000
18.70530	1127.90000
18.71370	1127.26000
18.72210	1138.40000
18.73050	1138.04000
18.73890	1147.00000
18.74730	1161.62000
18.75570	1164.29000
18.76410	1183.87000
18.77250	1192.59000
18.78090	1215.70000
18.78930	1238.83000
18.79770	1269.94000
18.80610	1312.78000
18.81450	1371.12000
18.82290	1442.74000
18.83130	1547.44000
18.83970	1649.12000
18.84810	1784.75000
18.85650	1916.32000
18.86490	2055.06000
18.87330	2138.32000
18.88170	2180.05000
18.89010	2156.98000
18.89850	2081.38000
18.90690	1999.08000
18.91530	1905.70000
18.92370	1819.11000
18.93210	1747.68000
18.94050	1690.51000
18.94890	1645.74000
18.95730	1608.50000
18.96570	1581.95000
18.97410	1551.89000
18.98250	1525.78000
18.99090	1512.00000
18.99930	1494.47000
19.00770	1487.79000
19.01610	1478.89000
19.02450	1485.23000
19.03290	1489.80000
19.04130	1508.27000
19.04970	1521.50000
19.05810	1546.33000
19.06650	1577.94000
19.07490	1618.74000
19.08330	1671.51000
19.09170	1729.49000
19.10010	1797.01000
19.10850	1897.20000
19.11690	1994.24000
19.12530	2104.55000
19.13370	2245.37000
19.14210	2399.19000
19.15050	2573.37000
19.15890	2770.71000
19.16730	2981.83000
19.17570	3192.81000
19.18410	3390.00000
19.19250	3569.47000
19.20090	3669.48000
19.20930	3735.59000
19.21770	3703.99000
19.22610	3624.45000
19.23450	3498.88000
19.24290	3324.93000
19.25130	3154.92000
19.25970	2968.50000
19.26810	2798.27000
19.27650	2647.25000
19.28490	2488.61000
19.29330	2369.98000
19.30170	2255.98000
19.31010	2167.28000
19.31850	2085.65000
19.32690	2015.87000
19.33530	1975.84000
19.34370	1936.06000
19.35210	1923.70000
19.36050	1923.31000
19.36890	1950.21000
19.37730	2000.24000
19.38570	2084.67000
19.39410	2199.25000
19.40250	2347.13000
19.41090	2523.63000
19.41930	2695.84000
19.42770	2841.40000
19.43610	2940.60000
19.44450	2966.54000
19.45290	2956.85000
19.46130	2888.91000
19.46970	2813.00000
19.47810	2720.61000
19.48650	2610.97000
19.49490	2511.40000
19.50330	2396.06000
19.51170	2289.49000
19.52010	2189.84000
19.52850	2080.61000
19.53690	1997.58000
19.54530	1925.79000
19.55370	1861.69000
19.56210	1814.74000
19.57050	1773.34000
19.57890	1746.94000
19.58730	1732.15000
19.59570	1729.45000
19.60410	1742.28000
19.61250	1762.87000
19.62090	1797.41000
19.62930	1858.53000
19.63770	1935.89000
19.64610	2042.05000
19.65450	2191.21000
19.66290	2374.85000
19.67130	2603.47000
19.67970	2862.27000
19.68810	3156.03000
19.69650	3411.21000
19.70490	3648.29000
19.71330	3829.92000
19.72170	3950.31000
19.73010	4013.97000
19.73850	4037.60000
19.74690	4012.89000
19.75530	3958.13000
19.76370	3843.16000
19.77210	3688.58000
19.78050	3509.78000
19.78890	3309.14000
19.79730	3109.27000
19.80570	2912.12000
19.81410	2718.35000
19.82250	2549.24000
19.83090	2394.17000
19.83930	2269.69000
19.84770	2147.12000
19.85610	2055.65000
19.86450	1969.17000
19.87290	1894.95000
19.88130	1836.90000
19.88970	1790.68000
19.89810	1753.98000
19.90650	1718.87000
19.91490	1702.41000
19.92330	1686.39000
19.93170	1676.52000
19.94010	1676.81000
19.94850	1682.99000
19.95690	1702.54000
19.96530	1719.83000
19.97370	1744.16000
19.98210	1771.35000
19.99050	1807.23000
19.99890	1849.51000
20.00730	1896.84000
20.01570	1948.40000
20.02410	1992.27000
20.03250	2041.32000
20.04090	2076.74000
20.04930	2091.57000
20.05770	2110.52000
20.06610	2105.14000
20.07450	2083.06000
20.08290	2053.01000
20.09130	2022.47000
20.09970	1989.10000
20.10810	1958.88000
20.11650	1934.24000
20.12490	1904.29000
20.13330	1897.33000
20.14170	1888.28000
20.15010	1890.04000
20.15850	1893.81000
20.16690	1909.17000
20.17530	1934.82000
20.18370	1969.07000
20.19210	2009.31000
20.20050	2054.51000
20.20890	2119.22000
20.21730	2188.62000
20.22570	2264.04000
20.23410	2351.06000
20.24250	2440.67000
20.25090	2536.85000
20.25930	2629.53000
20.26770	2713.39000
20.27610	2789.50000
20.28450	2832.10000
20.29290	2848.29000
20.30130	2835.10000
20.30970	2791.41000
20.31810	2731.97000
20.32650	2661.38000
20.33490	2576.45000
20.34330	2498.70000
20.35170	2402.84000
20.36010	2331.17000
20.36850	2259.90000
20.37690	2197.38000
20.38530	2143.45000
20.39370	2100.15000
20.40210	2066.99000
20.41050	2047.06000
20.41890	2033.90000
20.42730	2040.38000
20.43570	2062.23000
20.44410	2095.94000
20.45250	2168.60000
20.46090	2252.12000
20.46930	2365.99000
20.47770	2504.53000
20.48610	2642.56000
20.49450	2785.85000
20.50290	2895.88000
20.51130	2975.99000
20.51970	3004.41000
20.52810	2999.18000
20.53650	2972.49000
20.54490	2908.83000
20.55330	2841.49000
20.56170	2752.85000
20.57010	2662.47000
20.57850	2552.90000
20.58690	2447.78000
20.59530	2329.10000
20.60370	2227.89000
20.61210	2132.69000
20.62050	2046.62000
20.62890	1963.88000
20.63730	1899.89000
20.64570	1842.13000
20.65410	1792.59000
20.66250	1755.47000
20.67090	1724.79000
20.67930	1697.59000
20.68770	1688.15000
20.69610	1683.44000
20.70450	1682.06000
20.71290	1689.85000
20.72130	1707.11000
20.72970	1730.50000
20.73810	1755.84000
20.74650	1789.38000
20.75490	1835.29000
20.76330	1878.49000
20.77170	1929.53000
20.78010	1974.17000
20.78850	2018.61000
20.79690	2046.25000
20.80530	2074.52000
20.81370	2073.61000
20.82210	2060.95000
20.83050	2025.66000
20.83890	1980.23000
20.84730	1922.91000
20.85570	1861.78000
20.86410	1800.12000
20.87250	1746.31000
20.88090	1690.89000
20.88930	1628.34000
20.89770	1586.76000
20.90610	1550.14000
20.91450	1514.44000
20.92290	1483.71000
20.93130	1466.31000
20.93970	1458.36000
20.94810	1451.88000
20.95650	1468.81000
20.96490	1484.71000
20.97330	1521.75000
20.98170	1567.27000
20.99010	1624.38000
20.99850	1687.71000
21.00690	1733.97000
21.01530	1771.59000
21.02370	1773.46000
21.03210	1753.00000
21.04050	1703.86000
21.04890	1639.30000
21.05730	1567.15000
21.06570	1495.77000
21.07410	1420.51000
21.08250	1364.09000
21.09090	1305.99000
21.09930	1257.60000
21.10770	1217.85000
21.11610	1182.50000
21.12450	1153.29000
21.13290	1127.45000
21.14130	1099.11000
21.14970	1086.56000
21.15810	1067.75000
21.16650	1048.44000
21.17490	1043.17000
21.18330	1034.04000
21.19170	1021.62000
21.20010	1014.85000
21.20850	1012.49000
21.21690	1005.66000
21.22530	1003.79000
21.23370	1001.23000
21.24210	998.37000
21.25050	1002.22000
21.25890	996.27000
21.26730	997.89000
21.27570	996.96000
21.28410	1002.13000
21.29250	1001.69000
21.30090	1001.89000
21.30930	1011.80000
21.31770	1011.50000
21.32610	1016.78000
21.33450	1011.64000
21.34290	1018.64000
21.35130	1017.83000
21.35970	1022.46000
21.36810	1021.62000
21.37650	1021.30000
21.38490	1018.85000
21.39330	1022.31000
21.40170	1014.52000
21.41010	1017.17000
21.41850	1009.33000
21.42690	1013.38000
21.43530	1009.35000
21.44370	1003.58000
21.45210	1008.59000
21.46050	1005.55000
21.46890	1002.12000
21.47730	1005.80000
21.48570	1011.98000
21.49410	1004.55000
21.50250	1015.02000
21.51090	1017.81000
21.51930	1024.55000
21.52770	1025.01000
21.53610	1036.00000
21.54450	1041.71000
21.55290	1046.30000
21.56130	1051.50000
21.56970	1057.42000
21.57810	1064.67000
21.58650	1066.43000
21.59490	1070.35000
21.60330	1069.85000
21.61170	1072.71000
21.62010	1073.24000
21.62850	1084.04000
21.63690	1072.54000
21.64530	1075.29000
21.65370	1073.36000
21.66210	1072.82000
21.67050	1073.25000
21.67890	1082.61000
21.68730	1085.09000
21.69570	1096.43000
21.70410	1109.77000
21.71250	1123.10000
21.72090	1147.62000
21.72930	1172.43000
21.73770	1203.97000
21.74610	1232.18000
21.75450	1271.88000
21.76290	1313.49000
21.77130	1355.39000
21.77970	1394.13000
21.78810	1423.78000
21.79650	1449.43000
21.80490	1471.69000
21.81330	1480.33000
21.82170	1478.37000
21.83010	1470.21000
21.83850	1454.08000
21.84690	1425.88000
21.85530	1398.53000
21.86370	1369.20000
21.87210	1340.33000
21.88050	1313.28000
21.88890	1289.63000
21.89730	1270.83000
21.90570	1259.52000
21.91410	1248.62000
21.92250	1247.58000
21.93090	1251.61000
