8.00000	1678.00000
8.02200	1573.00000
8.04400	1613.00000
8.06600	1544.00000
8.08800	1575.00000
8.11000	1467.00000
8.13200	1527.00000
8.15400	1445.00000
8.17600	1458.00000
8.19800	1499.00000
8.22000	1371.00000
8.24200	1410.00000
8.26400	1464.00000
8.28600	1360.00000
8.30800	1404.00000
8.33000	1315.00000
8.35200	1376.00000
8.37400	1377.00000
8.39600	1394.00000
8.41800	1291.00000
8.44000	1327.00000
8.46200	1381.00000
8.48400	1330.00000
8.50600	1300.00000
8.52800	1290.00000
8.55000	1289.00000
8.57200	1270.00000
8.59400	1246.00000
8.61600	1274.00000
8.63800	1236.00000
8.66000	1216.00000
8.68200	1197.00000
8.70400	1179.00000
8.72600	1299.00000
8.74800	1263.00000
8.77000	1212.00000
8.79200	1224.00000
8.81400	1236.00000
8.83600	1232.00000
8.85800	1184.00000
8.88000	1256.00000
8.90200	1264.00000
8.92400	1202.00000
8.94600	1214.00000
8.96800	1160.00000
8.99000	1171.00000
9.01200	1266.00000
9.03400	1179.00000
9.05600	1189.00000
9.07800	1199.00000
9.10000	1202.00000
9.12200	1150.00000
9.14400	1101.00000
9.16600	1188.00000
9.18800	1143.00000
9.21000	1122.00000
9.23200	1156.00000
9.25400	1118.00000
9.27600	1074.00000
9.29800	1143.00000
9.32000	1211.00000
9.34200	1138.00000
9.36400	1168.00000
9.38600	1080.00000
9.40800	1129.00000
9.43000	1137.00000
9.45200	1076.00000
9.47400	1099.00000
9.49600	1149.00000
9.51800	1092.00000
9.54000	1111.00000
9.56200	1121.00000
9.58400	1078.00000
9.60600	1091.00000
9.62800	1130.00000
9.65000	1117.00000
9.67200	1171.00000
9.69400	1184.00000
9.71600	1182.00000
9.73800	1147.00000
9.76000	1165.00000
9.78200	1131.00000
9.80400	1123.00000
9.82600	1062.00000
9.84800	1100.00000
9.87000	1129.00000
9.89200	1146.00000
9.91400	1125.00000
9.93600	1185.00000
9.95800	1179.00000
9.98000	1107.00000
10.00200	1111.00000
10.02400	1111.00000
10.04600	1101.00000
10.06800	1073.00000
10.09000	1055.00000
10.11200	1049.00000
10.13400	1137.00000
10.15600	1009.00000
10.17800	1065.00000
10.20000	1051.00000
10.22200	1129.00000
10.24400	1128.00000
10.26600	1105.00000
10.28800	1129.00000
10.31000	1077.00000
10.33200	1127.00000
10.35400	1130.00000
10.37600	1144.00000
10.39800	1163.00000
10.42000	1124.00000
10.44200	1189.00000
10.46400	1195.00000
10.48600	1174.00000
10.50800	1269.00000
10.53000	1278.00000
10.55200	1412.00000
10.57400	1412.00000
10.59600	1652.00000
10.61800	1797.00000
10.64000	2249.00000
10.66200	2710.00000
10.68400	3506.00000
10.70600	4417.00000
10.72800	5090.00000
10.75000	5977.00000
10.77200	6704.00000
10.79400	6672.00000
10.81600	5119.00000
10.83800	3172.00000
10.86000	1891.00000
10.88200	1328.00000
10.90400	1176.00000
10.92600	1114.00000
10.94800	1023.00000
10.97000	994.00000
10.99200	984.00000
11.01400	940.00000
11.03600	942.00000
11.05800	984.00000
11.08000	953.00000
11.10200	992.00000
11.12400	909.00000
11.14600	975.00000
11.16800	926.00000
11.19000	913.00000
11.21200	926.00000
11.23400	896.00000
11.25600	974.00000
11.27800	910.00000
11.30000	938.00000
11.32200	894.00000
11.34400	894.00000
11.36600	926.00000
11.38800	893.00000
11.41000	899.00000
11.43200	951.00000
11.45400	917.00000
11.47600	1002.00000
11.49800	899.00000
11.52000	938.00000
11.54200	883.00000
11.56400	880.00000
11.58600	887.00000
11.60800	848.00000
11.63000	867.00000
11.65200	886.00000
11.67400	861.00000
11.69600	929.00000
11.71800	873.00000
11.74000	850.00000
11.76200	873.00000
11.78400	839.00000
11.80600	860.00000
11.82800	877.00000
11.85000	838.00000
11.87200	853.00000
11.89400	836.00000
11.91600	811.00000
11.93800	864.00000
11.96000	801.00000
11.98200	839.00000
12.00400	804.00000
12.02600	820.00000
12.04800	844.00000
12.07000	876.00000
12.09200	848.00000
12.11400	893.00000
12.13600	822.00000
12.15800	809.00000
12.18000	793.00000
12.20200	761.00000
12.22400	818.00000
12.24600	811.00000
12.26800	827.00000
12.29000	791.00000
12.31200	826.00000
12.33400	831.00000
12.35600	826.00000
12.37800	836.00000
12.40000	854.00000
12.42200	849.00000
12.44400	817.00000
12.46600	795.00000
12.48800	813.00000
12.51000	806.00000
12.53200	789.00000
12.55400	798.00000
12.57600	772.00000
12.59800	763.00000
12.62000	770.00000
12.64200	769.00000
12.66400	811.00000
12.68600	788.00000
12.70800	750.00000
12.73000	766.00000
12.75200	761.00000
12.77400	796.00000
12.79600	765.00000
12.81800	762.00000
12.84000	784.00000
12.86200	800.00000
12.88400	833.00000
12.90600	739.00000
12.92800	762.00000
12.95000	756.00000
12.97200	792.00000
12.99400	755.00000
13.01600	747.00000
13.03800	788.00000
13.06000	771.00000
13.08200	783.00000
13.10400	761.00000
13.12600	747.00000
13.14800	780.00000
13.17000	740.00000
13.19200	793.00000
13.21400	761.00000
13.23600	753.00000
13.25800	781.00000
13.28000	780.00000
13.30200	744.00000
13.32400	718.00000
13.34600	770.00000
13.36800	732.00000
13.39000	788.00000
13.41200	770.00000
13.43400	749.00000
13.45600	781.00000
13.47800	717.00000
13.50000	773.00000
13.52200	740.00000
13.54400	709.00000
13.56600	728.00000
13.58800	763.00000
13.61000	736.00000
13.63200	728.00000
13.65400	735.00000
13.67600	704.00000
13.69800	771.00000
13.72000	709.00000
13.74200	725.00000
13.76400	738.00000
13.78600	734.00000
13.80800	684.00000
13.83000	702.00000
13.85200	657.00000
13.87400	716.00000
13.89600	764.00000
13.91800	720.00000
13.94000	727.00000
13.96200	669.00000
13.98400	702.00000
14.00600	656.00000
14.02800	722.00000
14.05000	751.00000
14.07200	712.00000
14.09400	714.00000
14.11600	675.00000
14.13800	692.00000
14.16000	703.00000
14.18200	715.00000
14.20400	702.00000
14.22600	694.00000
14.24800	709.00000
14.27000	676.00000
14.29200	666.00000
14.31400	680.00000
14.33600	699.00000
14.35800	677.00000
14.38000	730.00000
14.40200	711.00000
14.42400	684.00000
14.44600	685.00000
14.46800	699.00000
14.49000	714.00000
14.51200	705.00000
14.53400	706.00000
14.55600	691.00000
14.57800	678.00000
14.60000	720.00000
14.62200	651.00000
14.64400	700.00000
14.66600	661.00000
14.68800	666.00000
14.71000	694.00000
14.73200	638.00000
14.75400	661.00000
14.77600	696.00000
14.79800	731.00000
14.82000	655.00000
14.84200	673.00000
14.86400	689.00000
14.88600	599.00000
14.90800	647.00000
14.93000	669.00000
14.95200	655.00000
14.97400	668.00000
14.99600	674.00000
15.01800	647.00000
15.04000	666.00000
15.06200	663.00000
15.08400	648.00000
15.10600	669.00000
15.12800	658.00000
15.15000	651.00000
15.17200	650.00000
15.19400	637.00000
15.21600	653.00000
15.23800	663.00000
15.26000	678.00000
15.28200	640.00000
15.30400	635.00000
15.32600	656.00000
15.34800	637.00000
15.37000	624.00000
15.39200	682.00000
15.41400	583.00000
15.43600	622.00000
15.45800	659.00000
15.48000	622.00000
15.50200	631.00000
15.52400	653.00000
15.54600	636.00000
15.56800	638.00000
15.59000	601.00000
15.61200	609.00000
15.63400	646.00000
15.65600	631.00000
15.67800	640.00000
15.70000	674.00000
15.72200	597.00000
15.74400	584.00000
15.76600	633.00000
15.78800	631.00000
15.81000	617.00000
15.83200	677.00000
15.85400	677.00000
15.87600	684.00000
15.89800	630.00000
15.92000	657.00000
15.94200	649.00000
15.96400	649.00000
15.98600	630.00000
16.00800	660.00000
16.03000	640.00000
16.05200	658.00000
16.07400	621.00000
16.09600	707.00000
16.11800	634.00000
16.14000	639.00000
16.16200	580.00000
16.18400	625.00000
16.20600	630.00000
16.22800	634.00000
16.25000	640.00000
16.27200	624.00000
16.29400	660.00000
16.31600	660.00000
16.33800	590.00000
16.36000	604.00000
16.38200	622.00000
16.40400	613.00000
16.42600	582.00000
16.44800	596.00000
16.47000	649.00000
16.49200	663.00000
16.51400	640.00000
16.53600	657.00000
16.55800	615.00000
16.58000	597.00000
16.60200	626.00000
16.62400	632.00000
16.64600	649.00000
16.66800	573.00000
16.69000	627.00000
16.71200	508.00000
16.73400	645.00000
16.75600	631.00000
16.77800	599.00000
16.80000	633.00000
16.82200	622.00000
16.84400	573.00000
16.86600	628.00000
16.88800	637.00000
16.91000	567.00000
16.93200	614.00000
16.95400	579.00000
16.97600	612.00000
16.99800	580.00000
17.02000	539.00000
17.04200	591.00000
17.06400	634.00000
17.08600	595.00000
17.10800	650.00000
17.13000	610.00000
17.15200	598.00000
17.17400	609.00000
17.19600	626.00000
17.21800	583.00000
17.24000	580.00000
17.26200	611.00000
17.28400	598.00000
17.30600	605.00000
17.32800	629.00000
17.35000	658.00000
17.37200	598.00000
17.39400	611.00000
17.41600	596.00000
17.43800	650.00000
17.46000	566.00000
17.48200	631.00000
17.50400	631.00000
17.52600	585.00000
17.54800	668.00000
17.57000	588.00000
17.59200	595.00000
17.61400	614.00000
17.63600	649.00000
17.65800	620.00000
17.68000	589.00000
17.70200	559.00000
17.72400	599.00000
17.74600	625.00000
17.76800	661.00000
17.79000	609.00000
17.81200	589.00000
17.83400	598.00000
17.85600	597.00000
17.87800	577.00000
17.90000	638.00000
17.92200	543.00000
17.94400	581.00000
17.96600	603.00000
17.98800	602.00000
18.01000	558.00000
18.03200	597.00000
18.05400	580.00000
18.07600	670.00000
18.09800	661.00000
18.12000	662.00000
18.14200	597.00000
18.16400	621.00000
18.18600	636.00000
18.20800	601.00000
18.23000	606.00000
18.25200	661.00000
18.27400	690.00000
18.29600	687.00000
18.31800	693.00000
18.34000	715.00000
18.36200	616.00000
18.38400	638.00000
18.40600	657.00000
18.42800	645.00000
18.45000	594.00000
18.47200	558.00000
18.49400	618.00000
18.51600	605.00000
18.53800	637.00000
18.56000	572.00000
18.58200	592.00000
18.60400	611.00000
18.62600	571.00000
18.64800	580.00000
18.67000	603.00000
18.69200	588.00000
18.71400	587.00000
18.73600	604.00000
18.75800	612.00000
18.78000	624.00000
18.80200	602.00000
18.82400	629.00000
18.84600	617.00000
18.86800	615.00000
18.89000	583.00000
18.91200	609.00000
18.93400	601.00000
18.95600	618.00000
18.97800	606.00000
19.00000	573.00000
19.02200	579.00000
19.04400	584.00000
19.06600	629.00000
19.08800	604.00000
19.11000	578.00000
19.13200	593.00000
19.15400	610.00000
19.17600	611.00000
19.19800	571.00000
19.22000	659.00000
19.24200	572.00000
19.26400	627.00000
19.28600	593.00000
19.30800	628.00000
19.33000	622.00000
19.35200	614.00000
19.37400	645.00000
19.39600	632.00000
19.41800	649.00000
19.44000	611.00000
19.46200	615.00000
19.48400	661.00000
19.50600	665.00000
19.52800	666.00000
19.55000	715.00000
19.57200	652.00000
19.59400	662.00000
19.61600	624.00000
19.63800	604.00000
19.66000	614.00000
19.68200	634.00000
19.70400	597.00000
19.72600	592.00000
19.74800	645.00000
19.77000	638.00000
19.79200	623.00000
19.81400	636.00000
19.83600	637.00000
19.85800	651.00000
19.88000	640.00000
19.90200	572.00000
19.92400	647.00000
19.94600	606.00000
19.96800	587.00000
19.99000	604.00000
20.01200	617.00000
20.03400	610.00000
20.05600	613.00000
20.07800	590.00000
20.10000	612.00000
20.12200	609.00000
20.14400	622.00000
20.16600	623.00000
20.18800	568.00000
20.21000	602.00000
20.23200	598.00000
20.25400	599.00000
20.27600	614.00000
20.29800	562.00000
20.32000	632.00000
20.34200	576.00000
20.36400	585.00000
20.38600	580.00000
20.40800	598.00000
20.43000	576.00000
20.45200	591.00000
20.47400	606.00000
20.49600	652.00000
20.51800	629.00000
20.54000	650.00000
20.56200	601.00000
20.58400	621.00000
20.60600	620.00000
20.62800	602.00000
20.65000	615.00000
20.67200	668.00000
20.69400	626.00000
20.71600	624.00000
20.73800	644.00000
20.76000	663.00000
20.78200	669.00000
20.80400	660.00000
20.82600	669.00000
20.84800	689.00000
20.87000	670.00000
20.89200	668.00000
20.91400	629.00000
20.93600	719.00000
20.95800	650.00000
20.98000	680.00000
21.00200	685.00000
21.02400	753.00000
21.04600	704.00000
21.06800	664.00000
21.09000	684.00000
21.11200	642.00000
21.13400	691.00000
21.15600	654.00000
21.17800	679.00000
21.20000	644.00000
21.22200	606.00000
21.24400	654.00000
21.26600	667.00000
21.28800	602.00000
21.31000	675.00000
21.33200	664.00000
21.35400	711.00000
21.37600	722.00000
21.39800	690.00000
21.42000	664.00000
21.44200	725.00000
21.46400	785.00000
21.48600	812.00000
21.50800	931.00000
21.53000	1154.00000
21.55200	1359.00000
21.57400	1677.00000
21.59600	2022.00000
21.61800	2258.00000
21.64000	2379.00000
21.66200	2198.00000
21.68400	1884.00000
21.70600	1471.00000
21.72800	1123.00000
21.75000	894.00000
21.77200	687.00000
21.79400	710.00000
21.81600	629.00000
21.83800	633.00000
21.86000	631.00000
21.88200	672.00000
21.90400	691.00000
21.92600	664.00000
21.94800	689.00000
21.97000	627.00000
21.99200	692.00000
22.01400	651.00000
22.03600	696.00000
22.05800	632.00000
22.08000	642.00000
22.10200	696.00000
22.12400	679.00000
22.14600	683.00000
22.16800	670.00000
22.19000	657.00000
22.21200	699.00000
22.23400	720.00000
22.25600	687.00000
22.27800	648.00000
22.30000	661.00000
22.32200	670.00000
22.34400	728.00000
22.36600	697.00000
22.38800	714.00000
22.41000	665.00000
22.43200	753.00000
22.45400	707.00000
22.47600	700.00000
22.49800	756.00000
22.52000	698.00000
22.54200	742.00000
22.56400	715.00000
22.58600	719.00000
22.60800	728.00000
22.63000	754.00000
22.65200	726.00000
22.67400	715.00000
22.69600	755.00000
22.71800	687.00000
22.74000	774.00000
22.76200	694.00000
22.78400	747.00000
22.80600	723.00000
22.82800	847.00000
22.85000	926.00000
22.87200	1097.00000
22.89400	1397.00000
22.91600	2099.00000
22.93800	2977.00000
22.96000	4083.00000
22.98200	5431.00000
23.00400	6576.00000
23.02600	6958.00000
23.04800	6548.00000
23.07000	5310.00000
23.09200	3707.00000
23.11400	2586.00000
23.13600	1662.00000
23.15800	1139.00000
23.18000	818.00000
23.20200	815.00000
23.22400	731.00000
23.24600	734.00000
23.26800	704.00000
23.29000	700.00000
23.31200	673.00000
23.33400	721.00000
23.35600	694.00000
23.37800	657.00000
23.40000	657.00000
23.42200	669.00000
23.44400	666.00000
23.46600	630.00000
23.48800	652.00000
23.51000	642.00000
23.53200	637.00000
23.55400	620.00000
23.57600	693.00000
23.59800	627.00000
23.62000	724.00000
23.64200	682.00000
23.66400	766.00000
23.68600	788.00000
23.70800	802.00000
23.73000	785.00000
23.75200	763.00000
23.77400	702.00000
23.79600	844.00000
23.81800	779.00000
23.84000	798.00000
23.86200	762.00000
23.88400	732.00000
23.90600	821.00000
23.92800	776.00000
23.95000	790.00000
23.97200	822.00000
23.99400	798.00000
24.01600	806.00000
24.03800	730.00000
24.06000	747.00000
24.08200	714.00000
24.10400	638.00000
24.12600	624.00000
24.14800	626.00000
24.17000	630.00000
24.19200	598.00000
24.21400	617.00000
24.23600	641.00000
24.25800	650.00000
24.28000	640.00000
24.30200	703.00000
24.32400	679.00000
24.34600	594.00000
24.36800	685.00000
24.39000	632.00000
24.41200	625.00000
24.43400	651.00000
24.45600	634.00000
24.47800	600.00000
24.50000	652.00000
24.52200	670.00000
24.54400	648.00000
24.56600	691.00000
24.58800	710.00000
24.61000	686.00000
24.63200	670.00000
24.65400	668.00000
24.67600	733.00000
24.69800	668.00000
24.72000	651.00000
24.74200	684.00000
24.76400	687.00000
24.78600	662.00000
24.80800	639.00000
24.83000	666.00000
24.85200	666.00000
24.87400	628.00000
24.89600	638.00000
24.91800	676.00000
24.94000	687.00000
24.96200	689.00000
24.98400	639.00000
25.00600	683.00000
25.02800	757.00000
25.05000	736.00000
25.07200	720.00000
25.09400	719.00000
25.11600	721.00000
25.13800	748.00000
25.16000	748.00000
25.18200	732.00000
25.20400	717.00000
25.22600	725.00000
25.24800	725.00000
25.27000	774.00000
25.29200	753.00000
25.31400	766.00000
25.33600	765.00000
25.35800	733.00000
25.38000	744.00000
25.40200	748.00000
25.42400	760.00000
25.44600	722.00000
25.46800	762.00000
25.49000	757.00000
25.51200	829.00000
25.53400	796.00000
25.55600	818.00000
25.57800	779.00000
25.60000	824.00000
25.62200	799.00000
25.64400	873.00000
25.66600	835.00000
25.68800	840.00000
25.71000	853.00000
25.73200	880.00000
25.75400	804.00000
25.77600	777.00000
25.79800	859.00000
25.82000	851.00000
25.84200	867.00000
25.86400	830.00000
25.88600	847.00000
25.90800	883.00000
25.93000	877.00000
25.95200	901.00000
25.97400	916.00000
25.99600	948.00000
26.01800	976.00000
26.04000	989.00000
26.06200	1053.00000
26.08400	1155.00000
26.10600	1245.00000
26.12800	1663.00000
26.15000	2150.00000
26.17200	3232.00000
26.19400	5050.00000
26.21600	7760.00000
26.23800	11135.00000
26.26000	14434.00000
26.28200	16792.00000
26.30400	17131.00000
26.32600	15664.00000
26.34800	12508.00000
26.37000	8883.00000
26.39200	6025.00000
26.41400	3925.00000
26.43600	2260.00000
26.45800	1353.00000
26.48000	1131.00000
26.50200	924.00000
26.52400	917.00000
26.54600	838.00000
26.56800	828.00000
26.59000	787.00000
26.61200	820.00000
26.63400	823.00000
26.65600	758.00000
26.67800	749.00000
26.70000	735.00000
26.72200	724.00000
26.74400	765.00000
26.76600	701.00000
26.78800	728.00000
26.81000	738.00000
26.83200	776.00000
26.85400	739.00000
26.87600	730.00000
26.89800	762.00000
26.92000	696.00000
26.94200	709.00000
26.96400	714.00000
26.98600	735.00000
27.00800	768.00000
27.03000	729.00000
27.05200	758.00000
27.07400	753.00000
27.09600	723.00000
27.11800	697.00000
27.14000	703.00000
27.16200	721.00000
27.18400	695.00000
27.20600	717.00000
27.22800	730.00000
27.25000	712.00000
27.27200	712.00000
27.29400	760.00000
27.31600	862.00000
27.33800	988.00000
27.36000	1374.00000
27.38200	1965.00000
27.40400	2683.00000
27.42600	3362.00000
27.44800	3593.00000
27.47000	3799.00000
27.49200	3382.00000
27.51400	2778.00000
27.53600	2150.00000
27.55800	1632.00000
27.58000	1229.00000
27.60200	906.00000
27.62400	759.00000
27.64600	715.00000
27.66800	675.00000
27.69000	699.00000
27.71200	634.00000
27.73400	641.00000
27.75600	623.00000
27.77800	607.00000
27.80000	616.00000
27.82200	632.00000
27.84400	632.00000
27.86600	644.00000
27.88800	654.00000
27.91000	629.00000
27.93200	633.00000
27.95400	621.00000
27.97600	626.00000
27.99800	654.00000
28.02000	658.00000
28.04200	705.00000
28.06400	764.00000
28.08600	930.00000
28.10800	1072.00000
28.13000	1331.00000
28.15200	1626.00000
28.17400	1828.00000
28.19600	1883.00000
28.21800	1864.00000
28.24000	1576.00000
28.26200	1231.00000
28.28400	984.00000
28.30600	880.00000
28.32800	704.00000
28.35000	640.00000
28.37200	656.00000
28.39400	633.00000
28.41600	641.00000
28.43800	550.00000
28.46000	587.00000
28.48200	629.00000
28.50400	642.00000
28.52600	620.00000
28.54800	604.00000
28.57000	607.00000
28.59200	614.00000
28.61400	612.00000
28.63600	588.00000
28.65800	588.00000
28.68000	626.00000
28.70200	612.00000
28.72400	630.00000
28.74600	601.00000
28.76800	623.00000
28.79000	628.00000
28.81200	619.00000
28.83400	595.00000
28.85600	608.00000
28.87800	624.00000
28.90000	610.00000
28.92200	640.00000
28.94400	653.00000
28.96600	571.00000
28.98800	591.00000
29.01000	639.00000
29.03200	605.00000
29.05400	535.00000
29.07600	608.00000
29.09800	640.00000
29.12000	631.00000
29.14200	618.00000
29.16400	590.00000
29.18600	639.00000
29.20800	594.00000
29.23000	637.00000
29.25200	633.00000
29.27400	688.00000
29.29600	613.00000
29.31800	599.00000
29.34000	622.00000
29.36200	608.00000
29.38400	662.00000
29.40600	626.00000
29.42800	621.00000
29.45000	627.00000
29.47200	673.00000
29.49400	627.00000
29.51600	683.00000
29.53800	696.00000
29.56000	730.00000
29.58200	766.00000
29.60400	831.00000
29.62600	1044.00000
29.64800	1218.00000
29.67000	1713.00000
29.69200	2556.00000
29.71400	3736.00000
29.73600	5126.00000
29.75800	6335.00000
29.78000	6948.00000
29.80200	6789.00000
29.82400	5880.00000
29.84600	4473.00000
29.86800	3345.00000
29.89000	2472.00000
29.91200	1683.00000
29.93400	1127.00000
29.95600	825.00000
29.97800	727.00000
30.00000	670.00000
30.02200	646.00000
30.04400	671.00000
30.06600	602.00000
30.08800	623.00000
30.11000	592.00000
30.13200	642.00000
30.15400	612.00000
30.17600	601.00000
30.19800	620.00000
30.22000	710.00000
30.24200	795.00000
30.26400	951.00000
30.28600	1083.00000
30.30800	1197.00000
30.33000	1183.00000
30.35200	1211.00000
30.37400	1130.00000
30.39600	946.00000
30.41800	825.00000
30.44000	755.00000
30.46200	639.00000
30.48400	619.00000
30.50600	582.00000
30.52800	593.00000
30.55000	552.00000
30.57200	564.00000
30.59400	526.00000
30.61600	520.00000
30.63800	561.00000
30.66000	523.00000
30.68200	594.00000
30.70400	545.00000
30.72600	621.00000
30.74800	562.00000
30.77000	573.00000
30.79200	540.00000
30.81400	536.00000
30.83600	546.00000
30.85800	564.00000
30.88000	529.00000
30.90200	533.00000
30.92400	497.00000
30.94600	514.00000
30.96800	511.00000
30.99000	497.00000
31.01200	535.00000
31.03400	482.00000
31.05600	499.00000
31.07800	516.00000
31.10000	498.00000
31.12200	506.00000
31.14400	550.00000
31.16600	504.00000
31.18800	540.00000
31.21000	465.00000
31.23200	505.00000
31.25400	526.00000
31.27600	455.00000
31.29800	482.00000
31.32000	544.00000
31.34200	518.00000
31.36400	545.00000
31.38600	533.00000
31.40800	540.00000
31.43000	535.00000
31.45200	531.00000
31.47400	539.00000
31.49600	525.00000
31.51800	530.00000
31.54000	538.00000
31.56200	543.00000
31.58400	511.00000
31.60600	596.00000
31.62800	645.00000
31.65000	761.00000
31.67200	895.00000
31.69400	1028.00000
31.71600	1267.00000
31.73800	1276.00000
31.76000	1304.00000
31.78200	1302.00000
31.80400	1172.00000
31.82600	900.00000
31.84800	839.00000
31.87000	784.00000
31.89200	720.00000
31.91400	709.00000
31.93600	669.00000
31.95800	720.00000
31.98000	667.00000
32.00200	626.00000
32.02400	626.00000
32.04600	563.00000
32.06800	568.00000
32.09000	567.00000
32.11200	532.00000
32.13400	494.00000
32.15600	480.00000
32.17800	472.00000
32.20000	479.00000
32.22200	456.00000
32.24400	496.00000
32.26600	478.00000
32.28800	484.00000
32.31000	500.00000
32.33200	497.00000
32.35400	537.00000
32.37600	516.00000
32.39800	489.00000
32.42000	502.00000
32.44200	522.00000
32.46400	549.00000
32.48600	600.00000
32.50800	655.00000
32.53000	805.00000
32.55200	986.00000
32.57400	1252.00000
32.59600	1524.00000
32.61800	1728.00000
32.64000	1868.00000
32.66200	1825.00000
32.68400	1876.00000
32.70600	1623.00000
32.72800	1313.00000
32.75000	1055.00000
32.77200	921.00000
32.79400	802.00000
32.81600	618.00000
32.83800	512.00000
32.86000	502.00000
32.88200	516.00000
32.90400	482.00000
32.92600	483.00000
32.94800	480.00000
32.97000	501.00000
32.99200	446.00000
33.01400	477.00000
33.03600	505.00000
33.05800	496.00000
33.08000	467.00000
33.10200	494.00000
33.12400	487.00000
33.14600	486.00000
33.16800	454.00000
33.19000	515.00000
33.21200	467.00000
33.23400	458.00000
33.25600	430.00000
33.27800	486.00000
33.30000	523.00000
33.32200	489.00000
33.34400	469.00000
33.36600	540.00000
33.38800	473.00000
33.41000	473.00000
33.43200	500.00000
33.45400	520.00000
33.47600	500.00000
33.49800	514.00000
33.52000	505.00000
33.54200	488.00000
33.56400	513.00000
33.58600	484.00000
33.60800	508.00000
33.63000	510.00000
33.65200	539.00000
33.67400	555.00000
33.69600	595.00000
33.71800	584.00000
33.74000	763.00000
33.76200	996.00000
33.78400	1427.00000
33.80600	2030.00000
33.82800	2844.00000
33.85000	3332.00000
33.87200	3690.00000
33.89400	3851.00000
33.91600	3654.00000
33.93800	3042.00000
33.96000	2301.00000
33.98200	1838.00000
34.00400	1476.00000
34.02600	1124.00000
34.04800	806.00000
34.07000	644.00000
34.09200	546.00000
34.11400	506.00000
34.13600	503.00000
34.15800	469.00000
34.18000	463.00000
34.20200	502.00000
34.22400	448.00000
34.24600	445.00000
34.26800	448.00000
34.29000	421.00000
34.31200	430.00000
34.33400	428.00000
34.35600	462.00000
34.37800	466.00000
34.40000	441.00000
34.42200	452.00000
34.44400	449.00000
34.46600	466.00000
34.48800	413.00000
34.51000	412.00000
34.53200	392.00000
34.55400	392.00000
34.57600	377.00000
34.59800	405.00000
34.62000	411.00000
34.64200	408.00000
34.66400	414.00000
34.68600	379.00000
34.70800	397.00000
34.73000	405.00000
34.75200	385.00000
34.77400	355.00000
34.79600	384.00000
34.81800	409.00000
34.84000	371.00000
34.86200	393.00000
34.88400	384.00000
34.90600	402.00000
34.92800	402.00000
34.95000	412.00000
34.97200	376.00000
34.99400	368.00000
35.01600	414.00000
35.03800	383.00000
35.06000	381.00000
35.08200	380.00000
35.10400	401.00000
35.12600	362.00000
35.14800	340.00000
35.17000	380.00000
35.19200	374.00000
35.21400	404.00000
35.23600	392.00000
35.25800	402.00000
35.28000	404.00000
35.30200	360.00000
35.32400	369.00000
35.34600	399.00000
35.36800	366.00000
35.39000	378.00000
35.41200	363.00000
35.43400	359.00000
35.45600	385.00000
35.47800	374.00000
35.50000	378.00000
35.52200	390.00000
35.54400	410.00000
35.56600	410.00000
35.58800	365.00000
35.61000	363.00000
35.63200	390.00000
35.65400	390.00000
35.67600	351.00000
35.69800	342.00000
35.72000	379.00000
35.74200	378.00000
35.76400	444.00000
35.78600	355.00000
35.80800	389.00000
35.83000	392.00000
35.85200	367.00000
35.87400	373.00000
35.89600	419.00000
35.91800	364.00000
35.94000	378.00000
35.96200	406.00000
35.98400	394.00000
36.00600	405.00000
36.02800	377.00000
36.05000	380.00000
36.07200	396.00000
36.09400	386.00000
36.11600	381.00000
36.13800	378.00000
36.16000	349.00000
36.18200	370.00000
36.20400	368.00000
36.22600	374.00000
36.24800	387.00000
36.27000	383.00000
36.29200	356.00000
36.31400	372.00000
36.33600	392.00000
36.35800	400.00000
36.38000	372.00000
36.40200	381.00000
36.42400	346.00000
36.44600	375.00000
36.46800	356.00000
36.49000	361.00000
36.51200	369.00000
36.53400	394.00000
36.55600	359.00000
36.57800	426.00000
36.60000	371.00000
36.62200	399.00000
36.64400	397.00000
36.66600	442.00000
36.68800	396.00000
36.71000	406.00000
36.73200	402.00000
36.75400	433.00000
36.77600	375.00000
36.79800	425.00000
36.82000	397.00000
36.84200	451.00000
36.86400	449.00000
36.88600	499.00000
36.90800	598.00000
36.93000	780.00000
36.95200	976.00000
36.97400	1295.00000
36.99600	1571.00000
37.01800	1784.00000
37.04000	1866.00000
37.06200	1967.00000
37.08400	1825.00000
37.10600	1740.00000
37.12800	1383.00000
37.15000	1201.00000
37.17200	1034.00000
37.19400	805.00000
37.21600	678.00000
37.23800	564.00000
37.26000	567.00000
37.28200	446.00000
37.30400	417.00000
37.32600	434.00000
37.34800	409.00000
37.37000	420.00000
37.39200	367.00000
37.41400	396.00000
37.43600	367.00000
37.45800	405.00000
37.48000	351.00000
37.50200	394.00000
37.52400	361.00000
37.54600	360.00000
37.56800	407.00000
37.59000	363.00000
37.61200	371.00000
37.63400	347.00000
37.65600	403.00000
37.67800	399.00000
37.70000	386.00000
37.72200	412.00000
37.74400	391.00000
37.76600	398.00000
37.78800	442.00000
37.81000	483.00000
37.83200	567.00000
37.85400	785.00000
37.87600	1193.00000
37.89800	1498.00000
37.92000	1901.00000
37.94200	2120.00000
37.96400	2229.00000
37.98600	2131.00000
38.00800	2020.00000
38.03000	1686.00000
38.05200	1284.00000
38.07400	1168.00000
38.09600	918.00000
38.11800	785.00000
38.14000	554.00000
38.16200	452.00000
38.18400	424.00000
38.20600	393.00000
38.22800	383.00000
38.25000	391.00000
38.27200	384.00000
38.29400	367.00000
38.31600	382.00000
38.33800	390.00000
38.36000	384.00000
38.38200	350.00000
38.40400	360.00000
38.42600	351.00000
38.44800	400.00000
38.47000	325.00000
38.49200	361.00000
38.51400	337.00000
38.53600	354.00000
38.55800	350.00000
38.58000	319.00000
38.60200	325.00000
38.62400	317.00000
38.64600	339.00000
38.66800	355.00000
38.69000	353.00000
38.71200	348.00000
38.73400	319.00000
38.75600	336.00000
38.77800	304.00000
38.80000	372.00000
38.82200	352.00000
38.84400	345.00000
38.86600	305.00000
38.88800	331.00000
38.91000	335.00000
38.93200	311.00000
38.95400	335.00000
38.97600	354.00000
38.99800	322.00000
39.02000	321.00000
39.04200	304.00000
39.06400	336.00000
39.08600	306.00000
39.10800	321.00000
39.13000	326.00000
39.15200	311.00000
39.17400	324.00000
39.19600	302.00000
39.21800	313.00000
39.24000	339.00000
39.26200	315.00000
39.28400	289.00000
39.30600	305.00000
39.32800	311.00000
39.35000	301.00000
39.37200	293.00000
39.39400	298.00000
39.41600	308.00000
39.43800	328.00000
39.46000	314.00000
39.48200	303.00000
39.50400	329.00000
39.52600	351.00000
39.54800	374.00000
39.57000	332.00000
39.59200	334.00000
39.61400	345.00000
39.63600	339.00000
39.65800	336.00000
39.68000	313.00000
39.70200	357.00000
39.72400	326.00000
39.74600	345.00000
39.76800	315.00000
39.79000	352.00000
39.81200	307.00000
39.83400	341.00000
39.85600	345.00000
39.87800	326.00000
39.90000	345.00000
39.92200	343.00000
39.94400	305.00000
39.96600	312.00000
39.98800	330.00000
40.01000	307.00000
40.03200	325.00000
40.05400	291.00000
40.07600	318.00000
40.09800	358.00000
40.12000	343.00000
40.14200	330.00000
40.16400	350.00000
40.18600	319.00000
40.20800	327.00000
40.23000	350.00000
40.25200	365.00000
40.27400	377.00000
40.29600	387.00000
40.31800	394.00000
40.34000	410.00000
40.36200	462.00000
40.38400	425.00000
40.40600	471.00000
40.42800	402.00000
40.45000	393.00000
40.47200	365.00000
40.49400	383.00000
40.51600	376.00000
40.53800	391.00000
40.56000	363.00000
40.58200	338.00000
40.60400	318.00000
40.62600	280.00000
40.64800	287.00000
40.67000	292.00000
40.69200	311.00000
40.71400	343.00000
40.73600	345.00000
40.75800	312.00000
40.78000	295.00000
40.80200	329.00000
40.82400	345.00000
40.84600	319.00000
40.86800	337.00000
40.89000	335.00000
40.91200	317.00000
40.93400	308.00000
40.95600	332.00000
40.97800	319.00000
41.00000	331.00000
41.02200	318.00000
41.04400	358.00000
41.06600	357.00000
41.08800	331.00000
41.11000	327.00000
41.13200	320.00000
41.15400	350.00000
41.17600	314.00000
41.19800	354.00000
41.22000	326.00000
41.24200	388.00000
41.26400	349.00000
41.28600	360.00000
41.30800	372.00000
41.33000	451.00000
41.35200	549.00000
41.37400	645.00000
41.39600	771.00000
41.41800	890.00000
41.44000	978.00000
41.46200	952.00000
41.48400	1012.00000
41.50600	935.00000
41.52800	749.00000
41.55000	661.00000
41.57200	589.00000
41.59400	572.00000
41.61600	534.00000
41.63800	467.00000
41.66000	364.00000
41.68200	327.00000
41.70400	382.00000
41.72600	377.00000
41.74800	330.00000
41.77000	348.00000
41.79200	339.00000
41.81400	367.00000
41.83600	393.00000
41.85800	455.00000
41.88000	509.00000
41.90200	515.00000
41.92400	539.00000
41.94600	617.00000
41.96800	620.00000
41.99000	619.00000
42.01200	527.00000
42.03400	513.00000
42.05600	483.00000
42.07800	454.00000
42.10000	434.00000
42.12200	431.00000
42.14400	413.00000
42.16600	355.00000
42.18800	373.00000
42.21000	364.00000
42.23200	399.00000
42.25400	412.00000
42.27600	425.00000
42.29800	416.00000
42.32000	434.00000
42.34200	522.00000
42.36400	594.00000
42.38600	884.00000
42.40800	1143.00000
42.43000	1502.00000
42.45200	1736.00000
42.47400	1788.00000
42.49600	1914.00000
42.51800	1985.00000
42.54000	1854.00000
42.56200	1612.00000
42.58400	1202.00000
42.60600	979.00000
42.62800	939.00000
42.65000	832.00000
42.67200	694.00000
42.69400	508.00000
42.71600	424.00000
42.73800	397.00000
42.76000	396.00000
42.78200	330.00000
42.80400	387.00000
42.82600	357.00000
42.84800	367.00000
42.87000	399.00000
42.89200	397.00000
42.91400	433.00000
42.93600	520.00000
42.95800	469.00000
42.98000	529.00000
43.00200	582.00000
43.02400	576.00000
43.04600	555.00000
43.06800	581.00000
43.09000	537.00000
43.11200	565.00000
43.13400	627.00000
43.15600	618.00000
43.17800	652.00000
43.20000	601.00000
43.22200	630.00000
43.24400	681.00000
43.26600	556.00000
43.28800	500.00000
43.31000	454.00000
43.33200	454.00000
43.35400	463.00000
43.37600	416.00000
43.39800	362.00000
43.42000	325.00000
43.44200	335.00000
43.46400	328.00000
43.48600	344.00000
43.50800	321.00000
43.53000	328.00000
43.55200	327.00000
43.57400	369.00000
43.59600	328.00000
43.61800	304.00000
43.64000	333.00000
43.66200	313.00000
43.68400	306.00000
43.70600	310.00000
43.72800	353.00000
43.75000	346.00000
43.77200	320.00000
43.79400	304.00000
43.81600	362.00000
43.83800	322.00000
43.86000	350.00000
43.88200	368.00000
43.90400	400.00000
43.92600	449.00000
43.94800	541.00000
43.97000	626.00000
43.99200	684.00000
44.01400	755.00000
44.03600	779.00000
44.05800	804.00000
44.08000	760.00000
44.10200	743.00000
44.12400	664.00000
44.14600	595.00000
44.16800	533.00000
44.19000	520.00000
44.21200	448.00000
44.23400	459.00000
44.25600	387.00000
44.27800	348.00000
44.30000	338.00000
44.32200	296.00000
44.34400	339.00000
44.36600	298.00000
44.38800	306.00000
44.41000	313.00000
44.43200	299.00000
44.45400	342.00000
44.47600	322.00000
44.49800	333.00000
44.52000	335.00000
44.54200	349.00000
44.56400	361.00000
44.58600	378.00000
44.60800	458.00000
44.63000	616.00000
44.65200	659.00000
44.67400	879.00000
44.69600	1070.00000
44.71800	1155.00000
44.74000	1230.00000
44.76200	1279.00000
44.78400	1289.00000
44.80600	1260.00000
44.82800	1065.00000
44.85000	868.00000
44.87200	734.00000
44.89400	663.00000
44.91600	627.00000
44.93800	527.00000
44.96000	377.00000
44.98200	360.00000
45.00400	327.00000
45.02600	292.00000
45.04800	309.00000
45.07000	305.00000
45.09200	331.00000
45.11400	305.00000
45.13600	294.00000
45.15800	276.00000
45.18000	338.00000
45.20200	301.00000
45.22400	266.00000
45.24600	280.00000
45.26800	286.00000
45.29000	277.00000
45.31200	295.00000
45.33400	283.00000
45.35600	302.00000
45.37800	300.00000
45.40000	301.00000
45.42200	302.00000
45.44400	272.00000
45.46600	280.00000
45.48800	270.00000
45.51000	253.00000
45.53200	281.00000
45.55400	310.00000
45.57600	285.00000
45.59800	290.00000
45.62000	309.00000
45.64200	293.00000
45.66400	301.00000
45.68600	303.00000
45.70800	317.00000
45.73000	265.00000
45.75200	300.00000
45.77400	290.00000
45.79600	301.00000
45.81800	288.00000
45.84000	304.00000
45.86200	283.00000
45.88400	289.00000
45.90600	254.00000
45.92800	268.00000
45.95000	298.00000
45.97200	271.00000
45.99400	248.00000
46.01600	267.00000
46.03800	292.00000
46.06000	239.00000
46.08200	269.00000
46.10400	284.00000
46.12600	325.00000
46.14800	276.00000
46.17000	282.00000
46.19200	275.00000
46.21400	269.00000
46.23600	290.00000
46.25800	267.00000
46.28000	296.00000
46.30200	288.00000
46.32400	270.00000
46.34600	289.00000
46.36800	287.00000
46.39000	273.00000
46.41200	318.00000
46.43400	250.00000
46.45600	258.00000
46.47800	310.00000
46.50000	309.00000
46.52200	311.00000
46.54400	303.00000
46.56600	320.00000
46.58800	350.00000
46.61000	363.00000
46.63200	450.00000
46.65400	430.00000
46.67600	458.00000
46.69800	441.00000
46.72000	468.00000
46.74200	460.00000
46.76400	417.00000
46.78600	390.00000
46.80800	359.00000
46.83000	341.00000
46.85200	346.00000
46.87400	291.00000
46.89600	328.00000
46.91800	292.00000
46.94000	290.00000
46.96200	335.00000
46.98400	285.00000
47.00600	267.00000
47.02800	299.00000
47.05000	294.00000
47.07200	307.00000
47.09400	311.00000
47.11600	316.00000
47.13800	283.00000
47.16000	265.00000
47.18200	262.00000
47.20400	297.00000
47.22600	313.00000
47.24800	325.00000
47.27000	264.00000
47.29200	244.00000
47.31400	267.00000
47.33600	250.00000
47.35800	254.00000
47.38000	304.00000
47.40200	276.00000
47.42400	271.00000
47.44600	319.00000
47.46800	326.00000
47.49000	269.00000
47.51200	275.00000
47.53400	270.00000
47.55600	288.00000
47.57800	281.00000
47.60000	258.00000
47.62200	259.00000
47.64400	251.00000
47.66600	274.00000
47.68800	276.00000
47.71000	280.00000
47.73200	231.00000
47.75400	270.00000
47.77600	257.00000
47.79800	258.00000
47.82000	288.00000
47.84200	275.00000
47.86400	300.00000
47.88600	306.00000
47.90800	312.00000
47.93000	296.00000
47.95200	284.00000
47.97400	282.00000
47.99600	273.00000
48.01800	314.00000
48.04000	269.00000
48.06200	346.00000
48.08400	390.00000
48.10600	494.00000
48.12800	626.00000
48.15000	707.00000
48.17200	761.00000
48.19400	826.00000
48.21600	902.00000
48.23800	923.00000
48.26000	920.00000
48.28200	800.00000
48.30400	660.00000
48.32600	569.00000
48.34800	522.00000
48.37000	495.00000
48.39200	466.00000
48.41400	416.00000
48.43600	343.00000
48.45800	290.00000
48.48000	297.00000
48.50200	301.00000
48.52400	309.00000
48.54600	281.00000
48.56800	289.00000
48.59000	279.00000
48.61200	285.00000
48.63400	283.00000
48.65600	290.00000
48.67800	292.00000
48.70000	269.00000
48.72200	283.00000
48.74400	277.00000
48.76600	275.00000
48.78800	284.00000
48.81000	273.00000
48.83200	294.00000
48.85400	267.00000
48.87600	278.00000
48.89800	274.00000
48.92000	273.00000
48.94200	265.00000
48.96400	281.00000
48.98600	273.00000
49.00800	273.00000
49.03000	266.00000
49.05200	286.00000
49.07400	248.00000
49.09600	251.00000
49.11800	278.00000
49.14000	256.00000
49.16200	266.00000
49.18400	285.00000
49.20600	280.00000
49.22800	291.00000
49.25000	262.00000
49.27200	306.00000
49.29400	271.00000
49.31600	267.00000
49.33800	288.00000
49.36000	274.00000
49.38200	326.00000
49.40400	283.00000
49.42600	263.00000
49.44800	296.00000
49.47000	278.00000
49.49200	274.00000
49.51400	296.00000
49.53600	285.00000
49.55800	335.00000
49.58000	338.00000
49.60200	325.00000
49.62400	317.00000
49.64600	330.00000
49.66800	347.00000
49.69000	373.00000
49.71200	352.00000
49.73400	379.00000
49.75600	309.00000
49.77800	322.00000
49.80000	401.00000
49.82200	442.00000
49.84400	473.00000
49.86600	558.00000
49.88800	563.00000
49.91000	602.00000
49.93200	576.00000
49.95400	648.00000
49.97600	655.00000
49.99800	581.00000
50.02000	496.00000
50.04200	468.00000
50.06400	433.00000
50.08600	416.00000
50.10800	423.00000
50.13000	432.00000
50.15200	367.00000
50.17400	347.00000
50.19600	334.00000
50.21800	342.00000
50.24000	349.00000
50.26200	325.00000
50.28400	354.00000
50.30600	356.00000
50.32800	349.00000
50.35000	344.00000
50.37200	300.00000
50.39400	349.00000
50.41600	346.00000
50.43800	337.00000
50.46000	325.00000
50.48200	318.00000
50.50400	297.00000
50.52600	329.00000
50.54800	347.00000
50.57000	374.00000
50.59200	367.00000
50.61400	423.00000
50.63600	573.00000
50.65800	854.00000
50.68000	942.00000
50.70200	1071.00000
50.72400	1134.00000
50.74600	1209.00000
50.76800	1393.00000
50.79000	1419.00000
50.81200	1210.00000
50.83400	933.00000
50.85600	791.00000
50.87800	736.00000
50.90000	785.00000
50.92200	722.00000
50.94400	612.00000
50.96600	526.00000
50.98800	426.00000
51.01000	397.00000
51.03200	365.00000
51.05400	334.00000
51.07600	332.00000
51.09800	313.00000
51.12000	321.00000
51.14200	293.00000
51.16400	304.00000
51.18600	268.00000
51.20800	302.00000
51.23000	320.00000
51.25200	277.00000
51.27400	265.00000
51.29600	269.00000
51.31800	305.00000
51.34000	385.00000
51.36200	392.00000
51.38400	398.00000
51.40600	395.00000
51.42800	444.00000
51.45000	403.00000
51.47200	413.00000
51.49400	389.00000
51.51600	391.00000
51.53800	314.00000
51.56000	331.00000
51.58200	337.00000
51.60400	332.00000
51.62600	339.00000
51.64800	289.00000
51.67000	264.00000
51.69200	282.00000
51.71400	307.00000
51.73600	288.00000
51.75800	260.00000
51.78000	270.00000
51.80200	263.00000
51.82400	249.00000
51.84600	313.00000
51.86800	254.00000
51.89000	273.00000
51.91200	280.00000
51.93400	255.00000
51.95600	278.00000
51.97800	281.00000
52.00000	324.00000
52.02200	271.00000
52.04400	271.00000
52.06600	258.00000
52.08800	283.00000
52.11000	284.00000
52.13200	314.00000
52.15400	299.00000
52.17600	339.00000
52.19800	354.00000
52.22000	394.00000
52.24200	419.00000
52.26400	424.00000
52.28600	446.00000
52.30800	474.00000
52.33000	453.00000
52.35200	439.00000
52.37400	418.00000
52.39600	396.00000
52.41800	352.00000
52.44000	400.00000
52.46200	362.00000
52.48400	342.00000
52.50600	331.00000
52.52800	336.00000
52.55000	392.00000
52.57200	405.00000
52.59400	410.00000
52.61600	416.00000
52.63800	413.00000
52.66000	423.00000
52.68200	406.00000
52.70400	441.00000
52.72600	385.00000
52.74800	359.00000
52.77000	347.00000
52.79200	345.00000
52.81400	308.00000
52.83600	305.00000
52.85800	307.00000
52.88000	299.00000
52.90200	255.00000
52.92400	257.00000
52.94600	280.00000
52.96800	281.00000
52.99000	281.00000
53.01200	277.00000
53.03400	309.00000
53.05600	249.00000
53.07800	289.00000
53.10000	320.00000
53.12200	250.00000
53.14400	270.00000
53.16600	270.00000
53.18800	300.00000
53.21000	269.00000
53.23200	252.00000
53.25400	283.00000
53.27600	244.00000
53.29800	249.00000
53.32000	285.00000
53.34200	273.00000
53.36400	282.00000
53.38600	290.00000
53.40800	287.00000
53.43000	288.00000
53.45200	284.00000
53.47400	269.00000
53.49600	261.00000
53.51800	268.00000
53.54000	286.00000
53.56200	296.00000
53.58400	296.00000
53.60600	259.00000
53.62800	293.00000
53.65000	280.00000
53.67200	288.00000
53.69400	268.00000
53.71600	318.00000
53.73800	275.00000
53.76000	280.00000
53.78200	285.00000
53.80400	288.00000
53.82600	270.00000
53.84800	303.00000
53.87000	302.00000
53.89200	288.00000
53.91400	354.00000
53.93600	408.00000
53.95800	443.00000
53.98000	521.00000
54.00200	559.00000
54.02400	620.00000
54.04600	651.00000
54.06800	721.00000
54.09000	709.00000
54.11200	690.00000
54.13400	600.00000
54.15600	620.00000
54.17800	532.00000
54.20000	523.00000
54.22200	452.00000
54.24400	456.00000
54.26600	476.00000
54.28800	424.00000
54.31000	369.00000
54.33200	322.00000
54.35400	296.00000
54.37600	315.00000
54.39800	329.00000
54.42000	297.00000
54.44200	281.00000
54.46400	318.00000
54.48600	298.00000
54.50800	269.00000
54.53000	322.00000
54.55200	284.00000
54.57400	273.00000
54.59600	258.00000
54.61800	268.00000
54.64000	277.00000
54.66200	277.00000
54.68400	278.00000
54.70600	248.00000
54.72800	245.00000
54.75000	234.00000
54.77200	281.00000
54.79400	292.00000
54.81600	289.00000
54.83800	264.00000
54.86000	293.00000
54.88200	259.00000
54.90400	251.00000
54.92600	250.00000
54.94800	300.00000
54.97000	292.00000
54.99200	276.00000
55.01400	280.00000
55.03600	245.00000
55.05800	265.00000
55.08000	257.00000
55.10200	272.00000
55.12400	297.00000
55.14600	247.00000
55.16800	272.00000
55.19000	294.00000
55.21200	301.00000
55.23400	270.00000
55.25600	299.00000
55.27800	272.00000
55.30000	274.00000
55.32200	305.00000
55.34400	339.00000
55.36600	383.00000
55.38800	399.00000
55.41000	440.00000
55.43200	473.00000
55.45400	505.00000
55.47600	526.00000
55.49800	554.00000
55.52000	572.00000
55.54200	579.00000
55.56400	558.00000
55.58600	466.00000
55.60800	385.00000
55.63000	439.00000
55.65200	372.00000
55.67400	385.00000
55.69600	399.00000
55.71800	383.00000
55.74000	301.00000
55.76200	291.00000
55.78400	279.00000
55.80600	292.00000
55.82800	298.00000
55.85000	279.00000
55.87200	299.00000
55.89400	308.00000
55.91600	267.00000
55.93800	277.00000
55.96000	277.00000
55.98200	280.00000
56.00400	293.00000
56.02600	301.00000
56.04800	282.00000
56.07000	256.00000
56.09200	275.00000
56.11400	298.00000
56.13600	323.00000
56.15800	275.00000
56.18000	321.00000
56.20200	289.00000
56.22400	301.00000
56.24600	283.00000
56.26800	308.00000
56.29000	278.00000
56.31200	348.00000
56.33400	350.00000
56.35600	404.00000
56.37800	507.00000
56.40000	596.00000
56.42200	632.00000
56.44400	710.00000
56.46600	703.00000
56.48800	750.00000
56.51000	822.00000
56.53200	807.00000
56.55400	747.00000
56.57600	630.00000
56.59800	528.00000
56.62000	549.00000
56.64200	541.00000
56.66400	515.00000
56.68600	484.00000
56.70800	429.00000
56.73000	391.00000
56.75200	331.00000
56.77400	296.00000
56.79600	347.00000
56.81800	310.00000
56.84000	273.00000
56.86200	286.00000
56.88400	318.00000
56.90600	302.00000
56.92800	291.00000
56.95000	281.00000
56.97200	262.00000
56.99400	279.00000
57.01600	286.00000
57.03800	270.00000
57.06000	302.00000
57.08200	255.00000
57.10400	277.00000
57.12600	254.00000
57.14800	260.00000
57.17000	282.00000
57.19200	267.00000
57.21400	280.00000
57.23600	260.00000
57.25800	295.00000
57.28000	266.00000
57.30200	276.00000
57.32400	311.00000
57.34600	273.00000
57.36800	274.00000
57.39000	248.00000
57.41200	283.00000
57.43400	284.00000
57.45600	271.00000
57.47800	275.00000
57.50000	305.00000
57.52200	292.00000
57.54400	257.00000
57.56600	295.00000
57.58800	269.00000
57.61000	269.00000
57.63200	266.00000
57.65400	293.00000
57.67600	295.00000
57.69800	274.00000
57.72000	258.00000
57.74200	285.00000
57.76400	302.00000
57.78600	285.00000
57.80800	254.00000
57.83000	296.00000
57.85200	278.00000
57.87400	272.00000
57.89600	289.00000
57.91800	281.00000
57.94000	303.00000
57.96200	322.00000
57.98400	319.00000
58.00600	353.00000
58.02800	392.00000
58.05000	422.00000
58.07200	438.00000
58.09400	480.00000
58.11600	491.00000
58.13800	567.00000
58.16000	520.00000
58.18200	516.00000
58.20400	482.00000
58.22600	446.00000
58.24800	485.00000
58.27000	443.00000
58.29200	430.00000
58.31400	411.00000
58.33600	415.00000
58.35800	356.00000
58.38000	337.00000
58.40200	329.00000
58.42400	349.00000
58.44600	319.00000
58.46800	292.00000
58.49000	291.00000
58.51200	233.00000
58.53400	276.00000
58.55600	302.00000
58.57800	268.00000
58.60000	262.00000
58.62200	284.00000
58.64400	298.00000
58.66600	275.00000
58.68800	269.00000
58.71000	299.00000
58.73200	275.00000
58.75400	264.00000
58.77600	282.00000
58.79800	281.00000
58.82000	263.00000
58.84200	269.00000
58.86400	273.00000
58.88600	289.00000
58.90800	271.00000
58.93000	314.00000
58.95200	295.00000
58.97400	267.00000
58.99600	265.00000
59.01800	284.00000
59.04000	293.00000
59.06200	254.00000
59.08400	310.00000
59.10600	346.00000
59.12800	374.00000
59.15000	429.00000
59.17200	423.00000
59.19400	469.00000
59.21600	471.00000
59.23800	454.00000
59.26000	461.00000
59.28200	482.00000
59.30400	448.00000
59.32600	396.00000
59.34800	352.00000
59.37000	389.00000
59.39200	355.00000
59.41400	355.00000
59.43600	339.00000
59.45800	322.00000
59.48000	338.00000
59.50200	290.00000
59.52400	260.00000
59.54600	297.00000
59.56800	299.00000
59.59000	296.00000
59.61200	264.00000
59.63400	292.00000
59.65600	269.00000
59.67800	285.00000
59.70000	246.00000
59.72200	283.00000
59.74400	315.00000
59.76600	278.00000
59.78800	265.00000
59.81000	255.00000
59.83200	297.00000
59.85400	276.00000
59.87600	283.00000
59.89800	277.00000
59.92000	286.00000
59.94200	295.00000
59.96400	265.00000
59.98600	285.00000
60.00800	265.00000
60.03000	266.00000
60.05200	300.00000
60.07400	280.00000
60.09600	290.00000
60.11800	289.00000
60.14000	253.00000
60.16200	304.00000
60.18400	260.00000
60.20600	282.00000
60.22800	269.00000
60.25000	272.00000
60.27200	322.00000
60.29400	340.00000
60.31600	355.00000
60.33800	412.00000
60.36000	460.00000
60.38200	553.00000
60.40400	566.00000
60.42600	557.00000
60.44800	615.00000
60.47000	572.00000
60.49200	624.00000
60.51400	580.00000
60.53600	519.00000
60.55800	443.00000
60.58000	406.00000
60.60200	404.00000
60.62400	404.00000
60.64600	421.00000
60.66800	367.00000
60.69000	327.00000
60.71200	314.00000
60.73400	293.00000
60.75600	291.00000
60.77800	252.00000
60.80000	309.00000
60.82200	255.00000
60.84400	259.00000
60.86600	296.00000
60.88800	305.00000
60.91000	285.00000
60.93200	287.00000
60.95400	287.00000
60.97600	268.00000
60.99800	294.00000
61.02000	256.00000
61.04200	255.00000
61.06400	291.00000
61.08600	278.00000
61.10800	298.00000
61.13000	293.00000
61.15200	276.00000
61.17400	309.00000
61.19600	285.00000
61.21800	282.00000
61.24000	307.00000
61.26200	304.00000
61.28400	295.00000
61.30600	303.00000
61.32800	316.00000
61.35000	328.00000
61.37200	297.00000
61.39400	363.00000
61.41600	316.00000
61.43800	299.00000
61.46000	295.00000
61.48200	286.00000
61.50400	342.00000
61.52600	290.00000
61.54800	309.00000
61.57000	336.00000
61.59200	355.00000
61.61400	429.00000
61.63600	466.00000
61.65800	521.00000
61.68000	570.00000
61.70200	656.00000
61.72400	767.00000
61.74600	866.00000
61.76800	751.00000
61.79000	706.00000
61.81200	671.00000
61.83400	635.00000
61.85600	656.00000
61.87800	616.00000
61.90000	563.00000
61.92200	560.00000
61.94400	471.00000
61.96600	433.00000
61.98800	411.00000
62.01000	375.00000
62.03200	374.00000
62.05400	340.00000
62.07600	310.00000
62.09800	271.00000
62.12000	279.00000
62.14200	319.00000
62.16400	300.00000
62.18600	300.00000
62.20800	293.00000
62.23000	290.00000
62.25200	305.00000
62.27400	297.00000
62.29600	291.00000
62.31800	302.00000
62.34000	307.00000
62.36200	302.00000
62.38400	288.00000
62.40600	271.00000
62.42800	266.00000
62.45000	271.00000
62.47200	301.00000
62.49400	290.00000
62.51600	256.00000
62.53800	265.00000
62.56000	264.00000
62.58200	279.00000
62.60400	261.00000
62.62600	284.00000
62.64800	233.00000
62.67000	269.00000
62.69200	251.00000
62.71400	255.00000
62.73600	282.00000
62.75800	278.00000
62.78000	269.00000
62.80200	269.00000
62.82400	311.00000
62.84600	282.00000
62.86800	308.00000
62.89000	342.00000
62.91200	331.00000
62.93400	314.00000
62.95600	361.00000
62.97800	304.00000
63.00000	353.00000
63.02200	302.00000
63.04400	318.00000
63.06600	323.00000
63.08800	329.00000
63.11000	340.00000
63.13200	327.00000
63.15400	309.00000
63.17600	352.00000
63.19800	377.00000
63.22000	336.00000
63.24200	323.00000
63.26400	348.00000
63.28600	325.00000
63.30800	370.00000
63.33000	352.00000
63.35200	363.00000
63.37400	353.00000
63.39600	369.00000
63.41800	377.00000
63.44000	356.00000
63.46200	389.00000
63.48400	349.00000
63.50600	346.00000
63.52800	354.00000
63.55000	320.00000
63.57200	303.00000
63.59400	316.00000
63.61600	292.00000
63.63800	276.00000
63.66000	283.00000
63.68200	291.00000
63.70400	257.00000
63.72600	266.00000
63.74800	298.00000
63.77000	273.00000
63.79200	279.00000
63.81400	247.00000
63.83600	298.00000
63.85800	286.00000
63.88000	235.00000
63.90200	261.00000
63.92400	289.00000
63.94600	295.00000
63.96800	271.00000
63.99000	264.00000
64.01200	277.00000
64.03400	264.00000
64.05600	243.00000
64.07800	241.00000
64.10000	243.00000
64.12200	261.00000
64.14400	281.00000
64.16600	255.00000
64.18800	268.00000
64.21000	272.00000
64.23200	270.00000
64.25400	288.00000
64.27600	237.00000
64.29800	261.00000
64.32000	256.00000
64.34200	244.00000
64.36400	254.00000
64.38600	252.00000
64.40800	257.00000
64.43000	242.00000
64.45200	258.00000
64.47400	228.00000
64.49600	267.00000
64.51800	241.00000
64.54000	243.00000
64.56200	269.00000
64.58400	271.00000
64.60600	244.00000
64.62800	266.00000
64.65000	273.00000
64.67200	256.00000
64.69400	267.00000
64.71600	286.00000
64.73800	257.00000
64.76000	263.00000
64.78200	280.00000
64.80400	286.00000
64.82600	252.00000
64.84800	255.00000
64.87000	279.00000
64.89200	264.00000
64.91400	257.00000
64.93600	299.00000
64.95800	257.00000
64.98000	271.00000
65.00200	298.00000
65.02400	319.00000
65.04600	340.00000
65.06800	365.00000
65.09000	364.00000
65.11200	339.00000
65.13400	380.00000
65.15600	368.00000
65.17800	392.00000
65.20000	398.00000
65.22200	379.00000
65.24400	360.00000
65.26600	355.00000
65.28800	344.00000
65.31000	303.00000
65.33200	303.00000
65.35400	320.00000
65.37600	314.00000
65.39800	275.00000
65.42000	292.00000
65.44200	277.00000
65.46400	285.00000
65.48600	285.00000
65.50800	267.00000
65.53000	273.00000
65.55200	254.00000
65.57400	263.00000
65.59600	271.00000
65.61800	256.00000
65.64000	223.00000
65.66200	264.00000
65.68400	245.00000
65.70600	249.00000
65.72800	243.00000
65.75000	250.00000
65.77200	301.00000
65.79400	286.00000
65.81600	282.00000
65.83800	303.00000
65.86000	297.00000
65.88200	331.00000
65.90400	331.00000
65.92600	336.00000
65.94800	317.00000
65.97000	351.00000
65.99200	343.00000
66.01400	321.00000
66.03600	325.00000
66.05800	282.00000
66.08000	311.00000
66.10200	290.00000
66.12400	303.00000
66.14600	279.00000
66.16800	296.00000
66.19000	317.00000
66.21200	312.00000
66.23400	270.00000
66.25600	292.00000
66.27800	272.00000
66.30000	291.00000
66.32200	309.00000
66.34400	304.00000
66.36600	254.00000
66.38800	294.00000
66.41000	254.00000
66.43200	283.00000
66.45400	265.00000
66.47600	246.00000
66.49800	262.00000
66.52000	274.00000
66.54200	271.00000
66.56400	272.00000
66.58600	279.00000
66.60800	269.00000
66.63000	314.00000
66.65200	299.00000
66.67400	343.00000
66.69600	321.00000
66.71800	344.00000
66.74000	347.00000
66.76200	423.00000
66.78400	425.00000
66.80600	397.00000
66.82800	430.00000
66.85000	425.00000
66.87200	402.00000
66.89400	456.00000
66.91600	441.00000
66.93800	430.00000
66.96000	383.00000
66.98200	363.00000
67.00400	328.00000
67.02600	321.00000
67.04800	302.00000
67.07000	313.00000
67.09200	327.00000
67.11400	311.00000
67.13600	304.00000
67.15800	311.00000
67.18000	278.00000
67.20200	292.00000
67.22400	307.00000
67.24600	333.00000
67.26800	347.00000
67.29000	371.00000
67.31200	362.00000
67.33400	358.00000
67.35600	378.00000
67.37800	356.00000
67.40000	318.00000
67.42200	317.00000
67.44400	317.00000
67.46600	346.00000
67.48800	323.00000
67.51000	322.00000
67.53200	317.00000
67.55400	319.00000
67.57600	314.00000
67.59800	248.00000
67.62000	277.00000
67.64200	268.00000
67.66400	287.00000
67.68600	283.00000
67.70800	260.00000
67.73000	251.00000
67.75200	254.00000
67.77400	264.00000
67.79600	243.00000
67.81800	258.00000
67.84000	266.00000
67.86200	230.00000
67.88400	263.00000
67.90600	255.00000
67.92800	262.00000
67.95000	272.00000
67.97200	256.00000
67.99400	219.00000
68.01600	261.00000
68.03800	258.00000
68.06000	239.00000
68.08200	228.00000
68.10400	240.00000
68.12600	247.00000
68.14800	230.00000
68.17000	220.00000
68.19200	235.00000
68.21400	272.00000
68.23600	252.00000
68.25800	237.00000
68.28000	251.00000
68.30200	251.00000
68.32400	250.00000
68.34600	245.00000
68.36800	247.00000
68.39000	244.00000
68.41200	269.00000
68.43400	253.00000
68.45600	235.00000
68.47800	245.00000
68.50000	245.00000
68.52200	225.00000
68.54400	253.00000
68.56600	229.00000
68.58800	267.00000
68.61000	232.00000
68.63200	246.00000
68.65400	240.00000
68.67600	240.00000
68.69800	254.00000
68.72000	228.00000
68.74200	235.00000
68.76400	246.00000
68.78600	233.00000
68.80800	247.00000
68.83000	263.00000
68.85200	254.00000
68.87400	257.00000
68.89600	266.00000
68.91800	232.00000
68.94000	228.00000
68.96200	247.00000
68.98400	273.00000
69.00600	249.00000
69.02800	251.00000
69.05000	241.00000
69.07200	249.00000
69.09400	266.00000
69.11600	273.00000
69.13800	238.00000
69.16000	247.00000
69.18200	272.00000
69.20400	266.00000
69.22600	288.00000
69.24800	289.00000
69.27000	316.00000
69.29200	296.00000
69.31400	299.00000
69.33600	280.00000
69.35800	275.00000
69.38000	303.00000
69.40200	256.00000
69.42400	258.00000
69.44600	288.00000
69.46800	288.00000
69.49000	288.00000
69.51200	273.00000
69.53400	302.00000
69.55600	325.00000
69.57800	336.00000
69.60000	288.00000
69.62200	302.00000
69.64400	301.00000
69.66600	305.00000
69.68800	328.00000
69.71000	284.00000
69.73200	306.00000
69.75400	301.00000
69.77600	287.00000
69.79800	280.00000
69.82000	284.00000
69.84200	298.00000
69.86400	310.00000
69.88600	297.00000
69.90800	321.00000
69.93000	290.00000
69.95200	332.00000
69.97400	316.00000
69.99600	287.00000
70.01800	297.00000
70.04000	274.00000
70.06200	286.00000
70.08400	284.00000
70.10600	290.00000
70.12800	247.00000
70.15000	306.00000
70.17200	300.00000
70.19400	298.00000
70.21600	311.00000
70.23800	302.00000
70.26000	360.00000
70.28200	298.00000
70.30400	316.00000
70.32600	274.00000
70.34800	321.00000
70.37000	301.00000
70.39200	319.00000
70.41400	354.00000
70.43600	309.00000
70.45800	407.00000
70.48000	325.00000
70.50200	343.00000
70.52400	344.00000
70.54600	396.00000
70.56800	342.00000
70.59000	316.00000
70.61200	278.00000
70.63400	265.00000
70.65600	259.00000
70.67800	247.00000
70.70000	259.00000
70.72200	250.00000
70.74400	246.00000
70.76600	255.00000
70.78800	249.00000
70.81000	251.00000
70.83200	272.00000
70.85400	232.00000
70.87600	243.00000
70.89800	237.00000
70.92000	250.00000
70.94200	232.00000
70.96400	202.00000
70.98600	233.00000
71.00800	237.00000
71.03000	227.00000
71.05200	214.00000
71.07400	227.00000
71.09600	239.00000
71.11800	272.00000
71.14000	239.00000
71.16200	258.00000
71.18400	245.00000
71.20600	255.00000
71.22800	246.00000
71.25000	273.00000
71.27200	266.00000
71.29400	265.00000
71.31600	246.00000
71.33800	259.00000
71.36000	232.00000
71.38200	237.00000
71.40400	255.00000
71.42600	270.00000
71.44800	205.00000
71.47000	248.00000
71.49200	226.00000
71.51400	227.00000
71.53600	269.00000
71.55800	296.00000
71.58000	305.00000
71.60200	289.00000
71.62400	295.00000
71.64600	329.00000
71.66800	315.00000
71.69000	326.00000
71.71200	376.00000
71.73400	332.00000
71.75600	302.00000
71.77800	272.00000
71.80000	292.00000
71.82200	262.00000
71.84400	280.00000
71.86600	284.00000
71.88800	266.00000
71.91000	283.00000
71.93200	247.00000
71.95400	269.00000
71.97600	252.00000
71.99800	293.00000
72.02000	259.00000
72.04200	236.00000
72.06400	227.00000
72.08600	238.00000
72.10800	257.00000
72.13000	253.00000
72.15200	229.00000
72.17400	221.00000
72.19600	260.00000
72.21800	261.00000
72.24000	236.00000
72.26200	243.00000
72.28400	249.00000
72.30600	228.00000
72.32800	220.00000
72.35000	241.00000
72.37200	248.00000
72.39400	220.00000
72.41600	237.00000
72.43800	226.00000
72.46000	224.00000
72.48200	236.00000
72.50400	220.00000
72.52600	234.00000
72.54800	233.00000
72.57000	231.00000
72.59200	237.00000
72.61400	230.00000
72.63600	228.00000
72.65800	253.00000
72.68000	225.00000
72.70200	231.00000
72.72400	251.00000
72.74600	203.00000
72.76800	237.00000
72.79000	245.00000
72.81200	256.00000
72.83400	203.00000
72.85600	227.00000
72.87800	247.00000
72.90000	232.00000
72.92200	235.00000
72.94400	237.00000
72.96600	272.00000
72.98800	252.00000
73.01000	223.00000
73.03200	253.00000
73.05400	246.00000
73.07600	259.00000
73.09800	280.00000
73.12000	282.00000
73.14200	313.00000
73.16400	309.00000
73.18600	337.00000
73.20800	329.00000
73.23000	363.00000
73.25200	371.00000
73.27400	402.00000
73.29600	387.00000
73.31800	350.00000
73.34000	320.00000
73.36200	293.00000
73.38400	296.00000
73.40600	336.00000
73.42800	286.00000
73.45000	316.00000
73.47200	309.00000
73.49400	317.00000
73.51600	284.00000
73.53800	281.00000
73.56000	264.00000
73.58200	253.00000
73.60400	225.00000
73.62600	235.00000
73.64800	241.00000
73.67000	248.00000
73.69200	241.00000
73.71400	230.00000
73.73600	218.00000
73.75800	227.00000
73.78000	232.00000
73.80200	236.00000
73.82400	253.00000
73.84600	217.00000
73.86800	226.00000
73.89000	243.00000
73.91200	260.00000
73.93400	235.00000
73.95600	221.00000
73.97800	217.00000
74.00000	227.00000
74.02200	214.00000
74.04400	248.00000
74.06600	222.00000
74.08800	241.00000
74.11000	206.00000
74.13200	273.00000
74.15400	264.00000
74.17600	236.00000
74.19800	252.00000
74.22000	284.00000
74.24200	287.00000
74.26400	301.00000
74.28600	286.00000
74.30800	342.00000
74.33000	336.00000
74.35200	297.00000
74.37400	284.00000
74.39600	252.00000
74.41800	241.00000
74.44000	248.00000
74.46200	258.00000
74.48400	257.00000
74.50600	259.00000
74.52800	310.00000
74.55000	289.00000
74.57200	262.00000
74.59400	268.00000
74.61600	293.00000
74.63800	256.00000
74.66000	299.00000
74.68200	267.00000
74.70400	275.00000
74.72600	265.00000
74.74800	258.00000
74.77000	265.00000
74.79200	268.00000
74.81400	224.00000
74.83600	259.00000
74.85800	273.00000
74.88000	273.00000
74.90200	248.00000
74.92400	247.00000
74.94600	224.00000
74.96800	245.00000
74.99000	259.00000
75.01200	247.00000
75.03400	237.00000
75.05600	238.00000
75.07800	248.00000
75.10000	248.00000
75.12200	237.00000
75.14400	269.00000
75.16600	295.00000
75.18800	298.00000
75.21000	328.00000
75.23200	272.00000
75.25400	312.00000
75.27600	361.00000
75.29800	369.00000
75.32000	353.00000
75.34200	368.00000
75.36400	328.00000
75.38600	311.00000
75.40800	326.00000
75.43000	339.00000
75.45200	313.00000
75.47400	369.00000
75.49600	390.00000
75.51800	411.00000
75.54000	363.00000
75.56200	311.00000
75.58400	296.00000
75.60600	280.00000
75.62800	275.00000
75.65000	272.00000
75.67200	270.00000
75.69400	240.00000
75.71600	279.00000
75.73800	262.00000
75.76000	246.00000
75.78200	272.00000
75.80400	247.00000
75.82600	250.00000
75.84800	247.00000
75.87000	248.00000
75.89200	242.00000
75.91400	241.00000
75.93600	246.00000
75.95800	238.00000
75.98000	243.00000
76.00200	237.00000
76.02400	241.00000
76.04600	233.00000
76.06800	226.00000
76.09000	221.00000
76.11200	244.00000
76.13400	235.00000
76.15600	235.00000
76.17800	230.00000
76.20000	224.00000
76.22200	259.00000
76.24400	253.00000
76.26600	257.00000
76.28800	239.00000
76.31000	273.00000
76.33200	261.00000
76.35400	235.00000
76.37600	263.00000
76.39800	249.00000
76.42000	241.00000
76.44200	229.00000
76.46400	237.00000
76.48600	251.00000
76.50800	281.00000
76.53000	234.00000
76.55200	276.00000
76.57400	274.00000
76.59600	270.00000
76.61800	247.00000
76.64000	288.00000
76.66200	304.00000
76.68400	302.00000
76.70600	311.00000
76.72800	323.00000
76.75000	325.00000
76.77200	339.00000
76.79400	302.00000
76.81600	307.00000
76.83800	274.00000
76.86000	277.00000
76.88200	265.00000
76.90400	250.00000
76.92600	252.00000
76.94800	276.00000
76.97000	268.00000
76.99200	262.00000
77.01400	267.00000
77.03600	247.00000
77.05800	215.00000
77.08000	212.00000
77.10200	234.00000
77.12400	216.00000
77.14600	214.00000
77.16800	246.00000
77.19000	240.00000
77.21200	226.00000
77.23400	229.00000
77.25600	221.00000
77.27800	208.00000
77.30000	231.00000
77.32200	242.00000
77.34400	217.00000
77.36600	221.00000
77.38800	244.00000
77.41000	206.00000
77.43200	232.00000
77.45400	230.00000
77.47600	261.00000
77.49800	233.00000
77.52000	253.00000
77.54200	263.00000
77.56400	264.00000
77.58600	236.00000
77.60800	228.00000
77.63000	230.00000
77.65200	241.00000
77.67400	255.00000
77.69600	221.00000
77.71800	216.00000
77.74000	234.00000
77.76200	238.00000
77.78400	263.00000
77.80600	195.00000
77.82800	237.00000
77.85000	214.00000
77.87200	205.00000
77.89400	210.00000
77.91600	219.00000
77.93800	250.00000
77.96000	232.00000
77.98200	241.00000
78.00400	271.00000
78.02600	265.00000
78.04800	284.00000
78.07000	318.00000
78.09200	293.00000
78.11400	309.00000
78.13600	298.00000
78.15800	273.00000
78.18000	232.00000
78.20200	246.00000
78.22400	220.00000
78.24600	264.00000
78.26800	241.00000
78.29000	230.00000
78.31200	241.00000
78.33400	245.00000
78.35600	229.00000
78.37800	256.00000
78.40000	229.00000
78.42200	232.00000
78.44400	227.00000
78.46600	220.00000
78.48800	187.00000
78.51000	219.00000
78.53200	242.00000
78.55400	214.00000
78.57600	252.00000
78.59800	215.00000
78.62000	212.00000
78.64200	227.00000
78.66400	230.00000
78.68600	240.00000
78.70800	223.00000
78.73000	233.00000
78.75200	232.00000
78.77400	229.00000
78.79600	221.00000
78.81800	260.00000
78.84000	253.00000
78.86200	277.00000
78.88400	295.00000
78.90600	281.00000
78.92800	269.00000
78.95000	300.00000
78.97200	322.00000
78.99400	321.00000
79.01600	310.00000
79.03800	288.00000
79.06000	269.00000
79.08200	252.00000
79.10400	241.00000
79.12600	263.00000
79.14800	265.00000
79.17000	291.00000
79.19200	291.00000
79.21400	275.00000
79.23600	291.00000
79.25800	287.00000
79.28000	282.00000
79.30200	277.00000
79.32400	259.00000
79.34600	239.00000
79.36800	259.00000
79.39000	266.00000
79.41200	235.00000
79.43400	248.00000
79.45600	277.00000
79.47800	230.00000
79.50000	220.00000
79.52200	235.00000
79.54400	218.00000
79.56600	221.00000
79.58800	218.00000
79.61000	222.00000
79.63200	250.00000
79.65400	211.00000
79.67600	232.00000
79.69800	204.00000
79.72000	246.00000
79.74200	246.00000
79.76400	206.00000
79.78600	240.00000
79.80800	229.00000
79.83000	218.00000
79.85200	212.00000
79.87400	216.00000
79.89600	208.00000
79.91800	220.00000
79.94000	220.00000
79.96200	193.00000
79.98400	238.00000
80.00600	229.00000
80.02800	255.00000
80.05000	202.00000
80.07200	243.00000
80.09400	227.00000
80.11600	224.00000
80.13800	234.00000
80.16000	201.00000
80.18200	236.00000
80.20400	265.00000
80.22600	219.00000
80.24800	204.00000
80.27000	223.00000
80.29200	216.00000
80.31400	214.00000
80.33600	223.00000
80.35800	206.00000
80.38000	195.00000
80.40200	215.00000
80.42400	240.00000
80.44600	232.00000
80.46800	237.00000
80.49000	199.00000
80.51200	212.00000
80.53400	204.00000
80.55600	228.00000
80.57800	211.00000
80.60000	229.00000
80.62200	238.00000
80.64400	247.00000
80.66600	227.00000
80.68800	240.00000
80.71000	223.00000
80.73200	239.00000
80.75400	227.00000
80.77600	248.00000
80.79800	259.00000
80.82000	233.00000
80.84200	245.00000
80.86400	225.00000
80.88600	290.00000
80.90800	267.00000
80.93000	258.00000
80.95200	255.00000
80.97400	283.00000
80.99600	311.00000
81.01800	285.00000
81.04000	312.00000
81.06200	316.00000
81.08400	304.00000
81.10600	279.00000
81.12800	300.00000
81.15000	304.00000
81.17200	281.00000
81.19400	279.00000
81.21600	274.00000
81.23800	296.00000
81.26000	264.00000
81.28200	255.00000
81.30400	265.00000
81.32600	288.00000
81.34800	249.00000
81.37000	256.00000
81.39200	245.00000
81.41400	229.00000
81.43600	261.00000
81.45800	253.00000
81.48000	203.00000
81.50200	245.00000
81.52400	234.00000
81.54600	256.00000
81.56800	246.00000
81.59000	217.00000
81.61200	239.00000
81.63400	239.00000
81.65600	249.00000
81.67800	253.00000
81.70000	264.00000
81.72200	237.00000
81.74400	235.00000
81.76600	269.00000
81.78800	239.00000
81.81000	272.00000
81.83200	239.00000
81.85400	225.00000
81.87600	237.00000
81.89800	259.00000
81.92000	285.00000
81.94200	260.00000
81.96400	268.00000
81.98600	263.00000
82.00800	269.00000
82.03000	251.00000
82.05200	243.00000
82.07400	241.00000
82.09600	205.00000
82.11800	224.00000
82.14000	228.00000
82.16200	212.00000
82.18400	217.00000
82.20600	221.00000
82.22800	252.00000
82.25000	208.00000
82.27200	195.00000
82.29400	224.00000
82.31600	210.00000
82.33800	208.00000
82.36000	215.00000
82.38200	226.00000
82.40400	205.00000
82.42600	210.00000
82.44800	229.00000
82.47000	216.00000
82.49200	207.00000
82.51400	193.00000
82.53600	226.00000
82.55800	243.00000
82.58000	205.00000
82.60200	209.00000
82.62400	210.00000
82.64600	214.00000
82.66800	253.00000
82.69000	195.00000
82.71200	221.00000
82.73400	221.00000
82.75600	213.00000
82.77800	212.00000
82.80000	228.00000
82.82200	211.00000
82.84400	252.00000
82.86600	205.00000
82.88800	196.00000
82.91000	223.00000
82.93200	216.00000
82.95400	222.00000
82.97600	220.00000
82.99800	205.00000
83.02000	249.00000
83.04200	231.00000
83.06400	203.00000
83.08600	214.00000
83.10800	214.00000
83.13000	213.00000
83.15200	239.00000
83.17400	235.00000
83.19600	247.00000
83.21800	275.00000
83.24000	264.00000
83.26200	252.00000
83.28400	268.00000
83.30600	280.00000
83.32800	285.00000
83.35000	331.00000
83.37200	339.00000
83.39400	320.00000
83.41600	327.00000
83.43800	296.00000
83.46000	270.00000
83.48200	234.00000
83.50400	278.00000
83.52600	275.00000
83.54800	277.00000
83.57000	261.00000
83.59200	262.00000
83.61400	267.00000
83.63600	259.00000
83.65800	272.00000
83.68000	236.00000
83.70200	223.00000
83.72400	237.00000
83.74600	236.00000
83.76800	235.00000
83.79000	238.00000
83.81200	247.00000
83.83400	271.00000
83.85600	293.00000
83.87800	297.00000
83.90000	316.00000
83.92200	340.00000
83.94400	370.00000
83.96600	337.00000
83.98800	358.00000
84.01000	308.00000
84.03200	290.00000
84.05400	298.00000
84.07600	261.00000
84.09800	236.00000
84.12000	240.00000
84.14200	250.00000
84.16400	252.00000
84.18600	248.00000
84.20800	300.00000
84.23000	301.00000
84.25200	281.00000
84.27400	233.00000
84.29600	245.00000
84.31800	222.00000
84.34000	224.00000
84.36200	233.00000
84.38400	250.00000
84.40600	242.00000
84.42800	230.00000
84.45000	248.00000
84.47200	251.00000
84.49400	229.00000
84.51600	240.00000
84.53800	222.00000
84.56000	214.00000
84.58200	226.00000
84.60400	232.00000
84.62600	214.00000
84.64800	231.00000
84.67000	215.00000
84.69200	223.00000
84.71400	226.00000
84.73600	230.00000
84.75800	222.00000
84.78000	209.00000
84.80200	237.00000
84.82400	215.00000
84.84600	223.00000
84.86800	241.00000
84.89000	224.00000
84.91200	221.00000
84.93400	221.00000
84.95600	226.00000
84.97800	213.00000
85.00000	230.00000
85.02200	223.00000
85.04400	232.00000
85.06600	206.00000
85.08800	240.00000
85.11000	203.00000
85.13200	216.00000
85.15400	223.00000
85.17600	227.00000
85.19800	214.00000
85.22000	216.00000
85.24200	259.00000
85.26400	258.00000
85.28600	283.00000
85.30800	241.00000
85.33000	240.00000
85.35200	256.00000
85.37400	263.00000
85.39600	231.00000
85.41800	265.00000
85.44000	244.00000
85.46200	222.00000
85.48400	237.00000
85.50600	256.00000
85.52800	219.00000
85.55000	239.00000
85.57200	224.00000
85.59400	235.00000
85.61600	242.00000
85.63800	231.00000
85.66000	224.00000
85.68200	181.00000
85.70400	232.00000
85.72600	223.00000
85.74800	232.00000
85.77000	222.00000
85.79200	225.00000
85.81400	235.00000
85.83600	238.00000
85.85800	231.00000
85.88000	240.00000
85.90200	230.00000
85.92400	242.00000
85.94600	254.00000
85.96800	248.00000
85.99000	253.00000
86.01200	254.00000
86.03400	241.00000
86.05600	253.00000
86.07800	260.00000
86.10000	240.00000
86.12200	222.00000
86.14400	224.00000
86.16600	220.00000
86.18800	216.00000
86.21000	237.00000
86.23200	227.00000
86.25400	245.00000
86.27600	215.00000
86.29800	235.00000
86.32000	228.00000
86.34200	232.00000
86.36400	212.00000
86.38600	199.00000
86.40800	231.00000
86.43000	210.00000
86.45200	220.00000
86.47400	215.00000
86.49600	219.00000
86.51800	187.00000
86.54000	192.00000
86.56200	248.00000
86.58400	223.00000
86.60600	236.00000
86.62800	203.00000
86.65000	228.00000
86.67200	219.00000
86.69400	256.00000
86.71600	231.00000
86.73800	224.00000
86.76000	216.00000
86.78200	259.00000
86.80400	242.00000
86.82600	251.00000
86.84800	220.00000
86.87000	248.00000
86.89200	229.00000
86.91400	220.00000
86.93600	243.00000
86.95800	200.00000
86.98000	226.00000
87.00200	277.00000
87.02400	213.00000
87.04600	271.00000
87.06800	230.00000
87.09000	253.00000
87.11200	242.00000
87.13400	221.00000
87.15600	240.00000
87.17800	236.00000
87.20000	230.00000
87.22200	215.00000
87.24400	222.00000
87.26600	217.00000
87.28800	256.00000
87.31000	217.00000
87.33200	229.00000
87.35400	259.00000
87.37600	218.00000
87.39800	223.00000
87.42000	227.00000
87.44200	227.00000
87.46400	198.00000
87.48600	231.00000
87.50800	236.00000
87.53000	199.00000
87.55200	232.00000
87.57400	225.00000
87.59600	232.00000
87.61800	196.00000
87.64000	226.00000
87.66200	270.00000
87.68400	210.00000
87.70600	255.00000
87.72800	273.00000
87.75000	257.00000
87.77200	276.00000
87.79400	259.00000
87.81600	255.00000
87.83800	233.00000
87.86000	234.00000
87.88200	242.00000
87.90400	227.00000
87.92600	227.00000
87.94800	220.00000
87.97000	246.00000
87.99200	215.00000
88.01400	220.00000
88.03600	242.00000
88.05800	238.00000
88.08000	253.00000
88.10200	228.00000
88.12400	212.00000
88.14600	251.00000
88.16800	240.00000
88.19000	199.00000
88.21200	191.00000
88.23400	256.00000
88.25600	230.00000
88.27800	193.00000
88.30000	210.00000
88.32200	222.00000
88.34400	208.00000
88.36600	256.00000
88.38800	233.00000
88.41000	218.00000
88.43200	231.00000
88.45400	219.00000
88.47600	230.00000
88.49800	212.00000
88.52000	250.00000
88.54200	208.00000
88.56400	231.00000
88.58600	225.00000
88.60800	222.00000
88.63000	193.00000
88.65200	213.00000
88.67400	227.00000
88.69600	206.00000
88.71800	202.00000
88.74000	216.00000
88.76200	212.00000
88.78400	241.00000
88.80600	216.00000
88.82800	213.00000
88.85000	201.00000
88.87200	229.00000
88.89400	246.00000
88.91600	216.00000
88.93800	234.00000
88.96000	233.00000
88.98200	236.00000
89.00400	217.00000
89.02600	229.00000
89.04800	276.00000
89.07000	248.00000
89.09200	240.00000
89.11400	260.00000
89.13600	270.00000
89.15800	238.00000
89.18000	228.00000
89.20200	248.00000
89.22400	231.00000
89.24600	229.00000
89.26800	259.00000
89.29000	246.00000
89.31200	259.00000
89.33400	285.00000
89.35600	284.00000
89.37800	252.00000
89.40000	253.00000
89.42200	275.00000
89.44400	262.00000
89.46600	273.00000
89.48800	304.00000
89.51000	312.00000
89.53200	302.00000
89.55400	301.00000
89.57600	281.00000
89.59800	254.00000
89.62000	248.00000
89.64200	242.00000
89.66400	217.00000
89.68600	243.00000
89.70800	241.00000
89.73000	269.00000
89.75200	251.00000
89.77400	267.00000
89.79600	252.00000
89.81800	279.00000
89.84000	260.00000
89.86200	295.00000
89.88400	216.00000
89.90600	250.00000
89.92800	217.00000
89.95000	256.00000
89.97200	239.00000
89.99400	257.00000
