7.01000	15886.20000
7.03000	15754.50000
7.05000	15770.50000
7.07000	15850.90000
7.09000	15859.50000
7.11000	15736.00000
7.13000	15724.50000
7.15000	15541.20000
7.17000	15516.20000
7.19000	15701.80000
7.21000	15733.00000
7.23000	15806.40000
7.25000	15722.00000
7.27000	15563.50000
7.29000	15683.10000
7.31000	15483.80000
7.33000	15457.20000
7.35000	15544.40000
7.37000	15545.90000
7.39000	15527.70000
7.41000	15362.60000
7.43000	15290.80000
7.45000	15551.30000
7.47000	15338.10000
7.49000	15414.20000
7.51000	15458.70000
7.53000	15284.90000
7.55000	15235.40000
7.57000	15144.80000
7.59000	15165.50000
7.61000	15297.10000
7.63000	15214.00000
7.65000	15296.80000
7.67000	15272.90000
7.69000	15160.90000
7.71000	15214.20000
7.73000	15288.60000
7.75000	15364.20000
7.77000	15370.60000
7.79000	15188.60000
7.81000	15217.70000
7.83000	15334.80000
7.85000	15384.30000
7.87000	15206.50000
7.89000	15172.30000
7.91000	15100.10000
7.93000	15067.80000
7.95000	15123.90000
7.97000	15175.60000
7.99000	15300.50000
8.01000	15312.30000
8.03000	15164.40000
8.05000	15063.90000
8.07000	15152.50000
8.09000	15190.80000
8.11000	15140.40000
8.13000	15086.30000
8.15000	14962.30000
8.17000	15054.40000
8.19000	15197.30000
8.21000	14996.20000
8.23000	15173.40000
8.25000	15150.90000
8.27000	15047.70000
8.29000	15051.30000
8.31000	15306.40000
8.33000	15450.40000
8.35000	15384.90000
8.37000	15091.00000
8.39000	15273.00000
8.41000	15315.10000
8.43000	15259.10000
8.45000	15156.50000
8.47000	15192.30000
8.49000	15156.80000
8.51000	15026.10000
8.53000	14883.90000
8.55000	15032.40000
8.57000	15101.60000
8.59000	15161.20000
8.61000	15250.80000
8.63000	15426.70000
8.65000	15167.20000
8.67000	15183.70000
8.69000	15281.30000
8.71000	15146.50000
8.73000	15188.50000
8.75000	15178.60000
8.77000	15190.00000
8.79000	15282.70000
8.81000	15433.50000
8.83000	15486.70000
8.85000	15533.20000
8.87000	15623.90000
8.89000	15783.90000
8.91000	15826.00000
8.93000	15880.30000
8.95000	15949.70000
8.97000	15897.90000
8.99000	15964.20000
9.01000	16077.40000
9.03000	16243.20000
9.05000	16502.20000
9.07000	16913.70000
9.09000	17009.20000
9.11000	16924.40000
9.13000	16899.30000
9.15000	17054.00000
9.17000	16986.70000
9.19000	16880.80000
9.21000	16892.70000
9.23000	16826.50000
9.25000	16676.70000
9.27000	16622.60000
9.29000	16707.20000
9.31000	16527.50000
9.33000	16378.70000
9.35000	16153.80000
9.37000	15885.60000
9.39000	15842.20000
9.41000	15702.70000
9.43000	15547.80000
9.45000	15380.10000
9.47000	15169.10000
9.49000	14967.30000
9.51000	15013.00000
9.53000	15126.70000
9.55000	15016.20000
9.57000	14914.80000
9.59000	14980.00000
9.61000	15057.70000
9.63000	15001.10000
9.65000	14831.30000
9.67000	14826.00000
9.69000	14871.30000
9.71000	14887.60000
9.73000	14785.60000
9.75000	14857.10000
9.77000	14838.60000
9.79000	14705.00000
9.81000	14754.50000
9.83000	14845.50000
9.85000	14913.10000
9.87000	14985.30000
9.89000	15165.80000
9.91000	14947.70000
9.93000	14948.20000
9.95000	15056.30000
9.97000	14997.70000
9.99000	15135.80000
10.01000	15182.50000
10.03000	15177.10000
10.05000	15166.40000
10.07000	15085.70000
10.09000	15190.60000
10.11000	15280.20000
10.13000	15244.60000
10.15000	15240.00000
10.17000	15507.50000
10.19000	15881.00000
10.21000	16324.70000
10.23000	16972.10000
10.25000	18880.00000
10.27000	21946.20000
10.29000	26773.10000
10.31000	35026.60000
10.33000	51597.00000
10.35000	79945.00000
10.37000	119344.00000
10.39000	167826.00000
10.41000	177649.00000
10.43000	147489.00000
10.45000	97266.60000
10.47000	49102.40000
10.49000	30514.10000
10.51000	21900.60000
10.53000	18588.30000
10.55000	17206.80000
10.57000	16378.20000
10.59000	15918.70000
10.61000	15593.50000
10.63000	15308.80000
10.65000	15088.00000
10.67000	14955.30000
10.69000	14865.20000
10.71000	14805.70000
10.73000	14775.20000
10.75000	14791.10000
10.77000	14728.80000
10.79000	14624.50000
10.81000	14570.50000
10.83000	14605.80000
10.85000	14617.10000
10.87000	14579.00000
10.89000	14473.30000
10.91000	14425.30000
10.93000	14457.50000
10.95000	14407.90000
10.97000	14207.30000
10.99000	14381.70000
11.01000	14245.10000
11.03000	14177.00000
11.05000	14299.50000
11.07000	14354.40000
11.09000	14268.00000
11.11000	14208.70000
11.13000	14190.50000
11.15000	14117.40000
11.17000	14330.10000
11.19000	14336.40000
11.21000	14197.70000
11.23000	14165.70000
11.25000	14086.20000
11.27000	14169.30000
11.29000	14301.00000
11.31000	14330.90000
11.33000	14173.30000
11.35000	14273.50000
11.37000	14361.90000
11.39000	14246.00000
11.41000	14128.00000
11.43000	14180.00000
11.45000	14211.40000
11.47000	14167.00000
11.49000	14259.90000
11.51000	14161.50000
11.53000	14222.30000
11.55000	14394.10000
11.57000	14183.90000
11.59000	14051.90000
11.61000	14154.40000
11.63000	14301.70000
11.65000	14064.80000
11.67000	14027.90000
11.69000	14054.70000
11.71000	14124.60000
11.73000	14222.80000
11.75000	14185.70000
11.77000	14144.80000
11.79000	14259.80000
11.81000	14601.10000
11.83000	14317.10000
11.85000	14216.60000
11.87000	14141.50000
11.89000	14005.20000
11.91000	13773.60000
11.93000	13951.50000
11.95000	14023.60000
11.97000	13911.40000
11.99000	13908.40000
12.01000	13871.60000
12.03000	13842.90000
12.05000	13856.70000
12.07000	13970.90000
12.09000	14090.80000
12.11000	14090.10000
12.13000	14031.70000
12.15000	14014.20000
12.17000	14005.00000
12.19000	13986.50000
12.21000	13941.00000
12.23000	13866.30000
12.25000	13990.50000
12.27000	13917.90000
12.29000	13924.60000
12.31000	14105.40000
12.33000	14064.30000
12.35000	13955.00000
12.37000	13892.60000
12.39000	13884.80000
12.41000	13813.90000
12.43000	13908.80000
12.45000	13955.30000
12.47000	13936.10000
12.49000	13906.40000
12.51000	13901.20000
12.53000	13975.00000
12.55000	14057.30000
12.57000	14041.30000
12.59000	13986.40000
12.61000	13953.20000
12.63000	13947.10000
12.65000	13967.20000
12.67000	13924.50000
12.69000	13951.90000
12.71000	14004.20000
12.73000	14037.40000
12.75000	13915.60000
12.77000	13728.10000
12.79000	13773.30000
12.81000	14026.50000
12.83000	13944.20000
12.85000	13884.00000
12.87000	13944.90000
12.89000	14011.00000
12.91000	13749.00000
12.93000	13882.30000
12.95000	13888.00000
12.97000	13803.40000
12.99000	13769.90000
13.01000	13663.00000
13.03000	13801.40000
13.05000	13918.40000
13.07000	13762.50000
13.09000	13806.70000
13.11000	13744.30000
13.13000	13764.40000
13.15000	13925.60000
13.17000	13720.70000
13.19000	13748.00000
13.21000	13791.60000
13.23000	13797.80000
13.25000	13899.10000
13.27000	13993.30000
13.29000	13935.30000
13.31000	13791.40000
13.33000	13821.10000
13.35000	13749.70000
13.37000	13824.90000
13.39000	13935.00000
13.41000	13851.90000
13.43000	13905.60000
13.45000	13822.80000
13.47000	13762.10000
13.49000	13886.90000
13.51000	13803.90000
13.53000	13760.50000
13.55000	13744.00000
13.57000	13754.10000
13.59000	13870.60000
13.61000	13979.50000
13.63000	13960.20000
13.65000	13812.50000
13.67000	13775.20000
13.69000	13699.10000
13.71000	13728.10000
13.73000	13881.10000
13.75000	14111.80000
13.77000	14112.10000
13.79000	14035.40000
13.81000	13946.60000
13.83000	13923.00000
13.85000	13886.30000
13.87000	13816.20000
13.89000	13744.90000
13.91000	13710.90000
13.93000	13825.20000
13.95000	13803.20000
13.97000	13727.30000
13.99000	13673.30000
14.01000	13818.80000
14.03000	13791.20000
14.05000	13826.20000
14.07000	13953.20000
14.09000	13781.80000
14.11000	13751.40000
14.13000	13817.00000
14.15000	13910.70000
14.17000	13864.30000
14.19000	13866.40000
14.21000	13802.70000
14.23000	13730.10000
14.25000	13784.20000
14.27000	13639.00000
14.29000	13684.50000
14.31000	13788.10000
14.33000	13770.00000
14.35000	13767.70000
14.37000	13824.20000
14.39000	13935.30000
14.41000	14073.50000
14.43000	13951.70000
14.45000	13811.40000
14.47000	13736.40000
14.49000	13738.90000
14.51000	13661.20000
14.53000	13665.10000
14.55000	13684.80000
14.57000	13701.00000
14.59000	13711.70000
14.61000	13757.80000
14.63000	13794.20000
14.65000	13800.70000
14.67000	13752.00000
14.69000	13706.10000
14.71000	13742.90000
14.73000	13800.30000
14.75000	13795.00000
14.77000	13908.50000
14.79000	13816.80000
14.81000	13737.20000
14.83000	13823.20000
14.85000	13744.00000
14.87000	13757.00000
14.89000	13824.70000
14.91000	13905.90000
14.93000	13864.00000
14.95000	13894.20000
14.97000	13941.40000
14.99000	13940.90000
15.01000	13726.80000
15.03000	13758.60000
15.05000	13782.20000
15.07000	13758.10000
15.09000	13697.20000
15.11000	13651.20000
15.13000	13714.50000
15.15000	13852.30000
15.17000	14007.70000
15.19000	13783.20000
15.21000	13809.20000
15.23000	13870.50000
15.25000	13785.80000
15.27000	13725.70000
15.29000	13791.70000
15.31000	13844.30000
15.33000	13838.70000
15.35000	13985.70000
15.37000	13865.60000
15.39000	13807.10000
15.41000	13849.90000
15.43000	13734.90000
15.45000	13830.50000
15.47000	14016.80000
15.49000	14186.60000
15.51000	14150.80000
15.53000	13872.60000
15.55000	13770.80000
15.57000	13811.50000
15.59000	13890.70000
15.61000	13825.40000
15.63000	13982.70000
15.65000	14040.20000
15.67000	13747.70000
15.69000	14080.50000
15.71000	13966.20000
15.73000	13884.60000
15.75000	14034.80000
15.77000	13823.00000
15.79000	13858.00000
15.81000	14015.80000
15.83000	14170.40000
15.85000	13992.20000
15.87000	13788.70000
15.89000	13773.20000
15.91000	13889.40000
15.93000	13895.50000
15.95000	13960.70000
15.97000	13899.30000
15.99000	13790.40000
16.01000	13781.20000
16.03000	13827.80000
16.05000	13940.30000
16.07000	14029.20000
16.09000	14014.10000
16.11000	14043.80000
16.13000	13959.50000
16.15000	13883.10000
16.17000	13900.10000
16.19000	14098.10000
16.21000	14045.50000
16.23000	13969.90000
16.25000	13932.00000
16.27000	13817.80000
16.29000	13925.40000
16.31000	13998.60000
16.33000	13990.70000
16.35000	13929.80000
16.37000	14003.30000
16.39000	14050.30000
16.41000	14104.90000
16.43000	14251.10000
16.45000	13998.40000
16.47000	13896.50000
16.49000	13934.70000
16.51000	14069.10000
16.53000	13999.00000
16.55000	14038.80000
16.57000	14026.40000
16.59000	13895.60000
16.61000	14027.40000
16.63000	14234.70000
16.65000	14211.60000
16.67000	13970.60000
16.69000	14162.50000
16.71000	14174.30000
16.73000	14122.80000
16.75000	14056.10000
16.77000	14027.90000
16.79000	14115.90000
16.81000	14194.00000
16.83000	14234.30000
16.85000	14216.70000
16.87000	14284.60000
16.89000	14273.70000
16.91000	14238.30000
16.93000	14245.50000
16.95000	14273.70000
16.97000	14138.50000
16.99000	14105.90000
17.01000	14304.50000
17.03000	14123.30000
17.05000	14247.40000
17.07000	14334.90000
17.09000	14268.80000
17.11000	14217.80000
17.13000	14333.80000
17.15000	14308.60000
17.17000	14154.20000
17.19000	14145.00000
17.21000	14248.90000
17.23000	14383.20000
17.25000	14488.40000
17.27000	14478.50000
17.29000	14423.80000
17.31000	14354.50000
17.33000	14285.00000
17.35000	14229.60000
17.37000	14189.20000
17.39000	14252.40000
17.41000	14297.60000
17.43000	14262.30000
17.45000	14491.60000
17.47000	14515.20000
17.49000	14391.30000
17.51000	14214.60000
17.53000	14363.10000
17.55000	14499.80000
17.57000	14549.40000
17.59000	14534.60000
17.61000	14594.80000
17.63000	14760.90000
17.65000	14711.20000
17.67000	14533.10000
17.69000	14494.30000
17.71000	14509.90000
17.73000	14570.10000
17.75000	14654.60000
17.77000	14739.00000
17.79000	14737.50000
17.81000	14933.20000
17.83000	15275.60000
17.85000	15750.60000
17.87000	16779.60000
17.89000	19368.60000
17.91000	24721.10000
17.93000	33465.90000
17.95000	45749.70000
17.97000	51627.70000
17.99000	50448.40000
18.01000	43077.30000
18.03000	33152.20000
18.05000	24731.90000
18.07000	19300.70000
18.09000	16579.80000
18.11000	15467.10000
18.13000	15256.30000
18.15000	15170.30000
18.17000	15144.60000
18.19000	15172.80000
18.21000	15028.50000
18.23000	14980.40000
18.25000	14978.70000
18.27000	14976.10000
18.29000	14941.90000
18.31000	14868.10000
18.33000	14823.50000
18.35000	14855.40000
18.37000	15032.10000
18.39000	14892.90000
18.41000	14801.00000
18.43000	14837.80000
18.45000	14865.20000
18.47000	14801.90000
18.49000	14852.10000
18.51000	14951.20000
18.53000	14872.00000
18.55000	14960.30000
18.57000	15123.80000
18.59000	15291.00000
18.61000	15374.70000
18.63000	15563.50000
18.65000	16419.20000
18.67000	17977.80000
18.69000	20197.30000
18.71000	22119.50000
18.73000	22421.50000
18.75000	21598.80000
18.77000	19980.10000
18.79000	17875.10000
18.81000	16529.90000
18.83000	15740.30000
18.85000	15389.00000
18.87000	15293.80000
18.89000	15244.20000
18.91000	15198.60000
18.93000	15161.30000
18.95000	15162.90000
18.97000	14964.30000
18.99000	15023.00000
19.01000	15168.90000
19.03000	15082.00000
19.05000	14896.30000
19.07000	14915.90000
19.09000	15024.20000
19.11000	15093.10000
19.13000	14934.70000
19.15000	14973.20000
19.17000	15036.20000
19.19000	15046.00000
19.21000	15228.80000
19.23000	15157.30000
19.25000	15161.80000
19.27000	15278.50000
19.29000	15130.70000
19.31000	15079.00000
19.33000	15098.30000
19.35000	15134.70000
19.37000	15065.40000
19.39000	15126.70000
19.41000	15144.30000
19.43000	15156.80000
19.45000	15255.80000
19.47000	15249.40000
19.49000	15283.40000
19.51000	15261.60000
19.53000	15097.90000
19.55000	15267.00000
19.57000	15204.30000
19.59000	15151.00000
19.61000	15243.50000
19.63000	15293.00000
19.65000	15379.70000
19.67000	15380.40000
19.69000	15275.10000
19.71000	15202.70000
19.73000	15379.90000
19.75000	15406.30000
19.77000	15313.70000
19.79000	15449.30000
19.81000	15352.80000
19.83000	15431.40000
19.85000	15598.60000
19.87000	15623.00000
19.89000	15401.80000
19.91000	15321.50000
19.93000	15379.40000
19.95000	15544.60000
19.97000	15523.20000
19.99000	15561.70000
20.01000	15609.30000
20.03000	15628.20000
20.05000	15593.90000
20.07000	15588.90000
20.09000	15631.90000
20.11000	15697.50000
20.13000	15616.80000
20.15000	15560.00000
20.17000	15638.00000
20.19000	15755.30000
20.21000	15550.50000
20.23000	15503.60000
20.25000	15615.50000
20.27000	15754.10000
20.29000	15682.50000
20.31000	15686.20000
20.33000	15665.70000
20.35000	15666.00000
20.37000	15742.00000
20.39000	15745.10000
20.41000	15831.20000
20.43000	15864.00000
20.45000	15773.80000
20.47000	15922.40000
20.49000	15843.40000
20.51000	15811.40000
20.53000	15888.60000
20.55000	15721.00000
20.57000	15929.80000
20.59000	15987.10000
20.61000	15941.50000
20.63000	16406.10000
20.65000	16288.40000
20.67000	16189.70000
20.69000	16244.60000
20.71000	16532.50000
20.73000	16954.70000
20.75000	17799.30000
20.77000	19139.50000
20.79000	21024.90000
20.81000	23448.30000
20.83000	26991.50000
20.85000	32328.70000
20.87000	39935.80000
20.89000	49565.40000
20.91000	55039.10000
20.93000	55593.00000
20.95000	51046.10000
20.97000	42591.60000
20.99000	34059.10000
21.01000	26785.20000
21.03000	21439.10000
21.05000	18923.50000
21.07000	17561.40000
21.09000	16970.70000
21.11000	16805.20000
21.13000	16490.70000
21.15000	16518.40000
21.17000	16434.40000
21.19000	16278.60000
21.21000	16147.60000
21.23000	16113.70000
21.25000	16085.30000
21.27000	16090.90000
21.29000	16144.50000
21.31000	16100.30000
21.33000	16072.00000
21.35000	15949.90000
21.37000	15752.00000
21.39000	15974.40000
21.41000	15906.60000
21.43000	15907.00000
21.45000	16029.70000
21.47000	16050.20000
21.49000	15964.10000
21.51000	16029.80000
21.53000	16196.70000
21.55000	16250.00000
21.57000	15995.20000
21.59000	15978.50000
21.61000	16063.40000
21.63000	15997.90000
21.65000	16047.40000
21.67000	15976.30000
21.69000	15908.90000
21.71000	15947.40000
21.73000	15872.80000
21.75000	15918.50000
21.77000	15899.40000
21.79000	15759.30000
21.81000	15844.60000
21.83000	15923.80000
21.85000	15841.60000
21.87000	15658.80000
21.89000	15822.50000
21.91000	15772.90000
21.93000	15604.00000
21.95000	15489.70000
21.97000	15792.00000
21.99000	15771.60000
22.01000	15656.70000
22.03000	15602.00000
22.05000	15797.80000
22.07000	15812.40000
22.09000	15787.60000
22.11000	15797.60000
22.13000	15896.50000
22.15000	15806.60000
22.17000	15845.60000
22.19000	15934.10000
22.21000	15990.70000
22.23000	15747.70000
22.25000	15699.60000
22.27000	15723.30000
22.29000	15777.10000
22.31000	15876.80000
22.33000	15618.80000
22.35000	15603.90000
22.37000	15801.90000
22.39000	15810.20000
22.41000	15766.00000
22.43000	15756.00000
22.45000	15750.80000
22.47000	15689.80000
22.49000	15654.80000
22.51000	15745.00000
22.53000	15837.10000
22.55000	15807.70000
22.57000	15765.80000
22.59000	15622.80000
22.61000	15591.10000
22.63000	15753.90000
22.65000	15644.30000
22.67000	15659.10000
22.69000	15662.60000
22.71000	15627.80000
22.73000	15678.80000
22.75000	15665.90000
22.77000	15612.70000
22.79000	15567.30000
22.81000	15643.40000
22.83000	15618.10000
22.85000	15533.70000
22.87000	15504.40000
22.89000	15710.10000
22.91000	15676.30000
22.93000	15633.30000
22.95000	15626.70000
22.97000	15690.60000
22.99000	15716.50000
23.01000	15646.80000
23.03000	15585.50000
23.05000	15586.90000
23.07000	15478.00000
23.09000	15286.40000
23.11000	15303.00000
23.13000	15529.60000
23.15000	15360.60000
23.17000	15542.80000
23.19000	15606.60000
23.21000	15539.30000
23.23000	15648.20000
23.25000	15584.60000
23.27000	15522.50000
23.29000	15506.00000
23.31000	15570.00000
23.33000	15362.50000
23.35000	15407.30000
23.37000	15526.10000
23.39000	15490.10000
23.41000	15494.60000
23.43000	15450.10000
23.45000	15394.60000
23.47000	15354.50000
23.49000	15308.10000
23.51000	15521.50000
23.53000	15567.80000
23.55000	15375.10000
23.57000	15604.30000
23.59000	15545.40000
23.61000	15493.00000
23.63000	15498.50000
23.65000	15470.30000
23.67000	15492.60000
23.69000	15529.80000
23.71000	15640.50000
23.73000	15945.10000
23.75000	16026.70000
23.77000	16485.80000
23.79000	17229.50000
23.81000	18100.70000
23.83000	20080.10000
23.85000	24282.10000
23.87000	30489.20000
23.89000	38227.70000
23.91000	44088.20000
23.93000	44740.00000
23.95000	43116.60000
23.97000	40748.90000
23.99000	38241.00000
24.01000	35886.80000
24.03000	33667.40000
24.05000	31427.30000
24.07000	28670.30000
24.09000	25862.60000
24.11000	22996.80000
24.13000	20231.30000
24.15000	17887.90000
24.17000	16839.80000
24.19000	16126.40000
24.21000	15737.00000
24.23000	15737.00000
24.25000	15629.20000
24.27000	15605.90000
24.29000	15653.60000
24.31000	15735.50000
24.33000	15502.50000
24.35000	15440.70000
24.37000	15451.80000
24.39000	15463.40000
24.41000	15340.80000
24.43000	15457.50000
24.45000	15727.30000
24.47000	16103.60000
24.49000	16518.70000
24.51000	17808.30000
24.53000	20130.60000
24.55000	23843.90000
24.57000	29661.70000
24.59000	35502.20000
24.61000	38644.20000
24.63000	38621.90000
24.65000	35192.40000
24.67000	31134.30000
24.69000	26546.80000
24.71000	22133.40000
24.73000	18569.70000
24.75000	16965.00000
24.77000	16068.70000
24.79000	15688.60000
24.81000	15645.80000
24.83000	15435.60000
24.85000	15342.60000
24.87000	15253.90000
24.89000	15130.20000
24.91000	14968.00000
24.93000	14924.70000
24.95000	14850.10000
24.97000	14819.10000
24.99000	15073.40000
25.01000	14961.00000
25.03000	14944.20000
25.05000	14906.60000
25.07000	14618.70000
25.09000	14781.70000
25.11000	14761.30000
25.13000	14716.20000
25.15000	14792.00000
25.17000	14645.00000
25.19000	14760.20000
25.21000	14794.30000
25.23000	14606.50000
25.25000	14690.30000
25.27000	14693.00000
25.29000	14581.50000
25.31000	14417.30000
25.33000	14504.80000
25.35000	14622.20000
25.37000	14648.80000
25.39000	14607.60000
25.41000	14619.00000
25.43000	14448.00000
25.45000	14441.60000
25.47000	14505.70000
25.49000	14437.90000
25.51000	14494.50000
25.53000	14460.80000
25.55000	14366.70000
25.57000	14262.30000
25.59000	14516.60000
25.61000	14374.30000
25.63000	14280.00000
25.65000	14475.40000
25.67000	14607.90000
25.69000	14567.50000
25.71000	14455.60000
25.73000	14338.40000
25.75000	14334.60000
25.77000	14347.50000
25.79000	14427.80000
25.81000	14506.00000
25.83000	14366.60000
25.85000	14364.00000
25.87000	14334.00000
25.89000	14302.40000
25.91000	14343.50000
25.93000	14103.70000
25.95000	14107.10000
25.97000	14241.30000
25.99000	14358.80000
26.01000	14268.20000
26.03000	14336.80000
26.05000	14400.90000
26.07000	14374.40000
26.09000	14497.00000
26.11000	14499.10000
26.13000	14450.90000
26.15000	14405.70000
26.17000	14478.80000
26.19000	14598.20000
26.21000	14855.60000
26.23000	15196.40000
26.25000	15401.20000
26.27000	15434.60000
26.29000	15366.60000
26.31000	15231.20000
26.33000	15071.20000
26.35000	14712.10000
26.37000	14485.70000
26.39000	14383.70000
26.41000	14373.20000
26.43000	14322.20000
26.45000	14250.30000
26.47000	14239.90000
26.49000	14321.10000
26.51000	14178.70000
26.53000	14280.50000
26.55000	14370.50000
26.57000	14338.20000
26.59000	14208.70000
26.61000	14154.00000
26.63000	14147.10000
26.65000	14183.20000
26.67000	14270.00000
26.69000	14132.30000
26.71000	14217.50000
26.73000	14405.20000
26.75000	14348.10000
26.77000	14432.90000
26.79000	14391.80000
26.81000	14493.60000
26.83000	15065.50000
26.85000	15832.40000
26.87000	18052.10000
26.89000	22400.80000
26.91000	29146.00000
26.93000	35594.40000
26.95000	36299.90000
26.97000	34274.80000
26.99000	31139.10000
27.01000	27899.30000
27.03000	23841.60000
27.05000	19879.50000
27.07000	16627.20000
27.09000	15222.00000
27.11000	14501.40000
27.13000	14263.80000
27.15000	14274.10000
27.17000	14130.90000
27.19000	14181.30000
27.21000	14094.10000
27.23000	14011.90000
27.25000	14139.80000
27.27000	14083.00000
27.29000	14055.10000
27.31000	13981.30000
27.33000	13826.10000
27.35000	13962.50000
27.37000	13913.40000
27.39000	13856.90000
27.41000	13875.20000
27.43000	13910.30000
27.45000	13916.40000
27.47000	13968.30000
27.49000	14030.80000
27.51000	13897.50000
27.53000	13936.90000
27.55000	13927.10000
27.57000	13915.50000
27.59000	14086.90000
27.61000	13904.40000
27.63000	13899.10000
27.65000	14073.20000
27.67000	14367.10000
27.69000	14781.80000
27.71000	15016.10000
27.73000	15042.90000
27.75000	14862.30000
27.77000	14751.10000
27.79000	14554.50000
27.81000	14333.70000
27.83000	14123.70000
27.85000	13933.30000
27.87000	13809.80000
27.89000	13702.80000
27.91000	13628.60000
27.93000	13713.20000
27.95000	13619.60000
27.97000	13611.10000
27.99000	13700.90000
28.01000	13802.90000
28.03000	13568.30000
28.05000	13589.50000
28.07000	13750.20000
28.09000	13805.00000
28.11000	13800.80000
28.13000	13715.00000
28.15000	13694.10000
28.17000	13843.40000
28.19000	13548.70000
28.21000	13470.70000
28.23000	13541.50000
28.25000	13681.90000
28.27000	13594.30000
28.29000	13557.90000
28.31000	13554.70000
28.33000	13556.60000
28.35000	13475.10000
28.37000	13601.10000
28.39000	13695.70000
28.41000	13687.80000
28.43000	13527.10000
28.45000	13770.80000
28.47000	13747.00000
28.49000	13622.60000
28.51000	13757.40000
28.53000	13554.90000
28.55000	13539.80000
28.57000	13608.40000
28.59000	13642.90000
28.61000	13640.60000
28.63000	13674.60000
28.65000	13807.50000
28.67000	14010.10000
28.69000	13706.20000
28.71000	13787.10000
28.73000	13828.00000
28.75000	13773.20000
28.77000	14101.50000
28.79000	14489.40000
28.81000	14795.30000
28.83000	15147.00000
28.85000	15962.70000
28.87000	18063.70000
28.89000	22378.80000
28.91000	29124.70000
28.93000	38449.70000
28.95000	43760.80000
28.97000	43826.30000
28.99000	40735.30000
29.01000	36801.70000
29.03000	32954.90000
29.05000	27911.00000
29.07000	22778.20000
29.09000	18429.90000
29.11000	16122.20000
29.13000	15053.80000
29.15000	14486.70000
29.17000	14114.90000
29.19000	13931.40000
29.21000	13819.60000
29.23000	13656.60000
29.25000	13517.80000
29.27000	13699.10000
29.29000	13667.50000
29.31000	13628.50000
29.33000	13568.40000
29.35000	13417.60000
29.37000	13453.20000
29.39000	13482.20000
29.41000	13549.10000
29.43000	13703.20000
29.45000	13487.00000
29.47000	13522.80000
29.49000	13629.00000
29.51000	13669.90000
29.53000	13591.40000
29.55000	13550.30000
29.57000	13446.90000
29.59000	13308.90000
29.61000	13509.20000
29.63000	13479.80000
29.65000	13361.90000
29.67000	13264.30000
29.69000	13400.60000
29.71000	13355.20000
29.73000	13313.80000
29.75000	13302.80000
29.77000	13321.00000
29.79000	13446.20000
29.81000	13359.10000
29.83000	13226.30000
29.85000	13261.30000
29.87000	13293.30000
29.89000	13225.10000
29.91000	13222.80000
29.93000	13379.40000
29.95000	13299.40000
29.97000	13342.80000
29.99000	13313.60000
30.01000	13174.90000
30.03000	13242.60000
30.05000	13252.50000
30.07000	13286.40000
30.09000	13348.80000
30.11000	13379.30000
30.13000	13328.10000
30.15000	13308.80000
30.17000	13334.80000
30.19000	13397.20000
30.21000	13281.50000
30.23000	13188.20000
30.25000	13151.80000
30.27000	13196.00000
30.29000	13275.20000
30.31000	13269.10000
30.33000	13243.30000
30.35000	13249.90000
30.37000	13264.40000
30.39000	13228.70000
30.41000	13208.30000
30.43000	13232.70000
30.45000	13279.10000
30.47000	13311.40000
30.49000	13197.50000
30.51000	13022.70000
30.53000	13223.00000
30.55000	13214.50000
30.57000	13206.30000
30.59000	13210.80000
30.61000	13177.30000
30.63000	13165.80000
30.65000	13177.50000
30.67000	13212.90000
30.69000	13271.50000
30.71000	13324.90000
30.73000	13308.90000
30.75000	13230.30000
30.77000	13107.30000
30.79000	13113.40000
30.81000	13094.20000
30.83000	13197.00000
30.85000	13427.90000
30.87000	13286.20000
30.89000	13217.70000
30.91000	13196.80000
30.93000	13217.20000
30.95000	13287.30000
30.97000	13339.70000
30.99000	13242.90000
31.01000	13089.60000
31.03000	13142.90000
31.05000	13201.10000
31.07000	13159.50000
31.09000	13144.60000
31.11000	13345.70000
31.13000	13341.50000
31.15000	13263.40000
31.17000	13203.50000
31.19000	13242.20000
31.21000	13359.50000
31.23000	13325.80000
31.25000	13250.10000
31.27000	13205.70000
31.29000	13269.70000
31.31000	13313.20000
31.33000	13361.10000
31.35000	13393.40000
31.37000	13293.60000
31.39000	13251.10000
31.41000	13309.20000
31.43000	13451.90000
31.45000	13618.70000
31.47000	13809.10000
31.49000	14092.00000
31.51000	14527.60000
31.53000	15192.40000
31.55000	16048.20000
31.57000	16953.20000
31.59000	17776.80000
31.61000	18366.70000
31.63000	17886.90000
31.65000	17531.50000
31.67000	17148.00000
31.69000	16618.10000
31.71000	15742.30000
31.73000	15142.80000
31.75000	14615.00000
31.77000	14140.00000
31.79000	13975.50000
31.81000	13886.30000
31.83000	13967.60000
31.85000	14124.30000
31.87000	14057.30000
31.89000	14435.90000
31.91000	14881.60000
31.93000	15565.10000
31.95000	16824.00000
31.97000	19083.40000
31.99000	22551.20000
32.01000	27245.10000
32.03000	33130.50000
32.05000	39788.40000
32.07000	43403.70000
32.09000	43615.60000
32.11000	40541.30000
32.13000	37210.90000
32.15000	33877.40000
32.17000	30109.60000
32.19000	25819.30000
32.21000	21423.30000
32.23000	18495.00000
32.25000	16546.50000
32.27000	15355.90000
32.29000	14642.30000
32.31000	14329.10000
32.33000	13959.50000
32.35000	13674.80000
32.37000	13814.20000
32.39000	13641.90000
32.41000	13538.20000
32.43000	13514.70000
32.45000	13556.40000
32.47000	13315.70000
32.49000	13292.90000
32.51000	13320.20000
32.53000	13283.90000
32.55000	13232.10000
32.57000	13163.30000
32.59000	13222.20000
32.61000	13364.70000
32.63000	13043.30000
32.65000	13066.80000
32.67000	13118.10000
32.69000	13121.80000
32.71000	13101.30000
32.73000	13044.80000
32.75000	13026.50000
32.77000	13067.40000
32.79000	13187.00000
32.81000	13113.40000
32.83000	13070.40000
32.85000	13046.40000
32.87000	13012.90000
32.89000	12912.40000
32.91000	12876.20000
32.93000	12882.10000
32.95000	12919.60000
32.97000	13068.10000
32.99000	13183.10000
33.01000	13132.80000
33.03000	12935.60000
33.05000	13038.40000
33.07000	12952.80000
33.09000	12908.50000
33.11000	12923.70000
33.13000	12849.80000
33.15000	13005.30000
33.17000	13041.10000
33.19000	12991.50000
33.21000	13028.80000
33.23000	12729.90000
33.25000	12822.00000
33.27000	13028.70000
33.29000	12955.00000
33.31000	12966.40000
33.33000	12951.10000
33.35000	12926.00000
33.37000	12906.10000
33.39000	12908.40000
33.41000	12961.60000
33.43000	12997.30000
33.45000	12994.60000
33.47000	13031.90000
33.49000	12879.60000
33.51000	12842.40000
33.53000	12921.70000
33.55000	12806.70000
33.57000	13020.40000
33.59000	13040.70000
33.61000	12866.10000
33.63000	12679.50000
33.65000	12863.80000
33.67000	12914.30000
33.69000	12852.00000
33.71000	12757.60000
33.73000	12909.90000
33.75000	12879.20000
33.77000	12850.40000
33.79000	12963.30000
33.81000	12895.50000
33.83000	12955.90000
33.85000	12957.20000
33.87000	12834.80000
33.89000	12824.10000
33.91000	12892.90000
33.93000	12906.70000
33.95000	12851.60000
33.97000	12837.90000
33.99000	12868.20000
34.01000	12845.20000
34.03000	12781.90000
34.05000	12747.60000
34.07000	12799.20000
34.09000	12779.20000
34.11000	12775.70000
34.13000	12928.80000
34.15000	12932.50000
34.17000	12842.90000
34.19000	12777.00000
34.21000	12828.00000
34.23000	12785.40000
34.25000	12780.70000
34.27000	12828.20000
34.29000	12922.40000
34.31000	12963.50000
34.33000	13022.20000
34.35000	13056.10000
34.37000	13058.00000
34.39000	13058.00000
34.41000	13123.80000
34.43000	13074.80000
34.45000	12955.20000
34.47000	12955.90000
34.49000	12919.70000
34.51000	12847.50000
34.53000	12758.50000
34.55000	12680.80000
34.57000	12713.20000
34.59000	12710.80000
34.61000	12686.80000
34.63000	12666.30000
34.65000	12860.50000
34.67000	12672.20000
34.69000	12540.60000
34.71000	12683.70000
34.73000	12700.40000
34.75000	12680.70000
34.77000	12640.20000
34.79000	12582.90000
34.81000	12500.60000
34.83000	12591.20000
34.85000	12677.70000
34.87000	12719.50000
34.89000	12712.60000
34.91000	12794.90000
34.93000	12694.40000
34.95000	12535.30000
34.97000	12561.20000
34.99000	12639.40000
35.01000	12700.90000
35.03000	12753.00000
35.05000	12801.70000
35.07000	12723.30000
35.09000	12713.50000
35.11000	12764.20000
35.13000	12859.50000
35.15000	12909.80000
35.17000	12786.60000
35.19000	12662.20000
35.21000	12630.00000
35.23000	12802.10000
35.25000	12842.10000
35.27000	12813.80000
35.29000	12756.00000
35.31000	12732.40000
35.33000	12651.90000
35.35000	12699.50000
35.37000	12766.00000
35.39000	12630.40000
35.41000	12750.00000
35.43000	12773.30000
35.45000	12742.10000
35.47000	12716.70000
35.49000	12605.50000
35.51000	12647.40000
35.53000	12772.30000
35.55000	12902.50000
35.57000	12749.40000
35.59000	12804.70000
35.61000	12851.30000
35.63000	12810.10000
35.65000	12754.50000
35.67000	12887.20000
35.69000	13025.90000
35.71000	13119.30000
35.73000	13155.10000
35.75000	13210.50000
35.77000	13269.30000
35.79000	13567.00000
35.81000	14527.40000
35.83000	15055.20000
35.85000	15814.20000
35.87000	16495.40000
35.89000	16714.20000
35.91000	16652.50000
35.93000	16178.10000
35.95000	15628.50000
35.97000	15238.80000
35.99000	14813.90000
36.01000	14448.00000
36.03000	14024.00000
36.05000	13539.80000
36.07000	13277.80000
36.09000	13216.00000
36.11000	13109.90000
36.13000	12926.00000
36.15000	12772.10000
36.17000	12897.10000
36.19000	12885.50000
36.21000	12803.40000
36.23000	12898.60000
36.25000	12887.50000
36.27000	12934.30000
36.29000	12952.20000
36.31000	12827.80000
36.33000	13021.20000
36.35000	13278.30000
36.37000	13600.80000
36.39000	13988.10000
36.41000	14435.90000
36.43000	14545.90000
36.45000	14385.90000
36.47000	14077.60000
36.49000	14146.20000
36.51000	14025.30000
36.53000	13995.50000
36.55000	14097.80000
36.57000	14187.60000
36.59000	13988.10000
36.61000	13850.40000
36.63000	13797.60000
36.65000	13755.70000
36.67000	13850.50000
36.69000	13916.50000
36.71000	14136.80000
36.73000	14755.20000
36.75000	15900.60000
36.77000	17415.30000
36.79000	19067.80000
36.81000	20548.10000
36.83000	20089.60000
36.85000	19121.10000
36.87000	18287.40000
36.89000	17848.40000
36.91000	17281.00000
36.93000	16552.50000
36.95000	15499.70000
36.97000	14260.90000
36.99000	13525.20000
37.01000	13345.60000
37.03000	13121.10000
37.05000	12899.80000
37.07000	13028.50000
37.09000	12831.30000
37.11000	12818.30000
37.13000	12890.30000
37.15000	12851.50000
37.17000	12733.00000
37.19000	12741.20000
37.21000	12782.20000
37.23000	12774.90000
37.25000	12835.10000
37.27000	12797.30000
37.29000	12761.70000
37.31000	12776.10000
37.33000	12776.80000
37.35000	12675.80000
37.37000	12644.90000
37.39000	12725.20000
37.41000	12844.00000
37.43000	12837.50000
37.45000	12774.50000
37.47000	12733.70000
37.49000	12867.00000
37.51000	12807.40000
37.53000	12808.30000
37.55000	12783.70000
37.57000	12573.50000
37.59000	12757.60000
37.61000	12714.50000
37.63000	12624.80000
37.65000	12664.20000
37.67000	12645.20000
37.69000	12736.30000
37.71000	12741.30000
37.73000	12591.20000
37.75000	12672.70000
37.77000	12775.80000
37.79000	12819.30000
37.81000	12796.50000
37.83000	12805.60000
37.85000	12768.20000
37.87000	12958.20000
37.89000	13279.90000
37.91000	13346.90000
37.93000	13441.60000
37.95000	13647.20000
37.97000	13934.80000
37.99000	14244.70000
38.01000	13685.10000
38.03000	13577.10000
38.05000	13662.90000
38.07000	13637.40000
38.09000	13456.10000
38.11000	13280.90000
38.13000	13056.20000
38.15000	12789.40000
38.17000	12858.70000
38.19000	12828.90000
38.21000	12793.40000
38.23000	12787.80000
38.25000	12806.10000
38.27000	12819.20000
38.29000	12760.80000
38.31000	12703.30000
38.33000	12882.20000
38.35000	12840.30000
38.37000	12842.50000
38.39000	12854.90000
38.41000	12767.40000
38.43000	12717.90000
38.45000	12754.80000
38.47000	12776.80000
38.49000	12681.40000
38.51000	12745.40000
38.53000	12657.50000
38.55000	12610.20000
38.57000	12705.00000
38.59000	12644.80000
38.61000	12643.90000
38.63000	12681.20000
38.65000	12729.80000
38.67000	12700.90000
38.69000	12685.90000
38.71000	12683.90000
38.73000	12699.50000
38.75000	12746.00000
38.77000	12624.60000
38.79000	12578.70000
38.81000	12663.30000
38.83000	12916.20000
38.85000	12967.20000
38.87000	13143.90000
38.89000	13475.50000
38.91000	13966.30000
38.93000	14271.00000
38.95000	14505.60000
38.97000	14522.50000
38.99000	14249.80000
39.01000	14060.10000
39.03000	14040.00000
39.05000	13970.50000
39.07000	13741.60000
39.09000	13297.60000
39.11000	13197.10000
39.13000	13129.60000
39.15000	13021.20000
39.17000	12905.40000
39.19000	12877.90000
39.21000	12757.10000
39.23000	12604.50000
39.25000	12587.00000
39.27000	12675.20000
39.29000	12826.00000
39.31000	12986.20000
39.33000	13094.90000
39.35000	12897.60000
39.37000	12920.40000
39.39000	12960.30000
39.41000	12880.00000
39.43000	12954.60000
39.45000	12889.80000
39.47000	12743.40000
39.49000	12597.80000
39.51000	12768.40000
39.53000	12723.10000
39.55000	12708.80000
39.57000	12744.10000
39.59000	12648.90000
39.61000	12777.00000
39.63000	12850.00000
39.65000	12906.00000
39.67000	13114.70000
39.69000	13013.90000
39.71000	12995.50000
39.73000	13019.60000
39.75000	12999.10000
39.77000	13005.10000
39.79000	13160.20000
39.81000	13415.20000
39.83000	13716.30000
39.85000	13911.30000
39.87000	14094.90000
39.89000	14120.00000
39.91000	14011.60000
39.93000	14419.80000
39.95000	14745.20000
39.97000	15177.50000
39.99000	15842.90000
40.01000	16975.30000
40.03000	18664.50000
40.05000	20606.90000
40.07000	22553.40000
40.09000	24086.40000
40.11000	24515.00000
40.13000	24006.40000
40.15000	22921.50000
40.17000	21737.30000
40.19000	20876.00000
40.21000	19646.40000
40.23000	18383.50000
40.25000	17377.40000
40.27000	16399.50000
40.29000	15431.70000
40.31000	14712.10000
40.33000	14402.40000
40.35000	14713.10000
40.37000	15401.70000
40.39000	16074.70000
40.41000	16583.80000
40.43000	16873.90000
40.45000	16722.10000
40.47000	16460.50000
40.49000	16154.40000
40.51000	15803.30000
40.53000	15335.90000
40.55000	14931.40000
40.57000	14587.40000
40.59000	14275.10000
40.61000	13682.90000
40.63000	13261.40000
40.65000	13025.20000
40.67000	12972.50000
40.69000	13057.00000
40.71000	12901.40000
40.73000	12801.30000
40.75000	12906.70000
40.77000	13020.90000
40.79000	13009.50000
40.81000	12922.90000
40.83000	12807.30000
40.85000	12778.30000
40.87000	12741.60000
40.89000	12774.70000
40.91000	12857.20000
40.93000	12898.30000
40.95000	12726.50000
40.97000	12786.10000
40.99000	12898.10000
41.01000	12716.10000
41.03000	12663.60000
41.05000	12706.20000
41.07000	12734.20000
41.09000	12655.90000
41.11000	12896.60000
41.13000	12907.50000
41.15000	12868.40000
41.17000	12874.00000
41.19000	12756.70000
41.21000	12787.50000
41.23000	12832.10000
41.25000	12830.60000
41.27000	12750.70000
41.29000	12711.10000
41.31000	12726.60000
41.33000	12773.60000
41.35000	12781.30000
41.37000	12788.20000
41.39000	12766.80000
41.41000	12729.80000
41.43000	12703.90000
41.45000	12876.90000
41.47000	12818.10000
41.49000	12723.60000
41.51000	12807.20000
41.53000	12731.80000
41.55000	12791.80000
41.57000	12874.70000
41.59000	12905.20000
41.61000	12896.10000
41.63000	12797.50000
41.65000	12772.00000
41.67000	12855.50000
41.69000	12892.80000
41.71000	12755.60000
41.73000	12791.40000
41.75000	12940.80000
41.77000	12790.00000
41.79000	12820.30000
41.81000	12868.60000
41.83000	12945.50000
41.85000	13107.70000
41.87000	12940.40000
41.89000	13093.50000
41.91000	13284.20000
41.93000	13174.40000
41.95000	13386.90000
41.97000	13722.50000
41.99000	13963.50000
42.01000	13976.50000
42.03000	14009.30000
42.05000	13929.70000
42.07000	13862.90000
42.09000	13851.70000
42.11000	13828.10000
42.13000	13848.50000
42.15000	13847.00000
42.17000	13843.60000
42.19000	13952.50000
42.21000	13992.70000
42.23000	13918.30000
42.25000	13855.20000
42.27000	14048.70000
42.29000	14171.50000
42.31000	14561.90000
42.33000	15018.90000
42.35000	15282.60000
42.37000	15360.30000
42.39000	15438.50000
42.41000	15272.00000
42.43000	14756.20000
42.45000	14891.00000
42.47000	14782.50000
42.49000	14654.10000
42.51000	14610.90000
42.53000	14641.40000
42.55000	14620.90000
42.57000	14515.70000
42.59000	14361.60000
42.61000	14306.70000
42.63000	14253.90000
42.65000	14188.50000
42.67000	14113.40000
42.69000	14039.60000
42.71000	14398.70000
42.73000	14728.70000
42.75000	15030.90000
42.77000	15347.70000
42.79000	15029.20000
42.81000	14707.00000
42.83000	14497.20000
42.85000	14461.80000
42.87000	14157.90000
42.89000	13805.70000
42.91000	13640.30000
42.93000	13689.00000
42.95000	13366.10000
42.97000	13136.00000
42.99000	13006.90000
43.01000	12989.70000
43.03000	13114.60000
43.05000	13207.70000
43.07000	13436.20000
43.09000	13727.10000
43.11000	13863.40000
43.13000	13884.30000
43.15000	13845.80000
43.17000	13756.10000
43.19000	13621.30000
43.21000	13612.50000
43.23000	13477.40000
43.25000	13435.70000
43.27000	13634.30000
43.29000	13309.90000
43.31000	13126.60000
43.33000	13012.10000
43.35000	12943.50000
43.37000	13037.20000
43.39000	13040.20000
43.41000	12978.90000
43.43000	12914.40000
43.45000	13043.90000
43.47000	12988.60000
43.49000	12892.90000
43.51000	12834.40000
43.53000	12925.80000
43.55000	13027.00000
43.57000	13041.10000
43.59000	12985.20000
43.61000	12897.60000
43.63000	13003.00000
43.65000	13037.00000
43.67000	13068.40000
43.69000	13153.10000
43.71000	13038.10000
43.73000	12906.40000
43.75000	12932.70000
43.77000	13153.40000
43.79000	13070.40000
43.81000	12902.40000
43.83000	12916.90000
43.85000	13100.90000
43.87000	13009.50000
43.89000	13061.50000
43.91000	13209.40000
43.93000	13324.90000
43.95000	13120.80000
43.97000	13298.30000
43.99000	13463.00000
44.01000	13616.60000
44.03000	13824.50000
44.05000	14545.60000
44.07000	15509.90000
44.09000	16932.40000
44.11000	18971.10000
44.13000	20391.50000
44.15000	20857.90000
44.17000	20436.60000
44.19000	19285.00000
44.21000	18342.10000
44.23000	18173.40000
44.25000	18076.40000
44.27000	17694.70000
44.29000	16650.50000
44.31000	15675.10000
44.33000	14857.90000
44.35000	14234.10000
44.37000	13843.40000
44.39000	13795.70000
44.41000	13771.20000
44.43000	13734.30000
44.45000	13688.60000
44.47000	13799.50000
44.49000	14095.30000
44.51000	14516.70000
44.53000	15010.80000
44.55000	16037.40000
44.57000	17342.10000
44.59000	18645.70000
44.61000	19686.20000
44.63000	19745.60000
44.65000	19209.00000
44.67000	18674.00000
44.69000	18336.90000
44.71000	17957.60000
44.73000	17547.80000
44.75000	17054.90000
44.77000	16430.50000
44.79000	15576.00000
44.81000	14773.40000
44.83000	14261.70000
44.85000	13957.70000
44.87000	13663.70000
44.89000	13543.90000
44.91000	13412.80000
44.93000	13318.00000
44.95000	13317.20000
44.97000	13269.20000
44.99000	13164.30000
45.01000	13077.60000
45.03000	13053.20000
45.05000	12992.30000
45.07000	13043.30000
45.09000	13026.20000
45.11000	12924.10000
45.13000	13061.20000
45.15000	13196.40000
45.17000	13144.30000
45.19000	12985.30000
45.21000	13106.40000
45.23000	13032.10000
45.25000	12986.50000
45.27000	13030.60000
45.29000	13216.40000
45.31000	13196.40000
45.33000	13115.30000
45.35000	13083.70000
45.37000	13215.10000
45.39000	13221.10000
45.41000	13339.10000
45.43000	13463.30000
45.45000	13505.90000
45.47000	13376.40000
45.49000	13241.80000
45.51000	13176.80000
45.53000	13197.40000
45.55000	13192.80000
45.57000	13126.60000
45.59000	13198.50000
45.61000	13311.10000
45.63000	12967.60000
45.65000	13112.10000
45.67000	13187.60000
45.69000	13211.10000
45.71000	13389.30000
45.73000	13504.50000
45.75000	13715.90000
45.77000	14020.30000
45.79000	14397.20000
45.81000	14637.10000
45.83000	14655.40000
45.85000	14480.40000
45.87000	14153.90000
45.89000	13875.90000
45.91000	13959.40000
45.93000	13984.40000
45.95000	13796.90000
45.97000	13755.00000
45.99000	13485.60000
46.01000	13366.50000
46.03000	13386.00000
46.05000	13102.70000
46.07000	13005.00000
46.09000	13023.20000
46.11000	13097.40000
46.13000	13127.90000
46.15000	13049.10000
46.17000	13041.40000
46.19000	13083.50000
46.21000	13127.70000
46.23000	13072.10000
46.25000	13117.60000
46.27000	13152.50000
46.29000	13086.70000
46.31000	13044.10000
46.33000	12945.10000
46.35000	12943.40000
46.37000	13065.20000
46.39000	12926.60000
46.41000	12971.60000
46.43000	13027.30000
46.45000	13031.80000
46.47000	12967.80000
46.49000	13033.20000
46.51000	13059.50000
46.53000	13029.20000
46.55000	12975.20000
46.57000	13096.80000
46.59000	13087.30000
46.61000	13051.90000
46.63000	13176.00000
46.65000	13180.20000
46.67000	13200.40000
46.69000	13190.40000
46.71000	13106.80000
46.73000	12946.90000
46.75000	12928.00000
46.77000	12958.20000
46.79000	12975.50000
46.81000	12913.80000
46.83000	12947.50000
46.85000	12938.20000
46.87000	12884.70000
46.89000	12979.20000
46.91000	12874.70000
46.93000	12959.20000
46.95000	13138.10000
46.97000	12993.40000
46.99000	13004.00000
47.01000	13026.40000
47.03000	13062.70000
47.05000	13138.10000
47.07000	13059.80000
47.09000	13127.30000
47.11000	13130.30000
47.13000	12886.70000
47.15000	13070.20000
47.17000	13215.70000
47.19000	13199.30000
47.21000	13002.80000
47.23000	13103.30000
47.25000	12877.10000
47.27000	12888.00000
47.29000	13191.40000
47.31000	13099.30000
47.33000	13025.80000
47.35000	13086.20000
47.37000	13222.00000
47.39000	13217.40000
47.41000	13130.10000
47.43000	13040.90000
47.45000	12961.40000
47.47000	12895.20000
47.49000	13027.80000
47.51000	13100.40000
47.53000	13064.50000
47.55000	12900.20000
47.57000	13193.40000
47.59000	13136.50000
47.61000	13088.50000
47.63000	13236.10000
47.65000	13124.10000
47.67000	13229.60000
47.69000	13193.10000
47.71000	12981.40000
47.73000	13124.60000
47.75000	13137.20000
47.77000	13178.10000
47.79000	13225.10000
47.81000	13111.60000
47.83000	13055.60000
47.85000	13067.10000
47.87000	13078.90000
47.89000	12975.30000
47.91000	13184.20000
47.93000	13165.20000
47.95000	13087.00000
47.97000	13155.60000
47.99000	13187.60000
48.01000	13490.70000
48.03000	13734.90000
48.05000	13716.20000
48.07000	13719.30000
48.09000	13804.20000
48.11000	13772.00000
48.13000	13590.70000
48.15000	13538.90000
48.17000	13532.50000
48.19000	13639.50000
48.21000	13745.40000
48.23000	13460.60000
48.25000	13380.20000
48.27000	13258.30000
48.29000	13148.80000
48.31000	13212.80000
48.33000	13084.30000
48.35000	13166.40000
48.37000	13263.30000
48.39000	13130.60000
48.41000	13180.80000
48.43000	13112.50000
48.45000	13058.30000
48.47000	13104.10000
48.49000	13091.10000
48.51000	13079.30000
48.53000	13155.80000
48.55000	13303.00000
48.57000	13197.90000
48.59000	13196.50000
48.61000	13206.20000
48.63000	13200.40000
48.65000	13176.80000
48.67000	13086.10000
48.69000	13087.50000
48.71000	13146.20000
48.73000	13147.00000
48.75000	13256.70000
48.77000	13377.60000
48.79000	13482.40000
48.81000	13547.30000
48.83000	13682.90000
48.85000	14007.00000
48.87000	14442.10000
48.89000	14939.60000
48.91000	15721.00000
48.93000	16366.30000
48.95000	16964.50000
48.97000	17494.70000
48.99000	17564.80000
49.01000	17296.20000
49.03000	17044.20000
49.05000	16816.70000
49.07000	16275.20000
49.09000	16051.20000
49.11000	15987.50000
49.13000	15944.80000
49.15000	15691.90000
49.17000	15385.00000
49.19000	15077.60000
49.21000	14775.00000
49.23000	14478.80000
49.25000	14567.10000
49.27000	14508.90000
49.29000	14411.20000
49.31000	14366.30000
49.33000	14335.90000
49.35000	14525.80000
49.37000	14683.90000
49.39000	14678.00000
49.41000	14522.60000
49.43000	14714.00000
49.45000	14925.50000
49.47000	15067.80000
49.49000	15202.60000
49.51000	15171.00000
49.53000	15096.30000
49.55000	15018.00000
49.57000	14971.50000
49.59000	14830.00000
49.61000	14677.40000
49.63000	14581.70000
49.65000	14624.40000
49.67000	14297.70000
49.69000	14074.80000
49.71000	13881.40000
49.73000	13654.80000
49.75000	13607.60000
49.77000	13527.40000
49.79000	13513.10000
49.81000	13576.90000
49.83000	13399.50000
49.85000	13332.10000
49.87000	13295.50000
49.89000	13256.20000
49.91000	13192.30000
49.93000	13057.30000
49.95000	13076.70000
49.97000	13225.10000
49.99000	13334.80000
50.01000	13363.50000
50.03000	13208.50000
50.05000	13074.80000
50.07000	13277.40000
50.09000	13352.70000
50.11000	13388.10000
50.13000	13377.30000
50.15000	13312.70000
50.17000	13174.10000
50.19000	13227.70000
50.21000	13328.00000
50.23000	13374.20000
50.25000	13265.30000
50.27000	13338.40000
50.29000	13372.70000
50.31000	13345.20000
50.33000	13508.90000
50.35000	13610.10000
50.37000	13676.80000
50.39000	13789.90000
50.41000	14137.90000
50.43000	14250.90000
50.45000	14409.30000
50.47000	14543.90000
50.49000	14497.50000
50.51000	14434.00000
50.53000	14365.10000
50.55000	14269.70000
50.57000	14132.20000
50.59000	14104.80000
50.61000	14166.90000
50.63000	14112.80000
50.65000	13847.10000
50.67000	13704.70000
50.69000	13700.80000
50.71000	13632.30000
50.73000	13456.70000
50.75000	13355.40000
50.77000	13399.70000
50.79000	13566.00000
50.81000	13752.20000
50.83000	13696.60000
50.85000	13863.60000
50.87000	14098.80000
50.89000	14334.00000
50.91000	14487.90000
50.93000	14918.90000
50.95000	15175.10000
50.97000	15375.50000
50.99000	15665.00000
51.01000	15855.40000
51.03000	15710.90000
51.05000	15538.80000
51.07000	15520.30000
51.09000	15329.10000
51.11000	15280.90000
51.13000	15276.60000
51.15000	15246.00000
51.17000	15050.30000
51.19000	14534.10000
51.21000	14240.00000
51.23000	14190.50000
51.25000	14045.80000
51.27000	13999.50000
51.29000	13873.20000
51.31000	13762.50000
51.33000	13881.30000
51.35000	13431.00000
51.37000	13304.20000
51.39000	13356.50000
51.41000	13367.00000
51.43000	13364.70000
51.45000	13284.10000
51.47000	13248.50000
51.49000	13342.80000
51.51000	13502.70000
51.53000	13377.10000
51.55000	13243.00000
51.57000	13223.30000
51.59000	13292.60000
51.61000	13258.10000
51.63000	13207.90000
51.65000	13201.60000
51.67000	13347.80000
51.69000	13416.70000
51.71000	13524.40000
51.73000	13579.70000
51.75000	13375.60000
51.77000	13277.80000
51.79000	13371.70000
51.81000	13495.00000
51.83000	13448.10000
51.85000	13464.10000
51.87000	13457.40000
51.89000	13456.20000
51.91000	13486.50000
51.93000	13602.30000
51.95000	13525.60000
51.97000	13478.40000
51.99000	13541.50000
52.01000	13545.30000
52.03000	13452.50000
52.05000	13422.00000
52.07000	13450.20000
52.09000	13365.70000
52.11000	13281.10000
52.13000	13282.40000
52.15000	13355.00000
52.17000	13439.50000
52.19000	13435.70000
52.21000	13410.20000
52.23000	13392.10000
52.25000	13411.90000
52.27000	13366.50000
52.29000	13241.20000
52.31000	13211.10000
52.33000	13391.10000
52.35000	13321.80000
52.37000	13400.90000
52.39000	13397.30000
52.41000	13239.10000
52.43000	13248.20000
52.45000	13334.00000
52.47000	13397.50000
52.49000	13398.00000
52.51000	13302.80000
52.53000	13406.70000
52.55000	13442.20000
52.57000	13404.00000
52.59000	13387.20000
52.61000	13288.60000
52.63000	13424.10000
52.65000	13536.90000
52.67000	13243.70000
52.69000	13322.00000
52.71000	13326.90000
52.73000	13290.90000
52.75000	13253.60000
52.77000	13306.90000
52.79000	13509.70000
52.81000	13792.10000
52.83000	14055.30000
52.85000	13874.80000
52.87000	13873.20000
52.89000	14002.70000
52.91000	14202.20000
52.93000	14297.40000
52.95000	14288.20000
52.97000	14313.70000
52.99000	14328.50000
53.01000	14161.70000
53.03000	14206.00000
53.05000	14062.80000
53.07000	13854.20000
53.09000	13813.90000
53.11000	13799.60000
53.13000	13795.00000
53.15000	13740.20000
53.17000	13590.70000
53.19000	13583.10000
53.21000	13482.50000
53.23000	13468.50000
53.25000	13599.80000
53.27000	13488.60000
53.29000	13475.80000
53.31000	13432.70000
53.33000	13340.40000
53.35000	13318.30000
53.37000	13360.90000
53.39000	13481.90000
53.41000	13600.80000
53.43000	13510.20000
53.45000	13454.90000
53.47000	13446.70000
53.49000	13446.90000
53.51000	13393.60000
53.53000	13320.30000
53.55000	13353.10000
53.57000	13424.10000
53.59000	13460.70000
53.61000	13451.60000
53.63000	13423.80000
53.65000	13451.20000
53.67000	13563.80000
53.69000	13616.40000
53.71000	13522.40000
53.73000	13519.20000
53.75000	13693.20000
53.77000	14007.70000
53.79000	13891.00000
53.81000	13857.60000
53.83000	13988.90000
53.85000	14180.10000
53.87000	14406.90000
53.89000	14684.70000
53.91000	15021.40000
53.93000	15426.60000
53.95000	15856.00000
53.97000	16165.70000
53.99000	16477.70000
54.01000	16916.20000
54.03000	17054.00000
54.05000	17012.90000
54.07000	17037.70000
54.09000	17289.20000
54.11000	17708.80000
54.13000	17960.00000
54.15000	17968.90000
54.17000	17694.90000
54.19000	17093.20000
54.21000	16719.00000
54.23000	16328.70000
54.25000	15888.60000
54.27000	15478.10000
54.29000	15364.00000
54.31000	15236.50000
54.33000	15035.80000
54.35000	14731.20000
54.37000	14518.70000
54.39000	14355.70000
54.41000	14196.40000
54.43000	13994.40000
54.45000	13883.20000
54.47000	13880.50000
54.49000	13964.10000
54.51000	14106.80000
54.53000	14196.60000
54.55000	14197.10000
54.57000	14222.00000
54.59000	14296.20000
54.61000	14275.60000
54.63000	14187.40000
54.65000	14140.90000
54.67000	14150.50000
54.69000	14168.00000
54.71000	14164.60000
54.73000	14173.70000
54.75000	14238.70000
54.77000	14431.40000
54.79000	14814.80000
54.81000	14874.30000
54.83000	14766.70000
54.85000	14719.60000
54.87000	14823.20000
54.89000	14792.70000
54.91000	14675.90000
54.93000	14516.20000
54.95000	14369.20000
54.97000	14343.30000
54.99000	14344.30000
55.01000	14314.90000
55.03000	14189.30000
55.05000	14057.40000
55.07000	13835.50000
55.09000	13616.50000
55.11000	13788.60000
55.13000	13696.00000
55.15000	13672.00000
55.17000	13700.40000
55.19000	13638.00000
55.21000	13583.40000
55.23000	13514.60000
55.25000	13542.40000
55.27000	13804.40000
55.29000	13685.70000
55.31000	13602.10000
55.33000	13583.80000
55.35000	13648.50000
55.37000	13726.20000
55.39000	13707.40000
55.41000	13642.40000
55.43000	13613.70000
55.45000	13980.10000
55.47000	14315.10000
55.49000	14707.20000
55.51000	15195.10000
55.53000	15816.50000
55.55000	15883.80000
55.57000	15754.40000
55.59000	15478.30000
55.61000	15023.60000
55.63000	14902.60000
55.65000	14796.20000
55.67000	14781.20000
55.69000	14993.70000
55.71000	14944.80000
55.73000	14681.40000
55.75000	14370.50000
55.77000	14162.30000
55.79000	14108.20000
55.81000	13992.40000
55.83000	14055.40000
55.85000	14356.00000
55.87000	14374.30000
55.89000	14649.60000
55.91000	14762.20000
55.93000	14636.00000
55.95000	14525.60000
55.97000	14592.40000
55.99000	14485.90000
56.01000	14286.50000
56.03000	14336.00000
56.05000	14169.10000
56.07000	14187.50000
56.09000	14247.50000
56.11000	14089.10000
56.13000	14033.00000
56.15000	13919.40000
56.17000	13831.90000
56.19000	13838.10000
56.21000	13672.10000
56.23000	13585.90000
56.25000	13573.60000
56.27000	13640.50000
56.29000	13859.80000
56.31000	13846.50000
56.33000	13756.90000
56.35000	13701.00000
56.37000	13896.70000
56.39000	13773.20000
56.41000	13806.20000
56.43000	13981.20000
56.45000	14013.20000
56.47000	13953.50000
56.49000	14054.50000
56.51000	14226.70000
56.53000	14292.20000
56.55000	14613.10000
56.57000	14856.00000
56.59000	15116.20000
56.61000	15499.40000
56.63000	16085.90000
56.65000	16590.00000
56.67000	16870.30000
56.69000	16857.30000
56.71000	16711.90000
56.73000	16471.20000
56.75000	16176.50000
56.77000	15904.80000
56.79000	15929.10000
56.81000	15960.60000
56.83000	15908.30000
56.85000	15774.60000
56.87000	15620.00000
56.89000	15516.30000
56.91000	15589.60000
56.93000	15805.50000
56.95000	16082.00000
56.97000	17024.90000
56.99000	18053.90000
57.01000	18972.80000
57.03000	19596.90000
57.05000	19631.90000
57.07000	19387.80000
57.09000	18935.30000
57.11000	18351.50000
57.13000	17902.20000
57.15000	17911.20000
57.17000	18060.70000
57.19000	18210.80000
57.21000	18325.80000
57.23000	17806.70000
57.25000	17122.00000
57.27000	16485.90000
57.29000	16172.10000
57.31000	16047.00000
57.33000	15723.70000
57.35000	15329.50000
57.37000	15174.90000
57.39000	15154.20000
57.41000	15082.00000
57.43000	14956.30000
57.45000	14785.00000
57.47000	14475.80000
57.49000	14256.00000
57.51000	14138.20000
57.53000	14129.50000
57.55000	14227.00000
57.57000	14201.10000
57.59000	14172.20000
57.61000	14166.80000
57.63000	14041.90000
57.65000	13987.30000
57.67000	13928.20000
57.69000	13845.10000
57.71000	13740.00000
57.73000	13923.00000
57.75000	14017.90000
57.77000	13997.00000
57.79000	13912.50000
57.81000	13903.70000
57.83000	14026.10000
57.85000	14105.00000
57.87000	13936.70000
57.89000	13771.40000
57.91000	13806.20000
57.93000	13881.70000
57.95000	13881.90000
57.97000	13895.70000
57.99000	13879.40000
58.01000	13949.60000
58.03000	14105.40000
58.05000	14023.90000
58.07000	14226.00000
58.09000	14211.50000
58.11000	14026.60000
58.13000	14292.40000
58.15000	14346.40000
58.17000	14332.10000
58.19000	14279.50000
58.21000	14201.80000
58.23000	14101.20000
58.25000	14144.40000
58.27000	14193.10000
58.29000	14062.10000
58.31000	13957.00000
58.33000	14029.10000
58.35000	14079.50000
58.37000	13969.50000
58.39000	14044.90000
58.41000	14021.90000
58.43000	13925.90000
58.45000	13797.30000
58.47000	13808.00000
58.49000	13952.80000
58.51000	14037.90000
58.53000	13995.50000
58.55000	13800.50000
58.57000	13868.30000
58.59000	13946.10000
58.61000	13977.20000
58.63000	13936.80000
58.65000	13936.80000
58.67000	13940.30000
58.69000	13931.20000
58.71000	13892.40000
58.73000	14034.60000
58.75000	14009.80000
58.77000	13935.20000
58.79000	13915.20000
58.81000	13919.00000
58.83000	14087.10000
58.85000	14106.40000
58.87000	13887.20000
58.89000	13986.20000
58.91000	14101.00000
58.93000	14054.50000
58.95000	13905.30000
58.97000	14097.20000
58.99000	14145.00000
59.01000	14275.30000
59.03000	14476.50000
59.05000	14623.50000
59.07000	14571.80000
59.09000	14633.50000
59.11000	14747.00000
59.13000	14784.30000
59.15000	14532.10000
59.17000	14426.60000
59.19000	14405.60000
59.21000	14399.60000
59.23000	14344.80000
59.25000	14267.20000
59.27000	14191.60000
59.29000	14153.50000
59.31000	14311.90000
59.33000	14307.00000
59.35000	14239.00000
59.37000	14141.50000
59.39000	14005.20000
59.41000	14026.50000
59.43000	14109.40000
59.45000	14192.00000
59.47000	14174.50000
59.49000	14072.90000
59.51000	14103.50000
59.53000	14241.20000
59.55000	14412.50000
59.57000	14296.80000
59.59000	14177.50000
59.61000	14128.30000
59.63000	14201.60000
59.65000	14133.90000
59.67000	14194.70000
59.69000	14299.20000
59.71000	14372.70000
59.73000	14234.10000
59.75000	14120.50000
59.77000	14184.90000
59.79000	14414.40000
59.81000	14493.60000
59.83000	14600.50000
59.85000	14748.40000
59.87000	14913.40000
59.89000	15025.30000
59.91000	15102.10000
59.93000	15240.60000
59.95000	15383.40000
59.97000	15420.70000
59.99000	15306.60000
60.01000	15290.80000
60.03000	15339.50000
60.05000	15401.30000
60.07000	15298.50000
60.09000	15141.90000
60.11000	15003.60000
60.13000	14932.70000
60.15000	14941.10000
60.17000	15026.10000
60.19000	15023.20000
60.21000	14937.90000
60.23000	15119.10000
60.25000	15436.50000
60.27000	15768.80000
60.29000	16137.20000
60.31000	16683.30000
60.33000	16920.90000
60.35000	17217.30000
60.37000	17422.90000
60.39000	17200.60000
60.41000	16828.70000
60.43000	16546.90000
60.45000	16298.20000
60.47000	16016.20000
60.49000	16141.10000
60.51000	16076.00000
60.53000	15957.60000
60.55000	15876.40000
60.57000	15754.50000
60.59000	15448.90000
60.61000	15035.10000
60.63000	14608.80000
60.65000	14493.10000
60.67000	14464.20000
60.69000	14349.40000
60.71000	14208.00000
60.73000	14352.70000
60.75000	14212.20000
60.77000	14077.50000
60.79000	14022.70000
60.81000	14105.70000
60.83000	14199.60000
60.85000	14223.40000
60.87000	14213.50000
60.89000	14217.90000
60.91000	14203.40000
60.93000	14185.20000
60.95000	14164.20000
60.97000	14143.60000
60.99000	14152.80000
61.01000	14213.80000
61.03000	14216.40000
61.05000	14141.10000
61.07000	14172.30000
61.09000	14096.40000
61.11000	14109.00000
61.13000	14199.90000
61.15000	14158.10000
61.17000	14194.50000
61.19000	14270.60000
61.21000	14340.30000
61.23000	14325.90000
61.25000	14436.70000
61.27000	14595.10000
61.29000	14747.70000
61.31000	14836.00000
61.33000	14842.90000
61.35000	14828.20000
61.37000	14844.40000
61.39000	14909.30000
61.41000	14688.40000
61.43000	14660.40000
61.45000	14665.70000
61.47000	14632.20000
61.49000	14609.30000
61.51000	14711.70000
61.53000	14812.10000
61.55000	14874.00000
61.57000	14906.80000
61.59000	15056.90000
61.61000	15244.00000
61.63000	15373.10000
61.65000	15275.70000
61.67000	15413.00000
61.69000	15281.60000
61.71000	15051.20000
61.73000	14996.40000
61.75000	14842.50000
61.77000	14827.20000
61.79000	14882.50000
61.81000	14948.30000
61.83000	15046.50000
61.85000	15051.70000
61.87000	15036.70000
61.89000	15037.40000
61.91000	15032.10000
61.93000	14966.30000
61.95000	14920.50000
61.97000	14882.00000
61.99000	14705.30000
62.01000	14801.80000
62.03000	14856.20000
62.05000	14826.70000
62.07000	14753.60000
62.09000	14800.00000
62.11000	14797.80000
62.13000	14724.70000
62.15000	14572.40000
62.17000	14485.30000
62.19000	14432.50000
62.21000	14353.90000
62.23000	14211.90000
62.25000	14320.80000
62.27000	14284.80000
62.29000	14249.00000
62.31000	14278.30000
62.33000	14234.10000
62.35000	14227.40000
62.37000	14270.30000
62.39000	14363.40000
62.41000	14491.30000
62.43000	14556.80000
62.45000	14661.90000
62.47000	14729.70000
62.49000	14526.30000
62.51000	14447.00000
62.53000	14421.40000
62.55000	14400.40000
62.57000	14321.90000
62.59000	14538.50000
62.61000	14486.80000
62.63000	14335.40000
62.65000	14264.10000
62.67000	14322.80000
62.69000	14385.30000
62.71000	14438.00000
62.73000	14479.60000
62.75000	14568.00000
62.77000	14471.10000
62.79000	14434.30000
62.81000	14475.10000
62.83000	14267.10000
62.85000	14374.10000
62.87000	14483.00000
62.89000	14498.30000
62.91000	14353.60000
62.93000	14298.60000
62.95000	14347.30000
62.97000	14420.00000
62.99000	14388.00000
63.01000	14320.00000
63.03000	14394.70000
63.05000	14434.20000
63.07000	14260.30000
63.09000	14127.70000
63.11000	14148.80000
63.13000	14144.40000
63.15000	14052.40000
63.17000	14383.00000
63.19000	14490.10000
63.21000	14403.00000
63.23000	14204.30000
63.25000	14226.40000
63.27000	14215.30000
63.29000	14248.10000
63.31000	14325.60000
63.33000	14399.50000
63.35000	14225.80000
63.37000	14208.80000
63.39000	14272.30000
63.41000	14200.00000
63.43000	14286.10000
63.45000	14323.90000
63.47000	14290.00000
63.49000	14181.60000
63.51000	14516.70000
63.53000	14473.40000
63.55000	14487.20000
63.57000	14795.80000
63.59000	14706.70000
63.61000	14768.40000
63.63000	14830.50000
63.65000	14843.50000
63.67000	14889.20000
63.69000	14876.20000
63.71000	14884.80000
63.73000	14883.50000
63.75000	14718.30000
63.77000	15013.60000
63.79000	14968.10000
63.81000	14745.50000
63.83000	14846.00000
63.85000	14783.70000
63.87000	14660.90000
63.89000	14555.50000
63.91000	14549.00000
63.93000	14635.00000
63.95000	14651.40000
63.97000	14656.50000
63.99000	14681.50000
64.01000	14577.10000
64.03000	14420.20000
64.05000	14390.90000
64.07000	14517.10000
64.09000	14488.20000
64.11000	14414.90000
64.13000	14416.90000
64.15000	14466.80000
64.17000	14373.10000
64.19000	14206.30000
64.21000	14222.10000
64.23000	14359.50000
64.25000	14424.20000
64.27000	14435.20000
64.29000	14439.00000
64.31000	14484.70000
64.33000	14626.00000
64.35000	14622.90000
64.37000	14425.50000
64.39000	14345.30000
64.41000	14595.00000
64.43000	14719.90000
64.45000	14751.00000
64.47000	14769.00000
64.49000	14804.00000
64.51000	14795.60000
64.53000	14794.00000
64.55000	14781.50000
64.57000	14738.80000
64.59000	14619.20000
64.61000	14702.30000
64.63000	14836.80000
64.65000	14864.10000
64.67000	14511.50000
64.69000	14780.90000
64.71000	14818.70000
64.73000	14690.50000
64.75000	14568.70000
64.77000	14521.80000
64.79000	14467.60000
64.81000	14426.20000
64.83000	14423.00000
64.85000	14586.00000
64.87000	14462.40000
64.89000	14427.50000
64.91000	14624.80000
64.93000	14683.50000
64.95000	14539.00000
64.97000	14455.70000
64.99000	14499.00000
65.01000	14595.00000
65.03000	14508.60000
65.05000	14509.90000
65.07000	14610.00000
65.09000	14723.50000
65.11000	14787.70000
65.13000	14627.80000
65.15000	14476.50000
65.17000	14672.20000
65.19000	14650.20000
65.21000	14786.50000
65.23000	14920.20000
65.25000	14915.20000
65.27000	15026.40000
65.29000	15146.50000
65.31000	15305.50000
65.33000	15475.50000
65.35000	15331.50000
65.37000	15334.70000
65.39000	15367.40000
65.41000	15452.10000
65.43000	15838.30000
65.45000	16040.60000
65.47000	16193.00000
65.49000	16347.70000
65.51000	16563.90000
65.53000	17141.80000
65.55000	17584.90000
65.57000	17906.40000
65.59000	18200.40000
65.61000	18275.50000
65.63000	18297.00000
65.65000	18301.70000
65.67000	18311.40000
65.69000	18088.30000
65.71000	17883.90000
65.73000	17621.70000
65.75000	17295.00000
65.77000	17225.00000
65.79000	17191.40000
65.81000	17019.70000
65.83000	16702.80000
65.85000	16489.60000
65.87000	16262.80000
65.89000	16063.70000
65.91000	15851.00000
65.93000	15498.40000
65.95000	15440.40000
65.97000	15434.00000
65.99000	15408.00000
66.01000	15294.50000
66.03000	15177.30000
66.05000	15149.00000
66.07000	15124.70000
66.09000	15018.90000
66.11000	14913.80000
66.13000	14921.10000
66.15000	15047.00000
66.17000	15226.80000
66.19000	14849.80000
66.21000	14756.50000
66.23000	14787.20000
66.25000	14851.10000
66.27000	14825.20000
66.29000	14831.90000
66.31000	14804.80000
66.33000	14777.80000
66.35000	14885.20000
66.37000	14658.90000
66.39000	14558.00000
66.41000	14617.00000
66.43000	14795.90000
66.45000	14714.50000
66.47000	14698.30000
66.49000	14731.60000
66.51000	14779.90000
66.53000	14773.00000
66.55000	14847.10000
66.57000	14785.50000
66.59000	14505.90000
66.61000	14674.20000
66.63000	14738.80000
66.65000	14684.00000
66.67000	14561.20000
66.69000	14660.20000
66.71000	14639.10000
66.73000	14757.60000
66.75000	14943.70000
66.77000	14795.20000
66.79000	14847.60000
66.81000	14895.00000
66.83000	14932.40000
66.85000	15001.70000
66.87000	14927.40000
66.89000	14860.50000
66.91000	14876.40000
66.93000	15043.00000
66.95000	14967.60000
66.97000	14895.40000
66.99000	14885.30000
67.01000	14955.40000
67.03000	14826.00000
67.05000	14806.00000
67.07000	14821.20000
67.09000	14830.40000
67.11000	14796.10000
67.13000	14656.10000
67.15000	14614.00000
67.17000	14635.70000
67.19000	14440.00000
67.21000	14575.00000
67.23000	14714.00000
67.25000	14805.80000
67.27000	14847.60000
67.29000	14835.60000
67.31000	14703.20000
67.33000	14549.60000
67.35000	14498.80000
67.37000	14678.60000
67.39000	14775.60000
67.41000	14772.90000
67.43000	14669.30000
67.45000	14596.90000
67.47000	14509.10000
67.49000	14488.10000
67.51000	14560.50000
67.53000	14643.50000
67.55000	14734.60000
67.57000	14721.60000
67.59000	14620.30000
67.61000	14595.20000
67.63000	14633.90000
67.65000	14614.00000
67.67000	14507.00000
67.69000	14297.60000
67.71000	14407.20000
67.73000	14492.50000
67.75000	14549.00000
67.77000	14603.80000
67.79000	14686.70000
67.81000	14695.80000
67.83000	14709.90000
67.85000	14783.50000
67.87000	14739.30000
67.89000	14856.60000
67.91000	14849.60000
67.93000	14664.80000
67.95000	14926.00000
67.97000	14896.10000
67.99000	14745.70000
68.01000	14584.20000
68.03000	14607.80000
68.05000	14661.10000
68.07000	14765.30000
68.09000	14855.50000
68.11000	14782.40000
68.13000	14861.00000
68.15000	14903.00000
68.17000	14902.10000
68.19000	14872.40000
68.21000	14736.60000
68.23000	14659.10000
68.25000	14681.40000
68.27000	14827.50000
68.29000	14941.80000
68.31000	14837.60000
68.33000	14805.00000
68.35000	14940.30000
68.37000	14769.70000
68.39000	14817.50000
68.41000	14927.30000
68.43000	15030.90000
68.45000	15071.20000
68.47000	14896.80000
68.49000	14944.40000
68.51000	15164.60000
68.53000	15240.80000
68.55000	15207.80000
68.57000	15331.10000
68.59000	15512.40000
68.61000	15571.80000
68.63000	15581.20000
68.65000	15628.10000
68.67000	15567.20000
68.69000	15293.90000
68.71000	15514.70000
68.73000	15315.80000
68.75000	15182.10000
68.77000	15339.30000
68.79000	15282.90000
68.81000	15152.80000
68.83000	15113.10000
68.85000	15140.10000
68.87000	14881.10000
68.89000	15054.10000
68.91000	15070.80000
68.93000	14897.80000
68.95000	14766.80000
68.97000	14776.50000
68.99000	14903.30000
69.01000	14997.70000
69.03000	14834.80000
69.05000	15021.50000
69.07000	14953.70000
69.09000	14839.20000
69.11000	14895.80000
69.13000	14888.10000
69.15000	14771.10000
69.17000	14715.90000
69.19000	14816.10000
69.21000	14936.50000
69.23000	14811.60000
69.25000	14811.40000
69.27000	14975.20000
69.29000	14819.80000
69.31000	14686.80000
69.33000	14781.10000
69.35000	14977.90000
69.37000	14818.70000
69.39000	14927.30000
69.41000	14852.70000
69.43000	14736.50000
69.45000	14901.80000
69.47000	14870.60000
69.49000	14898.00000
69.51000	14930.50000
69.53000	14905.90000
69.55000	15030.00000
69.57000	14983.20000
69.59000	14861.30000
69.61000	14732.70000
69.63000	14622.30000
69.65000	14693.30000
69.67000	14826.60000
69.69000	14951.80000
69.71000	14970.80000
69.73000	14844.10000
69.75000	14802.20000
69.77000	14853.80000
69.79000	14857.60000
69.81000	15047.10000
69.83000	15030.90000
69.85000	14918.50000
69.87000	14995.50000
69.89000	15082.50000
69.91000	15101.30000
69.93000	15121.70000
69.95000	15223.00000
69.97000	15223.00000
69.99000	15147.60000
70.01000	15091.50000
70.03000	15104.30000
70.05000	14975.50000
70.07000	14985.10000
70.09000	15035.20000
70.11000	15056.60000
70.13000	14915.00000
70.15000	15086.30000
70.17000	15059.10000
70.19000	14843.50000
70.21000	14896.80000
70.23000	14948.80000
70.25000	15084.60000
70.27000	15210.70000
70.29000	15128.50000
70.31000	15032.60000
70.33000	14907.40000
70.35000	14873.70000
70.37000	15068.40000
70.39000	14980.90000
70.41000	15004.70000
70.43000	15134.00000
70.45000	15345.90000
70.47000	15433.50000
70.49000	15210.30000
70.51000	15140.20000
70.53000	15354.30000
70.55000	15310.20000
70.57000	15277.20000
70.59000	15375.60000
70.61000	15553.10000
70.63000	15521.90000
70.65000	15834.90000
70.67000	15945.80000
70.69000	15946.80000
70.71000	16201.90000
70.73000	16200.20000
70.75000	16025.70000
70.77000	15841.70000
70.79000	15844.00000
70.81000	16082.60000
70.83000	16184.60000
70.85000	16137.40000
70.87000	15961.40000
70.89000	16052.80000
70.91000	16018.10000
70.93000	15899.50000
70.95000	15742.50000
70.97000	15696.80000
70.99000	15563.30000
71.01000	15449.30000
71.03000	15416.10000
71.05000	15560.80000
71.07000	15798.00000
71.09000	15728.00000
71.11000	15469.80000
71.13000	15431.70000
71.15000	15569.70000
71.17000	15699.70000
71.19000	15733.80000
71.21000	15577.70000
71.23000	15321.30000
71.25000	15333.30000
71.27000	15415.80000
71.29000	15391.10000
71.31000	15274.60000
71.33000	15229.40000
71.35000	15219.60000
71.37000	15231.70000
71.39000	15310.20000
71.41000	15219.00000
71.43000	15205.40000
71.45000	15312.10000
71.47000	15382.10000
71.49000	15233.00000
71.51000	15212.20000
71.53000	15303.00000
71.55000	15311.30000
71.57000	15307.80000
71.59000	15183.50000
71.61000	15091.40000
71.63000	15262.70000
71.65000	15119.60000
71.67000	15034.40000
71.69000	15070.30000
71.71000	15252.00000
71.73000	15060.80000
71.75000	14950.20000
71.77000	14939.10000
71.79000	15024.50000
71.81000	15097.60000
71.83000	15045.60000
71.85000	15095.40000
71.87000	15251.50000
71.89000	15193.60000
71.91000	15186.30000
71.93000	15285.30000
71.95000	15380.30000
71.97000	15172.40000
71.99000	15288.00000
72.01000	15279.50000
72.03000	15204.00000
72.05000	15221.50000
72.07000	15411.60000
72.09000	15407.70000
72.11000	15448.60000
72.13000	15751.70000
72.15000	15593.30000
72.17000	15509.50000
72.19000	15530.70000
72.21000	15654.30000
72.23000	15700.00000
72.25000	15686.20000
72.27000	15716.00000
72.29000	15810.20000
72.31000	15882.60000
72.33000	15727.20000
72.35000	15645.30000
72.37000	15703.50000
72.39000	15895.40000
72.41000	15878.90000
72.43000	15882.80000
72.45000	15874.10000
72.47000	15755.30000
72.49000	15950.00000
72.51000	16048.80000
72.53000	16028.90000
72.55000	15897.00000
72.57000	16055.40000
72.59000	16217.60000
72.61000	16297.50000
72.63000	16283.10000
72.65000	16609.80000
72.67000	16712.80000
72.69000	16789.40000
72.71000	16882.60000
72.73000	16804.90000
72.75000	16880.90000
72.77000	16801.50000
72.79000	16609.30000
72.81000	16639.80000
72.83000	16634.80000
72.85000	16523.40000
72.87000	16338.70000
72.89000	16155.10000
72.91000	16115.00000
72.93000	16202.80000
72.95000	16212.60000
72.97000	15932.50000
72.99000	16025.50000
73.01000	15859.00000
73.03000	15694.90000
73.05000	15704.90000
73.07000	15716.30000
73.09000	15581.00000
73.11000	15509.80000
73.13000	15570.90000
73.15000	15628.00000
73.17000	15413.60000
73.19000	15268.10000
73.21000	15255.10000
73.23000	15290.90000
73.25000	15266.00000
73.27000	15324.50000
73.29000	15377.20000
73.31000	15220.30000
73.33000	15240.90000
73.35000	15239.00000
73.37000	15261.90000
73.39000	15375.70000
73.41000	15334.50000
73.43000	15421.00000
73.45000	15532.00000
73.47000	15575.40000
73.49000	15393.40000
73.51000	15353.60000
73.53000	15360.70000
73.55000	15376.20000
73.57000	15439.40000
73.59000	15538.10000
73.61000	15549.90000
73.63000	15492.70000
73.65000	15538.40000
73.67000	15556.70000
73.69000	15598.30000
73.71000	15652.50000
73.73000	15682.20000
73.75000	15495.30000
73.77000	15376.20000
73.79000	15364.20000
73.81000	15480.00000
73.83000	15379.50000
73.85000	15470.40000
73.87000	15611.00000
73.89000	15666.10000
73.91000	15370.60000
73.93000	15462.20000
73.95000	15558.60000
73.97000	15479.90000
73.99000	15323.10000
74.01000	15399.50000
74.03000	15458.80000
74.05000	15414.90000
74.07000	15239.00000
74.09000	15318.60000
74.11000	15442.20000
74.13000	15533.60000
74.15000	15511.50000
74.17000	15423.60000
74.19000	15338.60000
74.21000	15285.10000
74.23000	15291.90000
74.25000	15356.20000
74.27000	15258.20000
74.29000	15157.00000
74.31000	15180.80000
74.33000	15138.90000
74.35000	15200.60000
74.37000	15232.30000
74.39000	15195.60000
74.41000	15325.10000
74.43000	15335.80000
74.45000	15270.70000
74.47000	15201.60000
74.49000	15343.30000
74.51000	15232.50000
74.53000	15179.90000
74.55000	15220.20000
74.57000	15297.90000
74.59000	15407.20000
74.61000	15458.40000
74.63000	15439.50000
74.65000	15346.60000
74.67000	15257.40000
74.69000	15304.50000
74.71000	15358.70000
74.73000	15320.80000
74.75000	15637.60000
74.77000	15599.50000
74.79000	15550.60000
74.81000	15625.30000
74.83000	15322.20000
74.85000	15269.20000
74.87000	15337.60000
74.89000	15453.20000
74.91000	15502.70000
74.93000	15503.50000
74.95000	15475.80000
74.97000	15432.00000
74.99000	15392.40000
75.01000	15477.30000
75.03000	15457.50000
75.05000	15459.10000
75.07000	15706.60000
75.09000	15520.80000
75.11000	15436.90000
75.13000	15434.60000
75.15000	15483.90000
75.17000	15736.70000
75.19000	15665.70000
75.21000	15537.50000
75.23000	15500.90000
75.25000	15406.50000
75.27000	15572.70000
75.29000	15602.00000
75.31000	15459.70000
75.33000	15661.50000
75.35000	15519.50000
75.37000	15448.50000
75.39000	15474.70000
75.41000	15422.90000
75.43000	15480.70000
75.45000	15562.20000
75.47000	15526.30000
75.49000	15165.30000
75.51000	15539.90000
75.53000	15551.70000
75.55000	15352.60000
75.57000	15155.60000
75.59000	15329.30000
75.61000	15513.80000
75.63000	15568.40000
75.65000	15431.90000
75.67000	15396.10000
75.69000	15386.20000
75.71000	15474.30000
75.73000	15592.50000
75.75000	15279.50000
75.77000	15367.40000
75.79000	15489.60000
75.81000	15518.30000
75.83000	15347.70000
75.85000	15361.40000
75.87000	15453.80000
75.89000	15532.10000
75.91000	15462.00000
75.93000	15526.80000
75.95000	15484.30000
75.97000	15366.10000
75.99000	15223.90000
76.01000	15217.00000
76.03000	15290.20000
76.05000	15343.40000
76.07000	15336.40000
76.09000	15593.80000
76.11000	15546.60000
76.13000	15446.50000
76.15000	15371.10000
76.17000	15150.20000
76.19000	15281.40000
76.21000	15419.40000
76.23000	15454.20000
76.25000	15330.80000
76.27000	15250.00000
76.29000	15251.30000
76.31000	15349.30000
76.33000	15560.20000
76.35000	15482.80000
76.37000	15359.90000
76.39000	15301.40000
76.41000	15412.50000
76.43000	15357.60000
76.45000	15382.90000
76.47000	15437.80000
76.49000	15489.30000
76.51000	15606.60000
76.53000	15580.20000
76.55000	15582.00000
76.57000	15672.70000
76.59000	15739.00000
76.61000	15665.60000
76.63000	15637.50000
76.65000	15679.50000
76.67000	15703.20000
76.69000	15623.60000
76.71000	15639.50000
76.73000	15742.80000
76.75000	15856.20000
76.77000	15882.30000
76.79000	15840.80000
76.81000	15842.80000
76.83000	16020.20000
76.85000	16174.80000
76.87000	16130.70000
76.89000	16090.70000
76.91000	16200.10000
76.93000	16201.60000
76.95000	16026.20000
76.97000	15973.40000
76.99000	16127.40000
77.01000	16081.70000
77.03000	15946.50000
77.05000	15929.00000
77.07000	15970.20000
77.09000	15651.10000
77.11000	15680.30000
77.13000	15832.50000
77.15000	15971.20000
77.17000	15894.20000
77.19000	15719.40000
77.21000	15713.60000
77.23000	15783.40000
77.25000	15778.00000
77.27000	15961.80000
77.29000	15760.50000
77.31000	15597.60000
77.33000	15805.60000
77.35000	15853.60000
77.37000	15835.00000
77.39000	15833.20000
77.41000	15880.70000
77.43000	15895.10000
77.45000	15948.70000
77.47000	15953.50000
77.49000	15907.00000
77.51000	15907.00000
77.53000	16087.00000
77.55000	16216.60000
77.57000	16244.60000
77.59000	16153.90000
77.61000	16253.20000
77.63000	16397.00000
77.65000	16526.60000
77.67000	16579.20000
77.69000	16421.80000
77.71000	16337.80000
77.73000	16362.60000
77.75000	16519.10000
77.77000	16763.60000
77.79000	16475.40000
77.81000	16267.80000
77.83000	16414.00000
77.85000	16329.50000
77.87000	16336.20000
77.89000	16296.00000
77.91000	16237.70000
77.93000	16469.20000
77.95000	16178.40000
77.97000	16008.90000
77.99000	15974.80000
78.01000	15794.30000
78.03000	15905.10000
78.05000	16083.80000
78.07000	16152.70000
78.09000	15885.40000
78.11000	15988.30000
78.13000	15917.90000
78.15000	15864.00000
78.17000	16002.80000
78.19000	15887.80000
78.21000	15911.70000
78.23000	15966.70000
78.25000	15987.30000
78.27000	15980.50000
78.29000	15991.00000
78.31000	16050.70000
78.33000	16170.70000
78.35000	16345.10000
78.37000	16207.10000
78.39000	16146.80000
78.41000	16160.40000
78.43000	16016.40000
78.45000	16159.10000
78.47000	16228.50000
78.49000	16236.80000
78.51000	16268.00000
78.53000	16366.30000
78.55000	16640.80000
78.57000	16906.20000
78.59000	16977.80000
78.61000	17077.60000
78.63000	17087.50000
78.65000	16968.10000
78.67000	16748.70000
78.69000	16924.70000
78.71000	16796.70000
78.73000	16722.30000
78.75000	16795.40000
78.77000	16777.90000
78.79000	16614.30000
78.81000	16540.60000
78.83000	16604.00000
78.85000	16779.20000
78.87000	16792.90000
78.89000	16787.00000
78.91000	16718.40000
78.93000	16484.60000
78.95000	16594.80000
78.97000	16463.80000
78.99000	16298.70000
79.01000	16347.50000
79.03000	16474.00000
79.05000	16473.80000
79.07000	16326.20000
79.09000	16069.10000
79.11000	16230.50000
79.13000	16219.50000
79.15000	16144.10000
79.17000	16045.20000
79.19000	15891.30000
79.21000	15871.30000
79.23000	15986.60000
79.25000	16157.30000
79.27000	16148.90000
79.29000	16194.80000
79.31000	16059.80000
79.33000	15895.80000
79.35000	16035.10000
79.37000	16281.60000
79.39000	16241.40000
79.41000	16086.90000
79.43000	16041.60000
79.45000	16093.40000
79.47000	16105.30000
79.49000	16148.70000
79.51000	16244.90000
79.53000	16023.30000
79.55000	15964.20000
79.57000	16036.50000
79.59000	16169.20000
79.61000	16050.30000
79.63000	16228.30000
79.65000	16221.30000
79.67000	16035.80000
79.69000	16117.30000
79.71000	15945.80000
79.73000	16048.70000
79.75000	16260.70000
79.77000	16106.90000
79.79000	16038.40000
79.81000	16108.00000
79.83000	16186.10000
79.85000	16114.10000
79.87000	16136.20000
79.89000	16088.30000
79.91000	16032.10000
79.93000	16021.80000
79.95000	16127.60000
79.97000	16189.50000
79.99000	16104.60000
80.01000	15902.80000
80.03000	16069.60000
80.05000	16013.20000
80.07000	15979.90000
80.09000	16016.80000
80.11000	16032.10000
80.13000	16052.60000
80.15000	16090.60000
80.17000	16105.70000
80.19000	16011.30000
80.21000	16063.30000
80.23000	16205.20000
80.25000	16234.40000
80.27000	15900.80000
80.29000	16150.50000
80.31000	16319.80000
80.33000	16433.20000
80.35000	16522.80000
80.37000	16698.70000
80.39000	16673.30000
80.41000	16587.30000
80.43000	16524.50000
80.45000	16545.80000
80.47000	16331.50000
80.49000	16280.00000
80.51000	16412.90000
80.53000	16339.00000
80.55000	16377.70000
80.57000	16399.60000
80.59000	16390.50000
80.61000	16371.40000
80.63000	16385.50000
80.65000	16413.00000
80.67000	16366.10000
80.69000	16129.30000
80.71000	16080.20000
80.73000	16163.40000
80.75000	16210.40000
80.77000	16084.80000
80.79000	16037.60000
80.81000	16140.20000
80.83000	16186.40000
80.85000	16071.10000
80.87000	15877.70000
80.89000	16029.90000
80.91000	16119.00000
80.93000	16034.90000
80.95000	15903.90000
80.97000	16097.50000
80.99000	16144.80000
81.01000	16065.90000
81.03000	16130.60000
81.05000	16146.50000
81.07000	16158.80000
81.09000	16172.90000
81.11000	16189.60000
81.13000	16343.40000
81.15000	16383.80000
81.17000	16377.40000
81.19000	16393.90000
81.21000	16441.80000
81.23000	16473.20000
81.25000	16513.10000
81.27000	16565.10000
81.29000	16536.20000
81.31000	16459.90000
81.33000	16446.50000
81.35000	16510.00000
81.37000	16535.20000
81.39000	16820.40000
81.41000	16943.70000
81.43000	16920.90000
81.45000	17024.50000
81.47000	16820.90000
81.49000	16820.30000
81.51000	16988.00000
81.53000	17179.10000
81.55000	17233.00000
81.57000	17042.60000
81.59000	16820.10000
81.61000	16781.60000
81.63000	16900.40000
81.65000	16788.70000
81.67000	16673.50000
81.69000	16690.90000
81.71000	16744.20000
81.73000	16747.10000
81.75000	16695.30000
81.77000	16620.10000
81.79000	16673.40000
81.81000	16731.20000
81.83000	16717.30000
81.85000	16658.60000
81.87000	16675.30000
81.89000	16668.10000
81.91000	16612.10000
81.93000	16545.10000
81.95000	16534.40000
81.97000	16429.40000
81.99000	16299.70000
82.01000	16225.60000
82.03000	16282.50000
82.05000	16259.70000
82.07000	16235.70000
82.09000	16256.30000
82.11000	16321.20000
82.13000	16117.80000
82.15000	16106.80000
82.17000	16230.80000
82.19000	16382.10000
82.21000	16146.00000
82.23000	16063.60000
82.25000	16008.60000
82.27000	16005.50000
82.29000	16217.90000
82.31000	16135.80000
82.33000	16141.10000
82.35000	16152.40000
82.37000	15931.50000
82.39000	16095.10000
82.41000	16162.50000
82.43000	16078.00000
82.45000	15822.20000
82.47000	16140.60000
82.49000	16178.40000
82.51000	16066.70000
82.53000	15923.60000
82.55000	15971.50000
82.57000	16065.30000
82.59000	16082.30000
82.61000	15983.80000
82.63000	15864.30000
82.65000	16014.60000
82.67000	16155.40000
82.69000	16211.70000
82.71000	16189.60000
82.73000	16094.90000
82.75000	15985.80000
82.77000	15956.00000
82.79000	16166.20000
82.81000	16013.40000
82.83000	16091.70000
82.85000	16201.50000
82.87000	16062.40000
82.89000	16154.60000
82.91000	16226.70000
82.93000	16159.00000
82.95000	15902.00000
82.97000	16008.60000
82.99000	15986.30000
83.01000	16043.40000
83.03000	16196.80000
83.05000	15942.40000
83.07000	15893.10000
83.09000	15945.80000
83.11000	16043.00000
83.13000	16096.30000
83.15000	16131.60000
83.17000	16072.90000
83.19000	15945.90000
83.21000	15828.60000
83.23000	16031.90000
83.25000	16058.70000
83.27000	15986.50000
83.29000	15962.10000
83.31000	16028.80000
83.33000	16250.40000
83.35000	16284.10000
83.37000	15918.00000
83.39000	16231.80000
83.41000	16336.40000
83.43000	16267.00000
83.45000	16083.00000
83.47000	16049.50000
83.49000	16166.90000
83.51000	16161.40000
83.53000	16026.80000
83.55000	16053.40000
83.57000	16035.20000
83.59000	16125.50000
83.61000	16245.30000
83.63000	16163.00000
83.65000	16280.60000
83.67000	16197.80000
83.69000	16131.40000
83.71000	16418.50000
83.73000	16577.80000
83.75000	16557.00000
83.77000	16445.20000
83.79000	16329.20000
83.81000	16313.20000
83.83000	16406.00000
83.85000	16414.40000
83.87000	16261.60000
83.89000	16167.20000
83.91000	16435.00000
83.93000	16519.30000
83.95000	16336.20000
83.97000	16284.40000
83.99000	16308.40000
84.01000	16304.70000
84.03000	16325.70000
84.05000	16540.50000
84.07000	16532.80000
84.09000	16401.20000
84.11000	16263.30000
84.13000	16274.80000
84.15000	16144.50000
84.17000	16097.00000
84.19000	16189.80000
84.21000	16444.40000
84.23000	16306.60000
84.25000	16266.80000
84.27000	16157.70000
84.29000	15951.80000
84.31000	16216.10000
84.33000	16263.60000
84.35000	16331.50000
84.37000	16461.50000
84.39000	16464.50000
84.41000	16346.60000
84.43000	16328.60000
84.45000	16371.40000
84.47000	16260.90000
84.49000	16215.60000
84.51000	16305.50000
84.53000	16430.50000
84.55000	16425.20000
84.57000	16207.60000
84.59000	16204.20000
84.61000	16236.00000
84.63000	16122.40000
84.65000	16165.80000
84.67000	16198.80000
84.69000	16199.60000
84.71000	16176.70000
84.73000	16324.50000
84.75000	16378.40000
84.77000	16277.40000
84.79000	16112.60000
84.81000	16402.80000
84.83000	16349.70000
84.85000	16201.60000
84.87000	16084.40000
84.89000	16179.60000
84.91000	16251.50000
84.93000	16208.30000
84.95000	16166.40000
84.97000	16334.70000
84.99000	16294.80000
85.01000	16222.10000
85.03000	16177.30000
85.05000	16210.70000
85.07000	16110.90000
85.09000	16207.00000
85.11000	16300.30000
85.13000	16267.50000
85.15000	16226.40000
85.17000	16293.40000
85.19000	16282.10000
85.21000	16199.00000
85.23000	16460.20000
85.25000	16417.80000
85.27000	16227.20000
85.29000	16045.50000
85.31000	16207.70000
85.33000	16155.60000
85.35000	16093.00000
85.37000	16076.80000
85.39000	16158.30000
85.41000	16111.90000
85.43000	16108.10000
85.45000	16089.00000
85.47000	15983.90000
85.49000	15978.60000
85.51000	16115.50000
85.53000	16199.30000
85.55000	16117.60000
85.57000	16191.50000
85.59000	16107.30000
85.61000	16135.10000
85.63000	16313.70000
85.65000	16201.70000
85.67000	16020.10000
85.69000	16045.00000
85.71000	16242.40000
85.73000	16279.70000
85.75000	16191.00000
85.77000	16023.20000
85.79000	15895.90000
85.81000	16019.30000
85.83000	16098.70000
85.85000	16178.60000
85.87000	16234.70000
85.89000	16236.30000
85.91000	16127.40000
85.93000	16092.90000
85.95000	16203.30000
85.97000	16472.30000
85.99000	16418.30000
86.01000	16347.00000
86.03000	16358.10000
86.05000	16452.60000
86.07000	16355.90000
86.09000	16334.90000
86.11000	16354.40000
86.13000	16418.40000
86.15000	16573.80000
86.17000	16701.10000
86.19000	16643.50000
86.21000	16563.00000
86.23000	16834.90000
86.25000	16890.50000
86.27000	16779.50000
86.29000	16708.30000
86.31000	16927.60000
86.33000	16771.40000
86.35000	16657.80000
86.37000	16548.60000
86.39000	16426.40000
86.41000	16517.80000
86.43000	16643.30000
86.45000	16677.80000
86.47000	16625.60000
86.49000	16922.70000
86.51000	17002.70000
86.53000	16997.40000
86.55000	16968.90000
86.57000	16990.20000
86.59000	16917.00000
86.61000	16924.50000
86.63000	16962.80000
86.65000	16858.40000
86.67000	16614.00000
86.69000	16372.50000
86.71000	16329.40000
86.73000	16723.90000
86.75000	16905.10000
86.77000	16743.50000
86.79000	16521.20000
86.81000	16490.10000
86.83000	16688.80000
86.85000	16687.60000
86.87000	16621.70000
86.89000	16546.40000
86.91000	16325.50000
86.93000	16383.80000
86.95000	16391.90000
86.97000	16290.10000
86.99000	16273.40000
87.01000	16350.20000
87.03000	16253.40000
87.05000	16082.60000
87.07000	16183.90000
87.09000	16237.60000
87.11000	16224.60000
87.13000	16196.20000
87.15000	16227.40000
87.17000	16274.30000
87.19000	16274.70000
87.21000	16205.40000
87.23000	16063.00000
87.25000	16181.80000
87.27000	16240.70000
87.29000	16287.70000
87.31000	16349.10000
87.33000	16408.50000
87.35000	16186.30000
87.37000	16141.10000
87.39000	16323.80000
87.41000	16261.30000
87.43000	16431.50000
87.45000	16450.30000
87.47000	16312.80000
87.49000	16205.50000
87.51000	16360.60000
87.53000	16431.60000
87.55000	16398.70000
87.57000	16289.00000
87.59000	16350.50000
87.61000	16450.90000
87.63000	16389.60000
87.65000	16018.50000
87.67000	16448.00000
87.69000	16489.50000
87.71000	16500.40000
87.73000	16646.60000
87.75000	16420.40000
87.77000	16467.40000
87.79000	16569.40000
87.81000	16609.40000
87.83000	16444.90000
87.85000	16397.80000
87.87000	16507.40000
87.89000	16652.40000
87.91000	16492.40000
87.93000	16399.20000
87.95000	16415.70000
87.97000	16516.60000
87.99000	16652.20000
88.01000	16558.60000
88.03000	16585.50000
88.05000	16582.00000
88.07000	16383.80000
88.09000	16179.70000
88.11000	16343.40000
88.13000	16521.90000
88.15000	16502.60000
88.17000	16521.70000
88.19000	16592.50000
88.21000	16548.20000
88.23000	16395.60000
88.25000	16501.40000
88.27000	16394.50000
88.29000	16391.70000
88.31000	16491.40000
88.33000	16469.30000
88.35000	16405.70000
88.37000	16424.90000
88.39000	16468.00000
88.41000	16404.80000
88.43000	16499.60000
88.45000	16474.30000
88.47000	16447.70000
88.49000	16562.70000
88.51000	16720.30000
88.53000	16784.70000
88.55000	16743.50000
88.57000	16621.80000
88.59000	16774.20000
88.61000	17151.90000
88.63000	17308.60000
88.65000	17160.60000
88.67000	17309.10000
88.69000	17214.90000
88.71000	17161.60000
88.73000	17199.20000
88.75000	17250.20000
88.77000	17175.70000
88.79000	17177.60000
88.81000	17198.30000
88.83000	17076.40000
88.85000	17178.20000
88.87000	17153.30000
88.89000	17093.30000
88.91000	17130.80000
88.93000	17463.60000
88.95000	17475.00000
88.97000	17311.40000
88.99000	17118.90000
89.01000	17276.60000
89.03000	17224.60000
89.05000	17207.60000
89.07000	17275.00000
89.09000	17044.20000
89.11000	16947.20000
89.13000	16983.90000
89.15000	17089.00000
89.17000	17052.50000
89.19000	17070.70000
89.21000	17115.60000
89.23000	17157.10000
89.25000	17145.70000
89.27000	17175.80000
89.29000	17105.00000
89.31000	17008.50000
89.33000	16991.00000
89.35000	17147.90000
89.37000	17149.40000
89.39000	17110.80000
89.41000	17116.00000
89.43000	17000.20000
89.45000	16956.20000
89.47000	16970.50000
89.49000	17016.20000
89.51000	16968.20000
89.53000	16925.10000
89.55000	16980.30000
89.57000	17102.50000
89.59000	17083.50000
89.61000	17229.40000
89.63000	17369.90000
89.65000	17445.40000
89.67000	17393.60000
89.69000	17149.00000
89.71000	17008.60000
89.73000	16959.40000
89.75000	16951.10000
89.77000	16873.20000
89.79000	16838.20000
89.81000	16839.30000
89.83000	16863.80000
89.85000	16821.10000
89.87000	16853.90000
89.89000	16869.20000
89.91000	16834.70000
89.93000	16876.60000
89.95000	16799.70000
89.97000	16757.60000
