15.01800	1996.00000
15.03500	2080.00000
15.05200	2133.00000
15.06900	2074.00000
15.08600	2083.00000
15.10300	2090.00000
15.12000	2043.00000
15.13700	2066.00000
15.15400	2081.00000
15.17100	2114.00000
15.18800	2066.00000
15.20500	2114.00000
15.22200	2159.00000
15.23900	2145.00000
15.25600	2059.00000
15.27300	2062.00000
15.29000	2114.00000
15.30700	2084.00000
15.32400	2088.00000
15.34100	2115.00000
15.35800	2160.00000
15.37500	2039.00000
15.39200	2115.00000
15.40900	2057.00000
15.42600	2053.00000
15.44300	2080.00000
15.46000	2096.00000
15.47700	2076.00000
15.49400	2091.00000
15.51100	2095.00000
15.52800	2158.00000
15.54500	2074.00000
15.56200	2139.00000
15.57900	2160.00000
15.59600	2066.00000
15.61300	2025.00000
15.63000	2142.00000
15.64700	2141.00000
15.66400	2104.00000
15.68100	2023.00000
15.69800	2072.00000
15.71500	2154.00000
15.73200	2034.00000
15.74900	2072.00000
15.76600	2032.00000
15.78300	2032.00000
15.80000	2039.00000
15.81700	2129.00000
15.83400	2080.00000
15.85100	2064.00000
15.86800	2109.00000
15.88500	2139.00000
15.90200	2238.00000
15.91900	2075.00000
15.93600	2154.00000
15.95300	2151.00000
15.97000	2087.00000
15.98700	2150.00000
16.00400	2163.00000
16.02100	2136.00000
16.03800	2151.00000
16.05500	2170.00000
16.07200	2149.00000
16.08900	2119.00000
16.10600	2145.00000
16.12300	2162.00000
16.14000	2079.00000
16.15700	2101.00000
16.17400	2049.00000
16.19100	2218.00000
16.20800	2152.00000
16.22500	2178.00000
16.24200	2256.00000
16.25900	2187.00000
16.27600	2134.00000
16.29300	2199.00000
16.31000	2243.00000
16.32700	2130.00000
16.34400	2144.00000
16.36100	2093.00000
16.37800	2102.00000
16.39500	2297.00000
16.41200	2281.00000
16.42900	2173.00000
16.44600	2233.00000
16.46300	2122.00000
16.48000	2102.00000
16.49700	2105.00000
16.51400	2108.00000
16.53100	2219.00000
16.54800	2234.00000
16.56500	2154.00000
16.58200	2255.00000
16.59900	2181.00000
16.61600	2132.00000
16.63300	2112.00000
16.65000	2222.00000
16.66700	2175.00000
16.68400	2188.00000
16.70100	2168.00000
16.71800	2036.00000
16.73500	2168.00000
16.75200	2182.00000
16.76900	2178.00000
16.78600	2137.00000
16.80300	2272.00000
16.82000	2198.00000
16.83700	2176.00000
16.85400	2194.00000
16.87100	2212.00000
16.88800	2186.00000
16.90500	2201.00000
16.92200	2169.00000
16.93900	2168.00000
16.95600	2213.00000
16.97300	2270.00000
16.99000	2224.00000
17.00700	2223.00000
17.02400	2209.00000
17.04100	2115.00000
17.05800	2110.00000
17.07500	2321.00000
17.09200	2276.00000
17.10900	2227.00000
17.12600	2224.00000
17.14300	2210.00000
17.16000	2209.00000
17.17700	2152.00000
17.19400	2260.00000
17.21100	2249.00000
17.22800	2129.00000
17.24500	2139.00000
17.26200	2237.00000
17.27900	2204.00000
17.29600	2215.00000
17.31300	2286.00000
17.33000	2143.00000
17.34700	2224.00000
17.36400	2282.00000
17.38100	2254.00000
17.39800	2205.00000
17.41500	2179.00000
17.43200	2287.00000
17.44900	2252.00000
17.46600	2250.00000
17.48300	2125.00000
17.50000	2159.00000
17.51700	2244.00000
17.53400	2195.00000
17.55100	2149.00000
17.56800	2230.00000
17.58500	2242.00000
17.60200	2208.00000
17.61900	2252.00000
17.63600	2213.00000
17.65300	2245.00000
17.67000	2178.00000
17.68700	2161.00000
17.70400	2216.00000
17.72100	2233.00000
17.73800	2182.00000
17.75500	2221.00000
17.77200	2226.00000
17.78900	2237.00000
17.80600	2176.00000
17.82300	2200.00000
17.84000	2260.00000
17.85700	2295.00000
17.87400	2237.00000
17.89100	2285.00000
17.90800	2287.00000
17.92500	2165.00000
17.94200	2193.00000
17.95900	2219.00000
17.97600	2228.00000
17.99300	2095.00000
18.01000	2154.00000
18.02700	2161.00000
18.04400	2235.00000
18.06100	2225.00000
18.07800	2247.00000
18.09500	2287.00000
18.11200	2300.00000
18.12900	2262.00000
18.14600	2239.00000
18.16300	2244.00000
18.18000	2279.00000
18.19700	2312.00000
18.21400	2262.00000
18.23100	2159.00000
18.24800	2292.00000
18.26500	2291.00000
18.28200	2224.00000
18.29900	2341.00000
18.31600	2386.00000
18.33300	2269.00000
18.35000	2255.00000
18.36700	2276.00000
18.38400	2298.00000
18.40100	2258.00000
18.41800	2277.00000
18.43500	2245.00000
18.45200	2272.00000
18.46900	2285.00000
18.48600	2345.00000
18.50300	2340.00000
18.52000	2303.00000
18.53700	2277.00000
18.55400	2333.00000
18.57100	2228.00000
18.58800	2260.00000
18.60500	2314.00000
18.62200	2323.00000
18.63900	2200.00000
18.65600	2277.00000
18.67300	2343.00000
18.69000	2269.00000
18.70700	2195.00000
18.72400	2245.00000
18.74100	2355.00000
18.75800	2276.00000
18.77500	2225.00000
18.79200	2345.00000
18.80900	2397.00000
18.82600	2381.00000
18.84300	2363.00000
18.86000	2202.00000
18.87700	2281.00000
18.89400	2333.00000
18.91100	2323.00000
18.92800	2287.00000
18.94500	2267.00000
18.96200	2255.00000
18.97900	2204.00000
18.99600	2215.00000
19.01300	2271.00000
19.03000	2268.00000
19.04700	2285.00000
19.06400	2315.00000
19.08100	2269.00000
19.09800	2305.00000
19.11500	2286.00000
19.13200	2280.00000
19.14900	2228.00000
19.16600	2314.00000
19.18300	2341.00000
19.20000	2331.00000
19.21700	2338.00000
19.23400	2328.00000
19.25100	2342.00000
19.26800	2347.00000
19.28500	2427.00000
19.30200	2403.00000
19.31900	2362.00000
19.33600	2409.00000
19.35300	2423.00000
19.37000	2387.00000
19.38700	2362.00000
19.40400	2380.00000
19.42100	2311.00000
19.43800	2347.00000
19.45500	2412.00000
19.47200	2385.00000
19.48900	2323.00000
19.50600	2294.00000
19.52300	2373.00000
19.54000	2460.00000
19.55700	2399.00000
19.57400	2359.00000
19.59100	2387.00000
19.60800	2502.00000
19.62500	2446.00000
19.64200	2300.00000
19.65900	2281.00000
19.67600	2385.00000
19.69300	2379.00000
19.71000	2471.00000
19.72700	2284.00000
19.74400	2414.00000
19.76100	2391.00000
19.77800	2437.00000
19.79500	2432.00000
19.81200	2388.00000
19.82900	2375.00000
19.84600	2422.00000
19.86300	2442.00000
19.88000	2377.00000
19.89700	2389.00000
19.91400	2392.00000
19.93100	2468.00000
19.94800	2409.00000
19.96500	2373.00000
19.98200	2374.00000
19.99900	2373.00000
20.01600	2414.00000
20.03300	2438.00000
20.05000	2472.00000
20.06700	2470.00000
20.08400	2376.00000
20.10100	2435.00000
20.11800	2489.00000
20.13500	2404.00000
20.15200	2449.00000
20.16900	2412.00000
20.18600	2378.00000
20.20300	2442.00000
20.22000	2490.00000
20.23700	2469.00000
20.25400	2479.00000
20.27100	2485.00000
20.28800	2421.00000
20.30500	2342.00000
20.32200	2433.00000
20.33900	2485.00000
20.35600	2437.00000
20.37300	2425.00000
20.39000	2445.00000
20.40700	2421.00000
20.42400	2394.00000
20.44100	2426.00000
20.45800	2445.00000
20.47500	2434.00000
20.49200	2470.00000
20.50900	2571.00000
20.52600	2440.00000
20.54300	2414.00000
20.56000	2510.00000
20.57700	2465.00000
20.59400	2467.00000
20.61100	2442.00000
20.62800	2484.00000
20.64500	2466.00000
20.66200	2459.00000
20.67900	2484.00000
20.69600	2486.00000
20.71300	2445.00000
20.73000	2435.00000
20.74700	2439.00000
20.76400	2414.00000
20.78100	2525.00000
20.79800	2489.00000
20.81500	2525.00000
20.83200	2459.00000
20.84900	2494.00000
20.86600	2502.00000
20.88300	2510.00000
20.90000	2504.00000
20.91700	2466.00000
20.93400	2480.00000
20.95100	2431.00000
20.96800	2393.00000
20.98500	2486.00000
21.00200	2534.00000
21.01900	2484.00000
21.03600	2444.00000
21.05300	2525.00000
21.07000	2554.00000
21.08700	2493.00000
21.10400	2493.00000
21.12100	2461.00000
21.13800	2374.00000
21.15500	2445.00000
21.17200	2494.00000
21.18900	2494.00000
21.20600	2484.00000
21.22300	2504.00000
21.24000	2460.00000
21.25700	2477.00000
21.27400	2477.00000
21.29100	2473.00000
21.30800	2516.00000
21.32500	2565.00000
21.34200	2489.00000
21.35900	2559.00000
21.37600	2544.00000
21.39300	2519.00000
21.41000	2598.00000
21.42700	2509.00000
21.44400	2541.00000
21.46100	2523.00000
21.47800	2516.00000
21.49500	2522.00000
21.51200	2570.00000
21.52900	2488.00000
21.54600	2459.00000
21.56300	2624.00000
21.58000	2570.00000
21.59700	2566.00000
21.61400	2663.00000
21.63100	2594.00000
21.64800	2707.00000
21.66500	2619.00000
21.68200	2550.00000
21.69900	2698.00000
21.71600	2600.00000
21.73300	2699.00000
21.75000	2623.00000
21.76700	2621.00000
21.78400	2663.00000
21.80100	2671.00000
21.81800	2597.00000
21.83500	2604.00000
21.85200	2631.00000
21.86900	2606.00000
21.88600	2688.00000
21.90300	2675.00000
21.92000	2584.00000
21.93700	2617.00000
21.95400	2623.00000
21.97100	2644.00000
21.98800	2597.00000
22.00500	2583.00000
22.02200	2666.00000
22.03900	2628.00000
22.05600	2661.00000
22.07300	2671.00000
22.09000	2590.00000
22.10700	2733.00000
22.12400	2698.00000
22.14100	2643.00000
22.15800	2612.00000
22.17500	2650.00000
22.19200	2622.00000
22.20900	2569.00000
22.22600	2643.00000
22.24300	2648.00000
22.26000	2704.00000
22.27700	2656.00000
22.29400	2615.00000
22.31100	2603.00000
22.32800	2622.00000
22.34500	2625.00000
22.36200	2561.00000
22.37900	2614.00000
22.39600	2637.00000
22.41300	2572.00000
22.43000	2638.00000
22.44700	2641.00000
22.46400	2691.00000
22.48100	2571.00000
22.49800	2633.00000
22.51500	2680.00000
22.53200	2690.00000
22.54900	2642.00000
22.56600	2701.00000
22.58300	2595.00000
22.60000	2623.00000
22.61700	2609.00000
22.63400	2560.00000
22.65100	2609.00000
22.66800	2632.00000
22.68500	2658.00000
22.70200	2587.00000
22.71900	2700.00000
22.73600	2644.00000
22.75300	2635.00000
22.77000	2679.00000
22.78700	2714.00000
22.80400	2683.00000
22.82100	2671.00000
22.83800	2749.00000
22.85500	2740.00000
22.87200	2702.00000
22.88900	2787.00000
22.90600	2908.00000
22.92300	2812.00000
22.94000	2640.00000
22.95700	2751.00000
22.97400	2849.00000
22.99100	2707.00000
23.00800	2672.00000
23.02500	2674.00000
23.04200	2688.00000
23.05900	2756.00000
23.07600	2785.00000
23.09300	2785.00000
23.11000	2714.00000
23.12700	2742.00000
23.14400	2700.00000
23.16100	2630.00000
23.17800	2607.00000
23.19500	2653.00000
23.21200	2847.00000
23.22900	2837.00000
23.24600	2719.00000
23.26300	2724.00000
23.28000	2738.00000
23.29700	2716.00000
23.31400	2712.00000
23.33100	2669.00000
23.34800	2683.00000
23.36500	2609.00000
23.38200	2804.00000
23.39900	2723.00000
23.41600	2719.00000
23.43300	2719.00000
23.45000	2650.00000
23.46700	2678.00000
23.48400	2602.00000
23.50100	2605.00000
23.51800	2694.00000
23.53500	2733.00000
23.55200	2770.00000
23.56900	2686.00000
23.58600	2752.00000
23.60300	2658.00000
23.62000	2713.00000
23.63700	2716.00000
23.65400	2686.00000
23.67100	2773.00000
23.68800	2788.00000
23.70500	2753.00000
23.72200	2703.00000
23.73900	2824.00000
23.75600	2819.00000
23.77300	2754.00000
23.79000	2692.00000
23.80700	2841.00000
23.82400	2874.00000
23.84100	2833.00000
23.85800	2899.00000
23.87500	2913.00000
23.89200	2899.00000
23.90900	2759.00000
23.92600	2766.00000
23.94300	2892.00000
23.96000	2868.00000
23.97700	2886.00000
23.99400	2878.00000
24.01100	2878.00000
24.02800	2838.00000
24.04500	2757.00000
24.06200	2827.00000
24.07900	2800.00000
24.09600	2794.00000
24.11300	2799.00000
24.13000	2801.00000
24.14700	2877.00000
24.16400	2844.00000
24.18100	2705.00000
24.19800	2816.00000
24.21500	3013.00000
24.23200	2935.00000
24.24900	2831.00000
24.26600	2868.00000
24.28300	2918.00000
24.30000	2914.00000
24.31700	2791.00000
24.33400	2782.00000
24.35100	2847.00000
24.36800	2716.00000
24.38500	2747.00000
24.40200	2805.00000
24.41900	2891.00000
24.43600	2684.00000
24.45300	2825.00000
24.47000	2828.00000
24.48700	2877.00000
24.50400	2846.00000
24.52100	2859.00000
24.53800	2828.00000
24.55500	2841.00000
24.57200	2809.00000
24.58900	2790.00000
24.60600	2838.00000
24.62300	2844.00000
24.64000	2785.00000
24.65700	2931.00000
24.67400	2810.00000
24.69100	2764.00000
24.70800	2861.00000
24.72500	2868.00000
24.74200	2842.00000
24.75900	2834.00000
24.77600	2740.00000
24.79300	2793.00000
24.81000	2868.00000
24.82700	2908.00000
24.84400	2789.00000
24.86100	2855.00000
24.87800	2837.00000
24.89500	2863.00000
24.91200	2868.00000
24.92900	2912.00000
24.94600	2938.00000
24.96300	2882.00000
24.98000	2877.00000
24.99700	2898.00000
25.01400	2838.00000
25.03100	2759.00000
25.04800	2863.00000
25.06500	2872.00000
25.08200	2889.00000
25.09900	2995.00000
25.11600	2893.00000
25.13300	2927.00000
25.15000	2928.00000
25.16700	2870.00000
25.18400	2879.00000
25.20100	2920.00000
25.21800	2971.00000
25.23500	2921.00000
25.25200	2924.00000
25.26900	2973.00000
25.28600	2983.00000
25.30300	2971.00000
25.32000	3015.00000
25.33700	3038.00000
25.35400	3057.00000
25.37100	3071.00000
25.38800	3004.00000
25.40500	3008.00000
25.42200	3089.00000
25.43900	3047.00000
25.45600	3067.00000
25.47300	3046.00000
25.49000	3061.00000
25.50700	3126.00000
25.52400	3187.00000
25.54100	3153.00000
25.55800	3057.00000
25.57500	3040.00000
25.59200	3022.00000
25.60900	3113.00000
25.62600	3221.00000
25.64300	3249.00000
25.66000	3298.00000
25.67700	3218.00000
25.69400	3147.00000
25.71100	3250.00000
25.72800	3201.00000
25.74500	3352.00000
25.76200	3367.00000
25.77900	3405.00000
25.79600	3307.00000
25.81300	3460.00000
25.83000	3530.00000
25.84700	3453.00000
25.86400	3528.00000
25.88100	3580.00000
25.89800	3616.00000
25.91500	3660.00000
25.93200	3643.00000
25.94900	3659.00000
25.96600	3788.00000
25.98300	3888.00000
26.00000	3943.00000
26.01700	3964.00000
26.03400	4050.00000
26.05100	4169.00000
26.06800	4222.00000
26.08500	4398.00000
26.10200	4525.00000
26.11900	4636.00000
26.13600	4795.00000
26.15300	5069.00000
26.17000	5478.00000
26.18700	5877.00000
26.20400	6421.00000
26.22100	7014.00000
26.23800	7666.00000
26.25500	8719.00000
26.27200	10195.00000
26.28900	11805.00000
26.30600	13790.00000
26.32300	16357.00000
26.34000	19155.00000
26.35700	22367.00000
26.37400	25904.00000
26.39100	29709.00000
26.40800	33552.00000
26.42500	36737.00000
26.44200	39445.00000
26.45900	40965.00000
26.47600	42246.00000
26.49300	41796.00000
26.51000	40311.00000
26.52700	37303.00000
26.54400	34044.00000
26.56100	29537.00000
26.57800	25351.00000
26.59500	21066.00000
26.61200	17166.00000
26.62900	14360.00000
26.64600	11568.00000
26.66300	9666.00000
26.68000	8468.00000
26.69700	7285.00000
26.71400	6608.00000
26.73100	6017.00000
26.74800	5541.00000
26.76500	5226.00000
26.78200	4980.00000
26.79900	4703.00000
26.81600	4474.00000
26.83300	4321.00000
26.85000	4125.00000
26.86700	4074.00000
26.88400	3916.00000
26.90100	3869.00000
26.91800	3838.00000
26.93500	3749.00000
26.95200	3674.00000
26.96900	3632.00000
26.98600	3592.00000
27.00300	3543.00000
27.02000	3442.00000
27.03700	3354.00000
27.05400	3381.00000
27.07100	3424.00000
27.08800	3369.00000
27.10500	3324.00000
27.12200	3263.00000
27.13900	3305.00000
27.15600	3277.00000
27.17300	3275.00000
27.19000	3248.00000
27.20700	3274.00000
27.22400	3146.00000
27.24100	3175.00000
27.25800	3116.00000
27.27500	3168.00000
27.29200	3134.00000
27.30900	3120.00000
27.32600	3120.00000
27.34300	3115.00000
27.36000	3134.00000
27.37700	3002.00000
27.39400	3117.00000
27.41100	3086.00000
27.42800	3075.00000
27.44500	3082.00000
27.46200	3004.00000
27.47900	2899.00000
27.49600	3019.00000
27.51300	3025.00000
27.53000	3029.00000
27.54700	3026.00000
27.56400	2946.00000
27.58100	3007.00000
27.59800	2932.00000
27.61500	2998.00000
27.63200	3033.00000
27.64900	2936.00000
27.66600	2966.00000
27.68300	2952.00000
27.70000	2959.00000
27.71700	2990.00000
27.73400	2959.00000
27.75100	2935.00000
27.76800	2977.00000
27.78500	2913.00000
27.80200	2944.00000
27.81900	2841.00000
27.83600	2907.00000
27.85300	2936.00000
27.87000	2995.00000
27.88700	2815.00000
27.90400	2851.00000
27.92100	2927.00000
27.93800	2886.00000
27.95500	2919.00000
27.97200	2916.00000
27.98900	2843.00000
28.00600	2931.00000
28.02300	2919.00000
28.04000	2918.00000
28.05700	2981.00000
28.07400	2925.00000
28.09100	2870.00000
28.10800	2878.00000
28.12500	2938.00000
28.14200	2896.00000
28.15900	2858.00000
28.17600	2929.00000
28.19300	2828.00000
28.21000	2905.00000
28.22700	2931.00000
28.24400	2890.00000
28.26100	2836.00000
28.27800	2805.00000
28.29500	2906.00000
28.31200	2847.00000
28.32900	2849.00000
28.34600	2909.00000
28.36300	2943.00000
28.38000	2977.00000
28.39700	2863.00000
28.41400	2832.00000
28.43100	2841.00000
28.44800	2924.00000
28.46500	2928.00000
28.48200	2915.00000
28.49900	2818.00000
28.51600	2839.00000
28.53300	2941.00000
28.55000	2898.00000
28.56700	2868.00000
28.58400	2802.00000
28.60100	2976.00000
28.61800	2727.00000
28.63500	2743.00000
28.65200	2854.00000
28.66900	2757.00000
28.68600	2873.00000
28.70300	2934.00000
28.72000	2822.00000
28.73700	2796.00000
28.75400	2808.00000
28.77100	2813.00000
28.78800	2823.00000
28.80500	2795.00000
28.82200	2800.00000
28.83900	2850.00000
28.85600	2799.00000
28.87300	2754.00000
28.89000	2789.00000
28.90700	2834.00000
28.92400	2793.00000
28.94100	2789.00000
28.95800	2799.00000
28.97500	2750.00000
28.99200	2792.00000
29.00900	2783.00000
29.02600	2785.00000
29.04300	2782.00000
29.06000	2837.00000
29.07700	2825.00000
29.09400	2887.00000
29.11100	2852.00000
29.12800	2758.00000
29.14500	2749.00000
29.16200	2791.00000
29.17900	2745.00000
29.19600	2822.00000
29.21300	2754.00000
29.23000	2879.00000
29.24700	2806.00000
29.26400	2755.00000
29.28100	2674.00000
29.29800	2732.00000
29.31500	2836.00000
29.33200	2820.00000
29.34900	2771.00000
29.36600	2806.00000
29.38300	2817.00000
29.40000	2862.00000
29.41700	2907.00000
29.43400	2898.00000
29.45100	2830.00000
29.46800	2778.00000
29.48500	2778.00000
29.50200	2778.00000
29.51900	2897.00000
29.53600	2917.00000
29.55300	2911.00000
29.57000	2956.00000
29.58700	2928.00000
29.60400	2684.00000
29.62100	2825.00000
29.63800	2871.00000
29.65500	2886.00000
29.67200	2779.00000
29.68900	2795.00000
29.70600	2750.00000
29.72300	2834.00000
29.74000	2768.00000
29.75700	2734.00000
29.77400	2709.00000
29.79100	2618.00000
29.80800	2691.00000
29.82500	2784.00000
29.84200	2730.00000
29.85900	2661.00000
29.87600	2747.00000
29.89300	2739.00000
29.91000	2806.00000
29.92700	2855.00000
29.94400	2876.00000
29.96100	2843.00000
29.97800	2829.00000
29.99500	2791.00000
30.01200	2831.00000
30.02900	2858.00000
30.04600	2746.00000
30.06300	2779.00000
30.08000	2830.00000
30.09700	2809.00000
30.11400	2780.00000
30.13100	2768.00000
30.14800	2755.00000
30.16500	2730.00000
30.18200	2687.00000
30.19900	2752.00000
30.21600	2740.00000
30.23300	2753.00000
30.25000	2825.00000
30.26700	2774.00000
30.28400	2725.00000
30.30100	2711.00000
30.31800	2650.00000
30.33500	2695.00000
30.35200	2804.00000
30.36900	2800.00000
30.38600	2734.00000
30.40300	2838.00000
30.42000	2691.00000
30.43700	2672.00000
30.45400	2738.00000
30.47100	2824.00000
30.48800	2653.00000
30.50500	2743.00000
30.52200	2799.00000
30.53900	2729.00000
30.55600	2806.00000
30.57300	2795.00000
30.59000	2746.00000
30.60700	2725.00000
30.62400	2757.00000
30.64100	2735.00000
30.65800	2806.00000
30.67500	2798.00000
30.69200	2782.00000
30.70900	2740.00000
30.72600	2701.00000
30.74300	2668.00000
30.76000	2739.00000
30.77700	2703.00000
30.79400	2801.00000
30.81100	2733.00000
30.82800	2793.00000
30.84500	2792.00000
30.86200	2779.00000
30.87900	2716.00000
30.89600	2848.00000
30.91300	2914.00000
30.93000	2890.00000
30.94700	2854.00000
30.96400	2836.00000
30.98100	2908.00000
30.99800	2829.00000
31.01500	2781.00000
31.03200	2781.00000
31.04900	2831.00000
31.06600	2793.00000
31.08300	2829.00000
31.10000	2802.00000
31.11700	2804.00000
31.13400	2843.00000
31.15100	2821.00000
31.16800	2853.00000
31.18500	2757.00000
31.20200	2707.00000
31.21900	2810.00000
31.23600	2830.00000
31.25300	2776.00000
31.27000	2856.00000
31.28700	2760.00000
31.30400	2638.00000
31.32100	2670.00000
31.33800	2757.00000
31.35500	2780.00000
31.37200	2677.00000
31.38900	2762.00000
31.40600	2704.00000
31.42300	2795.00000
31.44000	2719.00000
31.45700	2673.00000
31.47400	2745.00000
31.49100	2708.00000
31.50800	2716.00000
31.52500	2745.00000
31.54200	2714.00000
31.55900	2749.00000
31.57600	2700.00000
31.59300	2729.00000
31.61000	2750.00000
31.62700	2718.00000
31.64400	2689.00000
31.66100	2794.00000
31.67800	2778.00000
31.69500	2669.00000
31.71200	2715.00000
31.72900	2709.00000
31.74600	2786.00000
31.76300	2695.00000
31.78000	2759.00000
31.79700	2749.00000
31.81400	2745.00000
31.83100	2857.00000
31.84800	2820.00000
31.86500	2697.00000
31.88200	2678.00000
31.89900	2748.00000
31.91600	2777.00000
31.93300	2724.00000
31.95000	2684.00000
31.96700	2691.00000
31.98400	2657.00000
32.00100	2623.00000
32.01800	2746.00000
32.03500	2760.00000
32.05200	2699.00000
32.06900	2700.00000
32.08600	2717.00000
32.10300	2784.00000
32.12000	2831.00000
32.13700	2762.00000
32.15400	2695.00000
32.17100	2825.00000
32.18800	2822.00000
32.20500	2734.00000
32.22200	2682.00000
32.23900	2691.00000
32.25600	2729.00000
32.27300	2693.00000
32.29000	2659.00000
32.30700	2623.00000
32.32400	2739.00000
32.34100	2864.00000
32.35800	2742.00000
32.37500	2710.00000
32.39200	2714.00000
32.40900	2811.00000
32.42600	2773.00000
32.44300	2738.00000
32.46000	2690.00000
32.47700	2701.00000
32.49400	2814.00000
32.51100	2854.00000
32.52800	2823.00000
32.54500	2805.00000
32.56200	2782.00000
32.57900	2780.00000
32.59600	2764.00000
32.61300	2648.00000
32.63000	2686.00000
32.64700	2751.00000
32.66400	2694.00000
32.68100	2675.00000
32.69800	2600.00000
32.71500	2720.00000
32.73200	2729.00000
32.74900	2775.00000
32.76600	2782.00000
32.78300	2699.00000
32.80000	2690.00000
32.81700	2768.00000
32.83400	2617.00000
32.85100	2611.00000
32.86800	2723.00000
32.88500	2707.00000
32.90200	2687.00000
32.91900	2650.00000
32.93600	2622.00000
32.95300	2678.00000
32.97000	2763.00000
32.98700	2779.00000
33.00400	2684.00000
33.02100	2664.00000
33.03800	2563.00000
33.05500	2708.00000
33.07200	2779.00000
33.08900	2714.00000
33.10600	2756.00000
33.12300	2704.00000
33.14000	2630.00000
33.15700	2674.00000
33.17400	2724.00000
33.19100	2734.00000
33.20800	2773.00000
33.22500	2780.00000
33.24200	2690.00000
33.25900	2655.00000
33.27600	2692.00000
33.29300	2626.00000
33.31000	2696.00000
33.32700	2709.00000
33.34400	2606.00000
33.36100	2599.00000
33.37800	2578.00000
33.39500	2645.00000
33.41200	2640.00000
33.42900	2576.00000
33.44600	2668.00000
33.46300	2785.00000
33.48000	2717.00000
33.49700	2723.00000
33.51400	2720.00000
33.53100	2694.00000
33.54800	2687.00000
33.56500	2629.00000
33.58200	2647.00000
33.59900	2751.00000
33.61600	2767.00000
33.63300	2720.00000
33.65000	2631.00000
33.66700	2725.00000
33.68400	2653.00000
33.70100	2699.00000
33.71800	2692.00000
33.73500	2752.00000
33.75200	2550.00000
33.76900	2668.00000
33.78600	2696.00000
33.80300	2644.00000
33.82000	2604.00000
33.83700	2701.00000
33.85400	2598.00000
33.87100	2592.00000
33.88800	2646.00000
33.90500	2693.00000
33.92200	2703.00000
33.93900	2671.00000
33.95600	2661.00000
33.97300	2635.00000
33.99000	2624.00000
34.00700	2685.00000
34.02400	2761.00000
34.04100	2728.00000
34.05800	2718.00000
34.07500	2780.00000
34.09200	2720.00000
34.10900	2731.00000
34.12600	2801.00000
34.14300	2775.00000
34.16000	2766.00000
34.17700	2720.00000
34.19400	2827.00000
34.21100	2840.00000
34.22800	2735.00000
34.24500	2755.00000
34.26200	2709.00000
34.27900	2750.00000
34.29600	2759.00000
34.31300	2696.00000
34.33000	2668.00000
34.34700	2715.00000
34.36400	2706.00000
34.38100	2666.00000
34.39800	2665.00000
34.41500	2769.00000
34.43200	2617.00000
34.44900	2758.00000
34.46600	2762.00000
34.48300	2759.00000
34.50000	2751.00000
34.51700	2763.00000
34.53400	2714.00000
34.55100	2700.00000
34.56800	2749.00000
34.58500	2728.00000
34.60200	2639.00000
34.61900	2672.00000
34.63600	2684.00000
34.65300	2619.00000
34.67000	2731.00000
34.68700	2667.00000
34.70400	2601.00000
34.72100	2631.00000
34.73800	2612.00000
34.75500	2592.00000
34.77200	2643.00000
34.78900	2653.00000
34.80600	2743.00000
34.82300	2696.00000
34.84000	2674.00000
34.85700	2702.00000
34.87400	2681.00000
34.89100	2699.00000
34.90800	2613.00000
34.92500	2674.00000
34.94200	2713.00000
34.95900	2630.00000
34.97600	2687.00000
34.99300	2681.00000
35.01000	2671.00000
35.02700	2607.00000
35.04400	2707.00000
35.06100	2745.00000
35.07800	2767.00000
35.09500	2835.00000
35.11200	2616.00000
35.12900	2686.00000
35.14600	2743.00000
35.16300	2637.00000
35.18000	2588.00000
35.19700	2672.00000
35.21400	2661.00000
35.23100	2609.00000
35.24800	2686.00000
35.26500	2761.00000
35.28200	2699.00000
35.29900	2735.00000
35.31600	2700.00000
35.33300	2684.00000
35.35000	2665.00000
35.36700	2602.00000
35.38400	2561.00000
35.40100	2542.00000
35.41800	2678.00000
35.43500	2656.00000
35.45200	2731.00000
35.46900	2768.00000
35.48600	2614.00000
35.50300	2676.00000
35.52000	2557.00000
35.53700	2690.00000
35.55400	2753.00000
35.57100	2717.00000
35.58800	2761.00000
35.60500	2665.00000
35.62200	2769.00000
35.63900	2704.00000
35.65600	2659.00000
35.67300	2682.00000
35.69000	2658.00000
35.70700	2735.00000
35.72400	2706.00000
35.74100	2687.00000
35.75800	2688.00000
35.77500	2630.00000
35.79200	2745.00000
35.80900	2675.00000
35.82600	2669.00000
35.84300	2754.00000
35.86000	2770.00000
35.87700	2771.00000
35.89400	2711.00000
35.91100	2655.00000
35.92800	2687.00000
35.94500	2664.00000
35.96200	2724.00000
35.97900	2826.00000
35.99600	2778.00000
36.01300	2786.00000
36.03000	2730.00000
36.04700	2715.00000
36.06400	2712.00000
36.08100	2707.00000
36.09800	2772.00000
36.11500	2698.00000
36.13200	2812.00000
36.14900	2779.00000
36.16600	2698.00000
36.18300	2793.00000
36.20000	2817.00000
36.21700	2747.00000
36.23400	2777.00000
36.25100	2744.00000
36.26800	2718.00000
36.28500	2747.00000
36.30200	2880.00000
36.31900	2792.00000
36.33600	2693.00000
36.35300	2770.00000
36.37000	2824.00000
36.38700	2724.00000
36.40400	2799.00000
36.42100	2768.00000
36.43800	2818.00000
36.45500	2799.00000
36.47200	2823.00000
36.48900	2718.00000
36.50600	2792.00000
36.52300	2748.00000
36.54000	2859.00000
36.55700	2801.00000
36.57400	2841.00000
36.59100	2780.00000
36.60800	2811.00000
36.62500	2829.00000
36.64200	2763.00000
36.65900	2730.00000
36.67600	2861.00000
36.69300	2923.00000
36.71000	2949.00000
36.72700	3003.00000
36.74400	2931.00000
36.76100	2902.00000
36.77800	3028.00000
36.79500	2978.00000
36.81200	2970.00000
36.82900	2986.00000
36.84600	3077.00000
36.86300	3023.00000
36.88000	2997.00000
36.89700	3062.00000
36.91400	3118.00000
36.93100	3152.00000
36.94800	3173.00000
36.96500	3163.00000
36.98200	3149.00000
36.99900	3186.00000
37.01600	3170.00000
37.03300	3165.00000
37.05000	3244.00000
37.06700	3299.00000
37.08400	3269.00000
37.10100	3370.00000
37.11800	3333.00000
37.13500	3365.00000
37.15200	3411.00000
37.16900	3503.00000
37.18600	3672.00000
37.20300	3622.00000
37.22000	3658.00000
37.23700	3791.00000
37.25400	3660.00000
37.27100	3809.00000
37.28800	4008.00000
37.30500	4056.00000
37.32200	4156.00000
37.33900	4374.00000
37.35600	4562.00000
37.37300	4638.00000
37.39000	4853.00000
37.40700	5098.00000
37.42400	5468.00000
37.44100	5686.00000
37.45800	6123.00000
37.47500	6569.00000
37.49200	7214.00000
37.50900	7542.00000
37.52600	8131.00000
37.54300	8663.00000
37.56000	9193.00000
37.57700	10290.00000
37.59400	10735.00000
37.61100	11766.00000
37.62800	13007.00000
37.64500	14458.00000
37.66200	16280.00000
37.67900	18637.00000
37.69600	21824.00000
37.71300	25445.00000
37.73000	30180.00000
37.74700	35310.00000
37.76400	40537.00000
37.78100	44906.00000
37.79800	48243.00000
37.81500	49587.00000
37.83200	48858.00000
37.84900	46694.00000
37.86600	43175.00000
37.88300	38927.00000
37.90000	34767.00000
37.91700	30210.00000
37.93400	25525.00000
37.95100	21229.00000
37.96800	17328.00000
37.98500	14438.00000
38.00200	12222.00000
38.01900	10518.00000
38.03600	9153.00000
38.05300	8011.00000
38.07000	7409.00000
38.08700	6605.00000
38.10400	6075.00000
38.12100	5640.00000
38.13800	5335.00000
38.15500	5228.00000
38.17200	4867.00000
38.18900	4553.00000
38.20600	4331.00000
38.22300	4175.00000
38.24000	4143.00000
38.25700	4022.00000
38.27400	3955.00000
38.29100	3843.00000
38.30800	3788.00000
38.32500	3838.00000
38.34200	3656.00000
38.35900	3640.00000
38.37600	3605.00000
38.39300	3571.00000
38.41000	3412.00000
38.42700	3377.00000
38.44400	3316.00000
38.46100	3355.00000
38.47800	3322.00000
38.49500	3205.00000
38.51200	3202.00000
38.52900	3154.00000
38.54600	3180.00000
38.56300	3187.00000
38.58000	3192.00000
38.59700	3223.00000
38.61400	3174.00000
38.63100	3143.00000
38.64800	3113.00000
38.66500	3199.00000
38.68200	3186.00000
38.69900	3114.00000
38.71600	3076.00000
38.73300	3061.00000
38.75000	3064.00000
38.76700	2977.00000
38.78400	3064.00000
38.80100	3082.00000
38.81800	2947.00000
38.83500	2948.00000
38.85200	3032.00000
38.86900	3005.00000
38.88600	2944.00000
38.90300	3058.00000
38.92000	2916.00000
38.93700	2949.00000
38.95400	2896.00000
38.97100	2781.00000
38.98800	2889.00000
39.00500	2893.00000
39.02200	2850.00000
39.03900	2833.00000
39.05600	2916.00000
39.07300	2860.00000
39.09000	3015.00000
39.10700	2898.00000
39.12400	2759.00000
39.14100	2833.00000
39.15800	2846.00000
39.17500	2953.00000
39.19200	2791.00000
39.20900	2831.00000
39.22600	2828.00000
39.24300	2801.00000
39.26000	2866.00000
39.27700	2854.00000
39.29400	2794.00000
39.31100	2824.00000
39.32800	2734.00000
39.34500	2739.00000
39.36200	2695.00000
39.37900	2721.00000
39.39600	2767.00000
39.41300	2776.00000
39.43000	2745.00000
39.44700	2736.00000
39.46400	2678.00000
39.48100	2795.00000
39.49800	2695.00000
39.51500	2745.00000
39.53200	2853.00000
39.54900	2778.00000
39.56600	2668.00000
39.58300	2697.00000
39.60000	2734.00000
39.61700	2763.00000
39.63400	2805.00000
39.65100	2749.00000
39.66800	2737.00000
39.68500	2723.00000
39.70200	2800.00000
39.71900	2736.00000
39.73600	2761.00000
39.75300	2839.00000
39.77000	2743.00000
39.78700	2734.00000
39.80400	2759.00000
39.82100	2787.00000
39.83800	2724.00000
39.85500	2686.00000
39.87200	2801.00000
39.88900	2770.00000
39.90600	2678.00000
39.92300	2691.00000
39.94000	2752.00000
39.95700	2726.00000
39.97400	2732.00000
39.99100	2797.00000
40.00800	2677.00000
40.02500	2671.00000
40.04200	2642.00000
40.05900	2792.00000
40.07600	2781.00000
40.09300	2663.00000
40.11000	2748.00000
40.12700	2714.00000
40.14400	2602.00000
40.16100	2704.00000
40.17800	2651.00000
40.19500	2715.00000
40.21200	2712.00000
40.22900	2821.00000
40.24600	2754.00000
40.26300	2704.00000
40.28000	2846.00000
40.29700	2765.00000
40.31400	2778.00000
40.33100	2729.00000
40.34800	2706.00000
40.36500	2717.00000
40.38200	2720.00000
40.39900	2798.00000
40.41600	2759.00000
40.43300	2728.00000
40.45000	2734.00000
40.46700	2720.00000
40.48400	2749.00000
40.50100	2705.00000
40.51800	2655.00000
40.53500	2698.00000
40.55200	2761.00000
40.56900	2619.00000
40.58600	2648.00000
40.60300	2697.00000
40.62000	2718.00000
40.63700	2821.00000
40.65400	2789.00000
40.67100	2830.00000
40.68800	2846.00000
40.70500	2745.00000
40.72200	2668.00000
40.73900	2729.00000
40.75600	2724.00000
40.77300	2702.00000
40.79000	2648.00000
40.80700	2724.00000
40.82400	2724.00000
40.84100	2707.00000
40.85800	2688.00000
40.87500	2623.00000
40.89200	2617.00000
40.90900	2713.00000
40.92600	2662.00000
40.94300	2591.00000
40.96000	2663.00000
40.97700	2652.00000
40.99400	2592.00000
41.01100	2670.00000
41.02800	2622.00000
41.04500	2603.00000
41.06200	2648.00000
41.07900	2536.00000
41.09600	2611.00000
41.11300	2666.00000
41.13000	2774.00000
41.14700	2656.00000
41.16400	2676.00000
41.18100	2864.00000
41.19800	2709.00000
41.21500	2693.00000
41.23200	2703.00000
41.24900	2784.00000
41.26600	2657.00000
41.28300	2552.00000
41.30000	2689.00000
41.31700	2617.00000
41.33400	2771.00000
41.35100	2609.00000
41.36800	2697.00000
41.38500	2644.00000
41.40200	2732.00000
41.41900	2718.00000
41.43600	2668.00000
41.45300	2644.00000
41.47000	2692.00000
41.48700	2755.00000
41.50400	2774.00000
41.52100	2714.00000
41.53800	2715.00000
41.55500	2606.00000
41.57200	2635.00000
41.58900	2564.00000
41.60600	2633.00000
41.62300	2687.00000
41.64000	2680.00000
41.65700	2667.00000
41.67400	2663.00000
41.69100	2693.00000
41.70800	2687.00000
41.72500	2724.00000
41.74200	2742.00000
41.75900	2764.00000
41.77600	2772.00000
41.79300	2775.00000
41.81000	2780.00000
41.82700	2728.00000
41.84400	2751.00000
41.86100	2745.00000
41.87800	2723.00000
41.89500	2699.00000
41.91200	2702.00000
41.92900	2657.00000
41.94600	2682.00000
41.96300	2636.00000
41.98000	2770.00000
41.99700	2656.00000
42.01400	2612.00000
42.03100	2594.00000
42.04800	2691.00000
42.06500	2690.00000
42.08200	2741.00000
42.09900	2666.00000
42.11600	2705.00000
42.13300	2755.00000
42.15000	2627.00000
42.16700	2606.00000
42.18400	2741.00000
42.20100	2681.00000
42.21800	2825.00000
42.23500	2751.00000
42.25200	2858.00000
42.26900	2761.00000
42.28600	2729.00000
42.30300	2777.00000
42.32000	2766.00000
42.33700	2830.00000
42.35400	2953.00000
42.37100	2924.00000
42.38800	2978.00000
42.40500	2955.00000
42.42200	2925.00000
42.43900	2937.00000
42.45600	2934.00000
42.47300	2946.00000
42.49000	2959.00000
42.50700	2924.00000
42.52400	2919.00000
42.54100	2923.00000
42.55800	2845.00000
42.57500	2837.00000
42.59200	2886.00000
42.60900	2800.00000
42.62600	2763.00000
42.64300	2756.00000
42.66000	2715.00000
42.67700	2755.00000
42.69400	2807.00000
42.71100	2688.00000
42.72800	2787.00000
42.74500	2916.00000
42.76200	2802.00000
42.77900	2761.00000
42.79600	2724.00000
42.81300	2707.00000
42.83000	2797.00000
42.84700	2827.00000
42.86400	2825.00000
42.88100	2816.00000
42.89800	2710.00000
42.91500	2726.00000
42.93200	2780.00000
42.94900	2701.00000
42.96600	2667.00000
42.98300	2686.00000
43.00000	2657.00000
43.01700	2648.00000
43.03400	2716.00000
43.05100	2723.00000
43.06800	2785.00000
43.08500	2740.00000
43.10200	2598.00000
43.11900	2638.00000
43.13600	2741.00000
43.15300	2728.00000
43.17000	2689.00000
43.18700	2639.00000
43.20400	2643.00000
43.22100	2753.00000
43.23800	2676.00000
43.25500	2807.00000
43.27200	2696.00000
43.28900	2682.00000
43.30600	2618.00000
43.32300	2730.00000
43.34000	2747.00000
43.35700	2753.00000
43.37400	2670.00000
43.39100	2804.00000
43.40800	2709.00000
43.42500	2761.00000
43.44200	2647.00000
43.45900	2702.00000
43.47600	2709.00000
43.49300	2698.00000
43.51000	2661.00000
43.52700	2645.00000
43.54400	2725.00000
43.56100	2622.00000
43.57800	2650.00000
43.59500	2681.00000
43.61200	2644.00000
43.62900	2638.00000
43.64600	2679.00000
43.66300	2606.00000
43.68000	2639.00000
43.69700	2651.00000
43.71400	2722.00000
43.73100	2813.00000
43.74800	2767.00000
43.76500	2720.00000
43.78200	2654.00000
43.79900	2668.00000
43.81600	2703.00000
43.83300	2680.00000
43.85000	2681.00000
43.86700	2650.00000
43.88400	2666.00000
43.90100	2730.00000
43.91800	2663.00000
43.93500	2602.00000
43.95200	2685.00000
43.96900	2730.00000
43.98600	2694.00000
44.00300	2680.00000
44.02000	2686.00000
44.03700	2727.00000
44.05400	2740.00000
44.07100	2711.00000
44.08800	2769.00000
44.10500	2797.00000
44.12200	2637.00000
44.13900	2660.00000
44.15600	2709.00000
44.17300	2708.00000
44.19000	2698.00000
44.20700	2794.00000
44.22400	2680.00000
44.24100	2776.00000
44.25800	2686.00000
44.27500	2745.00000
44.29200	2865.00000
44.30900	2730.00000
44.32600	2787.00000
44.34300	2773.00000
44.36000	2812.00000
44.37700	2819.00000
44.39400	2864.00000
44.41100	2743.00000
44.42800	2793.00000
44.44500	2778.00000
44.46200	2818.00000
44.47900	2855.00000
44.49600	2867.00000
44.51300	2921.00000
44.53000	2986.00000
44.54700	2907.00000
44.56400	3004.00000
44.58100	2870.00000
44.59800	2891.00000
44.61500	3045.00000
44.63200	3055.00000
44.64900	3113.00000
44.66600	3148.00000
44.68300	3161.00000
44.70000	3111.00000
44.71700	3169.00000
44.73400	3219.00000
44.75100	3212.00000
44.76800	3211.00000
44.78500	3118.00000
44.80200	2970.00000
44.81900	3037.00000
44.83600	3028.00000
44.85300	2977.00000
44.87000	2999.00000
44.88700	2923.00000
44.90400	2874.00000
44.92100	2926.00000
44.93800	2975.00000
44.95500	2934.00000
44.97200	2826.00000
44.98900	2791.00000
45.00600	2792.00000
45.02300	2724.00000
45.04000	2692.00000
45.05700	2716.00000
45.07400	2654.00000
45.09100	2758.00000
45.10800	2710.00000
45.12500	2742.00000
45.14200	2851.00000
45.15900	2808.00000
45.17600	2769.00000
45.19300	2784.00000
45.21000	2741.00000
45.22700	2679.00000
45.24400	2717.00000
45.26100	2722.00000
45.27800	2718.00000
45.29500	2642.00000
45.31200	2681.00000
45.32900	2693.00000
45.34600	2748.00000
45.36300	2733.00000
45.38000	2724.00000
45.39700	2728.00000
45.41400	2741.00000
45.43100	2675.00000
45.44800	2735.00000
45.46500	2775.00000
45.48200	2724.00000
45.49900	2706.00000
45.51600	2736.00000
45.53300	2666.00000
45.55000	2811.00000
45.56700	2737.00000
45.58400	2646.00000
45.60100	2647.00000
45.61800	2738.00000
45.63500	2807.00000
45.65200	2657.00000
45.66900	2622.00000
45.68600	2586.00000
45.70300	2596.00000
45.72000	2647.00000
45.73700	2755.00000
45.75400	2705.00000
45.77100	2639.00000
45.78800	2641.00000
45.80500	2739.00000
45.82200	2731.00000
45.83900	2815.00000
45.85600	2806.00000
45.87300	2686.00000
45.89000	2747.00000
45.90700	2680.00000
45.92400	2658.00000
45.94100	2718.00000
45.95800	2669.00000
45.97500	2701.00000
45.99200	2726.00000
46.00900	2706.00000
46.02600	2750.00000
46.04300	2750.00000
46.06000	2723.00000
46.07700	2775.00000
46.09400	2774.00000
46.11100	2757.00000
46.12800	2820.00000
46.14500	2813.00000
46.16200	2778.00000
46.17900	2777.00000
46.19600	2724.00000
46.21300	2792.00000
46.23000	2774.00000
46.24700	2777.00000
46.26400	2690.00000
46.28100	2763.00000
46.29800	2896.00000
46.31500	2687.00000
46.33200	2852.00000
46.34900	2828.00000
46.36600	2825.00000
46.38300	2800.00000
46.40000	2834.00000
46.41700	2734.00000
46.43400	2808.00000
46.45100	2715.00000
46.46800	2862.00000
46.48500	2872.00000
46.50200	2877.00000
46.51900	2764.00000
46.53600	2873.00000
46.55300	3017.00000
46.57000	3047.00000
46.58700	3026.00000
46.60400	3157.00000
46.62100	3073.00000
46.63800	3112.00000
46.65500	3279.00000
46.67200	3383.00000
46.68900	3388.00000
46.70600	3404.00000
46.72300	3536.00000
46.74000	3682.00000
46.75700	3645.00000
46.77400	3581.00000
46.79100	3550.00000
46.80800	3500.00000
46.82500	3514.00000
46.84200	3526.00000
46.85900	3476.00000
46.87600	3341.00000
46.89300	3170.00000
46.91000	3228.00000
46.92700	3069.00000
46.94400	3035.00000
46.96100	2893.00000
46.97800	2970.00000
46.99500	2943.00000
47.01200	2870.00000
47.02900	2859.00000
47.04600	2894.00000
47.06300	2899.00000
47.08000	2807.00000
47.09700	2690.00000
47.11400	2758.00000
47.13100	2733.00000
47.14800	2770.00000
47.16500	2694.00000
47.18200	2765.00000
47.19900	2836.00000
47.21600	2668.00000
47.23300	2667.00000
47.25000	2604.00000
47.26700	2691.00000
47.28400	2757.00000
47.30100	2669.00000
47.31800	2662.00000
47.33500	2727.00000
47.35200	2690.00000
47.36900	2664.00000
47.38600	2656.00000
47.40300	2628.00000
47.42000	2731.00000
47.43700	2688.00000
47.45400	2567.00000
47.47100	2652.00000
47.48800	2821.00000
47.50500	2715.00000
47.52200	2655.00000
47.53900	2591.00000
47.55600	2585.00000
47.57300	2723.00000
47.59000	2645.00000
47.60700	2588.00000
47.62400	2673.00000
47.64100	2628.00000
47.65800	2556.00000
47.67500	2611.00000
47.69200	2542.00000
47.70900	2567.00000
47.72600	2644.00000
47.74300	2596.00000
47.76000	2565.00000
47.77700	2619.00000
47.79400	2581.00000
47.81100	2615.00000
47.82800	2702.00000
47.84500	2648.00000
47.86200	2635.00000
47.87900	2591.00000
47.89600	2551.00000
47.91300	2623.00000
47.93000	2579.00000
47.94700	2536.00000
47.96400	2658.00000
47.98100	2626.00000
47.99800	2627.00000
48.01500	2699.00000
48.03200	2721.00000
48.04900	2631.00000
48.06600	2495.00000
48.08300	2573.00000
48.10000	2648.00000
48.11700	2685.00000
48.13400	2679.00000
48.15100	2589.00000
48.16800	2571.00000
48.18500	2576.00000
48.20200	2614.00000
48.21900	2616.00000
48.23600	2574.00000
48.25300	2543.00000
48.27000	2581.00000
48.28700	2608.00000
48.30400	2636.00000
48.32100	2690.00000
48.33800	2600.00000
48.35500	2648.00000
48.37200	2551.00000
48.38900	2728.00000
48.40600	2681.00000
48.42300	2688.00000
48.44000	2678.00000
48.45700	2651.00000
48.47400	2657.00000
48.49100	2550.00000
48.50800	2524.00000
48.52500	2582.00000
48.54200	2625.00000
48.55900	2644.00000
48.57600	2754.00000
48.59300	2697.00000
48.61000	2595.00000
48.62700	2601.00000
48.64400	2603.00000
48.66100	2630.00000
48.67800	2585.00000
48.69500	2669.00000
48.71200	2720.00000
48.72900	2688.00000
48.74600	2659.00000
48.76300	2652.00000
48.78000	2670.00000
48.79700	2700.00000
48.81400	2697.00000
48.83100	2628.00000
48.84800	2633.00000
48.86500	2600.00000
48.88200	2684.00000
48.89900	2672.00000
48.91600	2641.00000
48.93300	2675.00000
48.95000	2587.00000
48.96700	2568.00000
48.98400	2621.00000
49.00100	2614.00000
49.01800	2591.00000
49.03500	2619.00000
49.05200	2606.00000
49.06900	2622.00000
49.08600	2521.00000
49.10300	2624.00000
49.12000	2626.00000
49.13700	2545.00000
49.15400	2718.00000
49.17100	2603.00000
49.18800	2713.00000
49.20500	2586.00000
49.22200	2633.00000
49.23900	2639.00000
49.25600	2601.00000
49.27300	2651.00000
49.29000	2663.00000
49.30700	2644.00000
49.32400	2626.00000
49.34100	2669.00000
49.35800	2572.00000
49.37500	2657.00000
49.39200	2646.00000
49.40900	2620.00000
49.42600	2674.00000
49.44300	2571.00000
49.46000	2668.00000
49.47700	2527.00000
49.49400	2536.00000
49.51100	2598.00000
49.52800	2610.00000
49.54500	2611.00000
49.56200	2665.00000
49.57900	2691.00000
49.59600	2595.00000
49.61300	2562.00000
49.63000	2553.00000
49.64700	2605.00000
49.66400	2615.00000
49.68100	2528.00000
49.69800	2570.00000
49.71500	2647.00000
49.73200	2605.00000
49.74900	2579.00000
49.76600	2555.00000
49.78300	2606.00000
49.80000	2636.00000
49.81700	2609.00000
49.83400	2657.00000
49.85100	2574.00000
49.86800	2611.00000
49.88500	2587.00000
49.90200	2590.00000
49.91900	2577.00000
49.93600	2675.00000
49.95300	2582.00000
49.97000	2590.00000
49.98700	2586.00000
50.00400	2705.00000
50.02100	2679.00000
50.03800	2719.00000
50.05500	2504.00000
50.07200	2485.00000
50.08900	2613.00000
50.10600	2541.00000
50.12300	2576.00000
50.14000	2658.00000
50.15700	2636.00000
50.17400	2604.00000
50.19100	2581.00000
50.20800	2601.00000
50.22500	2563.00000
50.24200	2554.00000
50.25900	2523.00000
50.27600	2600.00000
50.29300	2514.00000
50.31000	2588.00000
50.32700	2631.00000
50.34400	2683.00000
50.36100	2649.00000
50.37800	2649.00000
50.39500	2631.00000
50.41200	2620.00000
50.42900	2630.00000
50.44600	2671.00000
50.46300	2715.00000
50.48000	2672.00000
50.49700	2644.00000
50.51400	2727.00000
50.53100	2642.00000
50.54800	2655.00000
50.56500	2600.00000
50.58200	2680.00000
50.59900	2718.00000
50.61600	2712.00000
50.63300	2642.00000
50.65000	2659.00000
50.66700	2648.00000
50.68400	2674.00000
50.70100	2665.00000
50.71800	2637.00000
50.73500	2694.00000
50.75200	2794.00000
50.76900	2720.00000
50.78600	2691.00000
50.80300	2798.00000
50.82000	2679.00000
50.83700	2676.00000
50.85400	2774.00000
50.87100	2717.00000
50.88800	2621.00000
50.90500	2616.00000
50.92200	2726.00000
50.93900	2775.00000
50.95600	2739.00000
50.97300	2670.00000
50.99000	2688.00000
51.00700	2738.00000
51.02400	2664.00000
51.04100	2634.00000
51.05800	2675.00000
51.07500	2589.00000
51.09200	2594.00000
51.10900	2583.00000
51.12600	2570.00000
51.14300	2615.00000
51.16000	2620.00000
51.17700	2597.00000
51.19400	2669.00000
51.21100	2638.00000
51.22800	2604.00000
51.24500	2624.00000
51.26200	2497.00000
51.27900	2536.00000
51.29600	2482.00000
51.31300	2482.00000
51.33000	2543.00000
51.34700	2566.00000
51.36400	2535.00000
51.38100	2534.00000
51.39800	2452.00000
51.41500	2558.00000
51.43200	2571.00000
51.44900	2540.00000
51.46600	2525.00000
51.48300	2505.00000
51.50000	2412.00000
51.51700	2482.00000
51.53400	2555.00000
51.55100	2633.00000
51.56800	2614.00000
51.58500	2609.00000
51.60200	2553.00000
51.61900	2460.00000
51.63600	2507.00000
51.65300	2584.00000
51.67000	2544.00000
51.68700	2465.00000
51.70400	2494.00000
51.72100	2580.00000
51.73800	2447.00000
51.75500	2416.00000
51.77200	2500.00000
51.78900	2564.00000
51.80600	2560.00000
51.82300	2486.00000
51.84000	2470.00000
51.85700	2550.00000
51.87400	2559.00000
51.89100	2546.00000
51.90800	2612.00000
51.92500	2525.00000
51.94200	2463.00000
51.95900	2471.00000
51.97600	2455.00000
51.99300	2506.00000
52.01000	2499.00000
52.02700	2533.00000
52.04400	2456.00000
52.06100	2455.00000
52.07800	2589.00000
52.09500	2591.00000
52.11200	2466.00000
52.12900	2500.00000
52.14600	2525.00000
52.16300	2593.00000
52.18000	2516.00000
52.19700	2623.00000
52.21400	2567.00000
52.23100	2516.00000
52.24800	2584.00000
52.26500	2592.00000
52.28200	2544.00000
52.29900	2639.00000
52.31600	2539.00000
52.33300	2511.00000
52.35000	2591.00000
52.36700	2573.00000
52.38400	2629.00000
52.40100	2659.00000
52.41800	2569.00000
52.43500	2433.00000
52.45200	2535.00000
52.46900	2514.00000
52.48600	2523.00000
52.50300	2568.00000
52.52000	2530.00000
52.53700	2573.00000
52.55400	2597.00000
52.57100	2554.00000
52.58800	2554.00000
52.60500	2529.00000
52.62200	2518.00000
52.63900	2527.00000
52.65600	2518.00000
52.67300	2525.00000
52.69000	2521.00000
52.70700	2538.00000
52.72400	2493.00000
52.74100	2594.00000
52.75800	2621.00000
52.77500	2605.00000
52.79200	2547.00000
52.80900	2509.00000
52.82600	2506.00000
52.84300	2606.00000
52.86000	2681.00000
52.87700	2579.00000
52.89400	2452.00000
52.91100	2473.00000
52.92800	2557.00000
52.94500	2597.00000
52.96200	2571.00000
52.97900	2573.00000
52.99600	2632.00000
53.01300	2650.00000
53.03000	2670.00000
53.04700	2702.00000
53.06400	2666.00000
53.08100	2798.00000
53.09800	2566.00000
53.11500	2703.00000
53.13200	2594.00000
53.14900	2654.00000
53.16600	2543.00000
53.18300	2567.00000
53.20000	2659.00000
53.21700	2674.00000
53.23400	2586.00000
53.25100	2669.00000
53.26800	2670.00000
53.28500	2738.00000
53.30200	2613.00000
53.31900	2651.00000
53.33600	2664.00000
53.35300	2630.00000
53.37000	2637.00000
53.38700	2713.00000
53.40400	2713.00000
53.42100	2762.00000
53.43800	2745.00000
53.45500	2707.00000
53.47200	2657.00000
53.48900	2749.00000
53.50600	2641.00000
53.52300	2738.00000
53.54000	2846.00000
53.55700	2754.00000
53.57400	2752.00000
53.59100	2768.00000
53.60800	2738.00000
53.62500	2734.00000
53.64200	2676.00000
53.65900	2689.00000
53.67600	2746.00000
53.69300	2842.00000
53.71000	2762.00000
53.72700	2781.00000
53.74400	2840.00000
53.76100	2847.00000
53.77800	2799.00000
53.79500	2805.00000
53.81200	2854.00000
53.82900	2896.00000
53.84600	2881.00000
53.86300	2872.00000
53.88000	2920.00000
53.89700	2994.00000
53.91400	2943.00000
53.93100	2934.00000
53.94800	3003.00000
53.96500	3088.00000
53.98200	2998.00000
53.99900	3088.00000
54.01600	3067.00000
54.03300	3252.00000
54.05000	3298.00000
54.06700	3319.00000
54.08400	3554.00000
54.10100	3741.00000
54.11800	3698.00000
54.13500	3743.00000
54.15200	4003.00000
54.16900	4201.00000
54.18600	4329.00000
54.20300	4605.00000
54.22000	4699.00000
54.23700	5084.00000
54.25400	5441.00000
54.27100	5764.00000
54.28800	6101.00000
54.30500	6781.00000
54.32200	7076.00000
54.33900	7526.00000
54.35600	8090.00000
54.37300	8584.00000
54.39000	9111.00000
54.40700	9604.00000
54.42400	10219.00000
54.44100	10636.00000
54.45800	11061.00000
54.47500	11544.00000
54.49200	12142.00000
54.50900	12569.00000
54.52600	12808.00000
54.54300	13053.00000
54.56000	13326.00000
54.57700	13759.00000
54.59400	13874.00000
54.61100	13689.00000
54.62800	13705.00000
54.64500	13486.00000
54.66200	12894.00000
54.67900	12363.00000
54.69600	11668.00000
54.71300	11133.00000
54.73000	10314.00000
54.74700	9686.00000
54.76400	9166.00000
54.78100	8428.00000
54.79800	7751.00000
54.81500	7040.00000
54.83200	6462.00000
54.84900	5959.00000
54.86600	5396.00000
54.88300	5166.00000
54.90000	4809.00000
54.91700	4538.00000
54.93400	4342.00000
54.95100	4084.00000
54.96800	3904.00000
54.98500	3889.00000
55.00200	3722.00000
55.01900	3626.00000
55.03600	3417.00000
55.05300	3365.00000
55.07000	3254.00000
55.08700	3236.00000
55.10400	3256.00000
55.12100	3168.00000
55.13800	3108.00000
55.15500	3079.00000
55.17200	3141.00000
55.18900	3029.00000
55.20600	2993.00000
55.22300	2983.00000
55.24000	2949.00000
55.25700	2978.00000
55.27400	2954.00000
55.29100	2925.00000
55.30800	2888.00000
55.32500	2960.00000
55.34200	2776.00000
55.35900	2831.00000
55.37600	2838.00000
55.39300	2823.00000
55.41000	2930.00000
55.42700	2837.00000
55.44400	2828.00000
55.46100	2926.00000
55.47800	2853.00000
55.49500	2750.00000
55.51200	2782.00000
55.52900	2736.00000
55.54600	2707.00000
55.56300	2668.00000
55.58000	2656.00000
55.59700	2653.00000
55.61400	2633.00000
55.63100	2680.00000
55.64800	2703.00000
55.66500	2667.00000
55.68200	2615.00000
55.69900	2634.00000
55.71600	2540.00000
55.73300	2622.00000
55.75000	2693.00000
55.76700	2677.00000
55.78400	2687.00000
55.80100	2665.00000
55.81800	2656.00000
55.83500	2707.00000
55.85200	2649.00000
55.86900	2622.00000
55.88600	2623.00000
55.90300	2657.00000
55.92000	2606.00000
55.93700	2689.00000
55.95400	2530.00000
55.97100	2590.00000
55.98800	2628.00000
56.00500	2621.00000
56.02200	2660.00000
56.03900	2601.00000
56.05600	2550.00000
56.07300	2709.00000
56.09000	2687.00000
56.10700	2678.00000
56.12400	2562.00000
56.14100	2626.00000
56.15800	2685.00000
56.17500	2538.00000
56.19200	2577.00000
56.20900	2580.00000
56.22600	2466.00000
56.24300	2445.00000
56.26000	2581.00000
56.27700	2488.00000
56.29400	2572.00000
56.31100	2583.00000
56.32800	2515.00000
56.34500	2525.00000
56.36200	2554.00000
56.37900	2605.00000
56.39600	2581.00000
56.41300	2544.00000
56.43000	2548.00000
56.44700	2585.00000
56.46400	2520.00000
56.48100	2589.00000
56.49800	2643.00000
56.51500	2627.00000
56.53200	2563.00000
56.54900	2611.00000
56.56600	2612.00000
56.58300	2541.00000
56.60000	2548.00000
56.61700	2547.00000
56.63400	2477.00000
56.65100	2467.00000
56.66800	2516.00000
56.68500	2570.00000
56.70200	2688.00000
56.71900	2533.00000
56.73600	2570.00000
56.75300	2607.00000
56.77000	2684.00000
56.78700	2588.00000
56.80400	2591.00000
56.82100	2457.00000
56.83800	2615.00000
56.85500	2555.00000
56.87200	2568.00000
56.88900	2531.00000
56.90600	2529.00000
56.92300	2482.00000
56.94000	2619.00000
56.95700	2518.00000
56.97400	2593.00000
56.99100	2508.00000
57.00800	2516.00000
57.02500	2576.00000
57.04200	2501.00000
57.05900	2593.00000
57.07600	2610.00000
57.09300	2538.00000
57.11000	2605.00000
57.12700	2567.00000
57.14400	2450.00000
57.16100	2499.00000
57.17800	2554.00000
57.19500	2650.00000
57.21200	2511.00000
57.22900	2613.00000
57.24600	2493.00000
57.26300	2592.00000
57.28000	2506.00000
57.29700	2558.00000
57.31400	2543.00000
57.33100	2593.00000
57.34800	2587.00000
57.36500	2545.00000
57.38200	2591.00000
57.39900	2539.00000
57.41600	2589.00000
57.43300	2507.00000
57.45000	2419.00000
57.46700	2550.00000
57.48400	2489.00000
57.50100	2348.00000
57.51800	2461.00000
57.53500	2596.00000
57.55200	2498.00000
57.56900	2502.00000
57.58600	2521.00000
57.60300	2502.00000
57.62000	2604.00000
57.63700	2544.00000
57.65400	2506.00000
57.67100	2537.00000
57.68800	2509.00000
57.70500	2570.00000
57.72200	2502.00000
57.73900	2451.00000
57.75600	2557.00000
57.77300	2599.00000
57.79000	2427.00000
57.80700	2470.00000
57.82400	2525.00000
57.84100	2557.00000
57.85800	2615.00000
57.87500	2576.00000
57.89200	2470.00000
57.90900	2565.00000
57.92600	2493.00000
57.94300	2532.00000
57.96000	2573.00000
57.97700	2615.00000
57.99400	2635.00000
58.01100	2547.00000
58.02800	2633.00000
58.04500	2506.00000
58.06200	2625.00000
58.07900	2524.00000
58.09600	2690.00000
58.11300	2714.00000
58.13000	2624.00000
58.14700	2607.00000
58.16400	2562.00000
58.18100	2638.00000
58.19800	2546.00000
58.21500	2538.00000
58.23200	2467.00000
58.24900	2455.00000
58.26600	2437.00000
58.28300	2457.00000
58.30000	2548.00000
58.31700	2536.00000
58.33400	2596.00000
58.35100	2466.00000
58.36800	2479.00000
58.38500	2574.00000
58.40200	2660.00000
58.41900	2606.00000
58.43600	2514.00000
58.45300	2500.00000
58.47000	2561.00000
58.48700	2602.00000
58.50400	2531.00000
58.52100	2503.00000
58.53800	2487.00000
58.55500	2483.00000
58.57200	2602.00000
58.58900	2522.00000
58.60600	2425.00000
58.62300	2508.00000
58.64000	2530.00000
58.65700	2516.00000
58.67400	2527.00000
58.69100	2488.00000
58.70800	2542.00000
58.72500	2543.00000
58.74200	2516.00000
58.75900	2495.00000
58.77600	2480.00000
58.79300	2553.00000
58.81000	2667.00000
58.82700	2532.00000
58.84400	2568.00000
58.86100	2656.00000
58.87800	2674.00000
58.89500	2599.00000
58.91200	2515.00000
58.92900	2573.00000
58.94600	2532.00000
58.96300	2617.00000
58.98000	2545.00000
58.99700	2698.00000
59.01400	2556.00000
59.03100	2609.00000
59.04800	2636.00000
59.06500	2530.00000
59.08200	2567.00000
59.09900	2577.00000
59.11600	2533.00000
59.13300	2566.00000
59.15000	2562.00000
59.16700	2568.00000
59.18400	2447.00000
59.20100	2556.00000
59.21800	2594.00000
59.23500	2593.00000
59.25200	2593.00000
59.26900	2468.00000
59.28600	2508.00000
59.30300	2599.00000
59.32000	2553.00000
59.33700	2517.00000
59.35400	2638.00000
59.37100	2581.00000
59.38800	2578.00000
59.40500	2569.00000
59.42200	2591.00000
59.43900	2570.00000
59.45600	2665.00000
59.47300	2694.00000
59.49000	2609.00000
59.50700	2552.00000
59.52400	2555.00000
59.54100	2558.00000
59.55800	2532.00000
59.57500	2548.00000
59.59200	2561.00000
59.60900	2672.00000
59.62600	2676.00000
59.64300	2587.00000
59.66000	2612.00000
59.67700	2650.00000
59.69400	2643.00000
59.71100	2625.00000
59.72800	2577.00000
59.74500	2603.00000
59.76200	2625.00000
59.77900	2752.00000
59.79600	2625.00000
59.81300	2620.00000
59.83000	2680.00000
59.84700	2626.00000
59.86400	2645.00000
59.88100	2619.00000
59.89800	2619.00000
59.91500	2623.00000
59.93200	2660.00000
59.94900	2672.00000
59.96600	2626.00000
59.98300	2631.00000
60.00000	2741.00000
60.01700	2597.00000
60.03400	2682.00000
60.05100	2733.00000
60.06800	2621.00000
60.08500	2590.00000
60.10200	2695.00000
60.11900	2660.00000
60.13600	2654.00000
60.15300	2665.00000
60.17000	2673.00000
60.18700	2554.00000
60.20400	2735.00000
60.22100	2641.00000
60.23800	2646.00000
60.25500	2650.00000
60.27200	2707.00000
60.28900	2653.00000
60.30600	2733.00000
60.32300	2749.00000
60.34000	2727.00000
60.35700	2688.00000
60.37400	2682.00000
60.39100	2754.00000
60.40800	2678.00000
60.42500	2544.00000
60.44200	2657.00000
60.45900	2724.00000
60.47600	2711.00000
60.49300	2733.00000
60.51000	2665.00000
60.52700	2555.00000
60.54400	2644.00000
60.56100	2701.00000
60.57800	2656.00000
60.59500	2741.00000
60.61200	2801.00000
60.62900	2761.00000
60.64600	2766.00000
60.66300	2730.00000
60.68000	2783.00000
60.69700	2779.00000
60.71400	2813.00000
60.73100	2783.00000
60.74800	2751.00000
60.76500	2775.00000
60.78200	2821.00000
60.79900	2813.00000
60.81600	2921.00000
60.83300	2901.00000
60.85000	2947.00000
60.86700	2906.00000
60.88400	2914.00000
60.90100	2963.00000
60.91800	3059.00000
60.93500	3004.00000
60.95200	3077.00000
60.96900	3113.00000
60.98600	3042.00000
61.00300	3297.00000
61.02000	3089.00000
61.03700	3096.00000
61.05400	3261.00000
61.07100	3258.00000
61.08800	3299.00000
61.10500	3438.00000
61.12200	3424.00000
61.13900	3589.00000
61.15600	3577.00000
61.17300	3737.00000
61.19000	3613.00000
61.20700	3752.00000
61.22400	3915.00000
61.24100	4071.00000
61.25800	4117.00000
61.27500	4150.00000
61.29200	4315.00000
61.30900	4611.00000
61.32600	4571.00000
61.34300	4768.00000
61.36000	4985.00000
61.37700	5195.00000
61.39400	5434.00000
61.41100	5603.00000
61.42800	5926.00000
61.44500	6070.00000
61.46200	6363.00000
61.47900	6797.00000
61.49600	7321.00000
61.51300	7559.00000
61.53000	7960.00000
61.54700	8372.00000
61.56400	9023.00000
61.58100	9571.00000
61.59800	9842.00000
61.61500	10215.00000
61.63200	10656.00000
61.64900	11306.00000
61.66600	11563.00000
61.68300	11626.00000
61.70000	11548.00000
61.71700	11493.00000
61.73400	11109.00000
61.75100	10718.00000
61.76800	10137.00000
61.78500	9963.00000
61.80200	9198.00000
61.81900	8797.00000
61.83600	8282.00000
61.85300	7846.00000
61.87000	7310.00000
61.88700	6950.00000
61.90400	6335.00000
61.92100	5820.00000
61.93800	5408.00000
61.95500	4995.00000
61.97200	4571.00000
61.98900	4539.00000
62.00600	4231.00000
62.02300	4009.00000
62.04000	3972.00000
62.05700	3576.00000
62.07400	3574.00000
62.09100	3431.00000
62.10800	3326.00000
62.12500	3302.00000
62.14200	3225.00000
62.15900	3227.00000
62.17600	3021.00000
62.19300	3141.00000
62.21000	3088.00000
62.22700	2984.00000
62.24400	2871.00000
62.26100	2860.00000
62.27800	2990.00000
62.29500	2836.00000
62.31200	2733.00000
62.32900	2780.00000
62.34600	2816.00000
62.36300	2901.00000
62.38000	2846.00000
62.39700	2740.00000
62.41400	2680.00000
62.43100	2724.00000
62.44800	2656.00000
62.46500	2659.00000
62.48200	2763.00000
62.49900	2724.00000
62.51600	2677.00000
62.53300	2750.00000
62.55000	2724.00000
62.56700	2651.00000
62.58400	2603.00000
62.60100	2693.00000
62.61800	2581.00000
62.63500	2630.00000
62.65200	2675.00000
62.66900	2662.00000
62.68600	2608.00000
62.70300	2595.00000
62.72000	2613.00000
62.73700	2547.00000
62.75400	2653.00000
62.77100	2698.00000
62.78800	2573.00000
62.80500	2544.00000
62.82200	2653.00000
62.83900	2681.00000
62.85600	2530.00000
62.87300	2619.00000
62.89000	2588.00000
62.90700	2491.00000
62.92400	2507.00000
62.94100	2648.00000
62.95800	2598.00000
62.97500	2534.00000
62.99200	2632.00000
63.00900	2708.00000
63.02600	2633.00000
63.04300	2584.00000
63.06000	2553.00000
63.07700	2607.00000
63.09400	2720.00000
63.11100	2595.00000
63.12800	2473.00000
63.14500	2454.00000
63.16200	2480.00000
63.17900	2537.00000
63.19600	2488.00000
63.21300	2466.00000
63.23000	2524.00000
63.24700	2592.00000
63.26400	2514.00000
63.28100	2641.00000
63.29800	2654.00000
63.31500	2508.00000
63.33200	2472.00000
63.34900	2498.00000
63.36600	2572.00000
63.38300	2626.00000
63.40000	2531.00000
63.41700	2570.00000
63.43400	2584.00000
63.45100	2561.00000
63.46800	2562.00000
63.48500	2452.00000
63.50200	2485.00000
63.51900	2561.00000
63.53600	2512.00000
63.55300	2508.00000
63.57000	2533.00000
63.58700	2514.00000
63.60400	2415.00000
63.62100	2447.00000
63.63800	2489.00000
63.65500	2507.00000
63.67200	2565.00000
63.68900	2467.00000
63.70600	2512.00000
63.72300	2532.00000
63.74000	2446.00000
63.75700	2538.00000
63.77400	2575.00000
63.79100	2496.00000
63.80800	2381.00000
63.82500	2454.00000
63.84200	2467.00000
63.85900	2510.00000
63.87600	2509.00000
63.89300	2385.00000
63.91000	2515.00000
63.92700	2496.00000
63.94400	2471.00000
63.96100	2516.00000
63.97800	2542.00000
63.99500	2499.00000
64.01200	2570.00000
64.02900	2634.00000
64.04600	2491.00000
64.06300	2502.00000
64.08000	2516.00000
64.09700	2503.00000
64.11400	2497.00000
64.13100	2502.00000
64.14800	2468.00000
64.16500	2501.00000
64.18200	2537.00000
64.19900	2397.00000
64.21600	2567.00000
64.23300	2453.00000
64.25000	2462.00000
64.26700	2526.00000
64.28400	2489.00000
64.30100	2474.00000
64.31800	2488.00000
64.33500	2529.00000
64.35200	2508.00000
64.36900	2522.00000
64.38600	2500.00000
64.40300	2572.00000
64.42000	2564.00000
64.43700	2483.00000
64.45400	2449.00000
64.47100	2480.00000
64.48800	2464.00000
64.50500	2477.00000
64.52200	2512.00000
64.53900	2460.00000
64.55600	2426.00000
64.57300	2551.00000
64.59000	2540.00000
64.60700	2522.00000
64.62400	2593.00000
64.64100	2515.00000
64.65800	2439.00000
64.67500	2537.00000
64.69200	2473.00000
64.70900	2421.00000
64.72600	2557.00000
64.74300	2453.00000
64.76000	2549.00000
64.77700	2518.00000
64.79400	2560.00000
64.81100	2534.00000
64.82800	2505.00000
64.84500	2484.00000
64.86200	2553.00000
64.87900	2542.00000
64.89600	2590.00000
64.91300	2554.00000
64.93000	2602.00000
64.94700	2656.00000
64.96400	2513.00000
64.98100	2387.00000
64.99800	2508.00000
65.01500	2501.00000
65.03200	2520.00000
65.04900	2501.00000
65.06600	2541.00000
65.08300	2586.00000
65.10000	2536.00000
65.11700	2558.00000
65.13400	2675.00000
65.15100	2703.00000
65.16800	2629.00000
65.18500	2578.00000
65.20200	2560.00000
65.21900	2482.00000
65.23600	2446.00000
65.25300	2489.00000
65.27000	2499.00000
65.28700	2489.00000
65.30400	2472.00000
65.32100	2467.00000
65.33800	2526.00000
65.35500	2529.00000
65.37200	2523.00000
65.38900	2570.00000
65.40600	2571.00000
65.42300	2530.00000
65.44000	2497.00000
65.45700	2439.00000
65.47400	2537.00000
65.49100	2572.00000
65.50800	2479.00000
65.52500	2500.00000
65.54200	2478.00000
65.55900	2536.00000
65.57600	2545.00000
65.59300	2633.00000
65.61000	2555.00000
65.62700	2469.00000
65.64400	2570.00000
65.66100	2524.00000
65.67800	2431.00000
65.69500	2500.00000
65.71200	2500.00000
65.72900	2540.00000
65.74600	2572.00000
65.76300	2527.00000
65.78000	2576.00000
65.79700	2528.00000
65.81400	2512.00000
65.83100	2543.00000
65.84800	2512.00000
65.86500	2465.00000
65.88200	2517.00000
65.89900	2505.00000
65.91600	2436.00000
65.93300	2423.00000
65.95000	2426.00000
65.96700	2477.00000
65.98400	2560.00000
66.00100	2465.00000
66.01800	2453.00000
66.03500	2527.00000
66.05200	2412.00000
66.06900	2451.00000
66.08600	2546.00000
66.10300	2546.00000
66.12000	2539.00000
66.13700	2468.00000
66.15400	2495.00000
66.17100	2567.00000
66.18800	2485.00000
66.20500	2392.00000
66.22200	2439.00000
66.23900	2575.00000
66.25600	2508.00000
66.27300	2376.00000
66.29000	2457.00000
66.30700	2556.00000
66.32400	2553.00000
66.34100	2524.00000
66.35800	2426.00000
66.37500	2504.00000
66.39200	2480.00000
66.40900	2482.00000
66.42600	2556.00000
66.44300	2583.00000
66.46000	2538.00000
66.47700	2475.00000
66.49400	2591.00000
66.51100	2554.00000
66.52800	2480.00000
66.54500	2635.00000
66.56200	2613.00000
66.57900	2607.00000
66.59600	2573.00000
66.61300	2561.00000
66.63000	2503.00000
66.64700	2509.00000
66.66400	2581.00000
66.68100	2607.00000
66.69800	2519.00000
66.71500	2564.00000
66.73200	2515.00000
66.74900	2486.00000
66.76600	2587.00000
66.78300	2633.00000
66.80000	2598.00000
66.81700	2531.00000
66.83400	2662.00000
66.85100	2472.00000
66.86800	2606.00000
66.88500	2638.00000
66.90200	2550.00000
66.91900	2612.00000
66.93600	2545.00000
66.95300	2633.00000
66.97000	2555.00000
66.98700	2531.00000
67.00400	2646.00000
67.02100	2561.00000
67.03800	2628.00000
67.05500	2619.00000
67.07200	2594.00000
67.08900	2619.00000
67.10600	2602.00000
67.12300	2600.00000
67.14000	2622.00000
67.15700	2732.00000
67.17400	2592.00000
67.19100	2595.00000
67.20800	2780.00000
67.22500	2735.00000
67.24200	2633.00000
67.25900	2652.00000
67.27600	2759.00000
67.29300	2727.00000
67.31000	2742.00000
67.32700	2758.00000
67.34400	2701.00000
67.36100	2732.00000
67.37800	2684.00000
67.39500	2666.00000
67.41200	2696.00000
67.42900	2779.00000
67.44600	2781.00000
67.46300	2817.00000
67.48000	2920.00000
67.49700	2879.00000
67.51400	2807.00000
67.53100	2815.00000
67.54800	2844.00000
67.56500	2866.00000
67.58200	2964.00000
67.59900	3004.00000
67.61600	3025.00000
67.63300	3124.00000
67.65000	3149.00000
67.66700	3171.00000
67.68400	3182.00000
67.70100	3181.00000
67.71800	3331.00000
67.73500	3384.00000
67.75200	3549.00000
67.76900	3514.00000
67.78600	3693.00000
67.80300	3762.00000
67.82000	3899.00000
67.83700	3864.00000
67.85400	4000.00000
67.87100	4220.00000
67.88800	4292.00000
67.90500	4403.00000
67.92200	4542.00000
67.93900	4575.00000
67.95600	4907.00000
67.97300	5158.00000
67.99000	5190.00000
68.00700	5383.00000
68.02400	5655.00000
68.04100	5842.00000
68.05800	6113.00000
68.07500	6316.00000
68.09200	6684.00000
68.10900	7069.00000
68.12600	7516.00000
68.14300	7685.00000
68.16000	8158.00000
68.17700	8820.00000
68.19400	9287.00000
68.21100	10055.00000
68.22800	10486.00000
68.24500	10912.00000
68.26200	11761.00000
68.27900	12185.00000
68.29600	12595.00000
68.31300	13064.00000
68.33000	13001.00000
68.34700	12953.00000
68.36400	12624.00000
68.38100	12580.00000
68.39800	12286.00000
68.41500	11825.00000
68.43200	11279.00000
68.44900	10794.00000
68.46600	10598.00000
68.48300	10040.00000
68.50000	9654.00000
68.51700	9112.00000
68.53400	8391.00000
68.55100	8094.00000
68.56800	7261.00000
68.58500	6768.00000
68.60200	6426.00000
68.61900	5912.00000
68.63600	5448.00000
68.65300	5206.00000
68.67000	4925.00000
68.68700	4651.00000
68.70400	4320.00000
68.72100	4179.00000
68.73800	3872.00000
68.75500	3893.00000
68.77200	3726.00000
68.78900	3494.00000
68.80600	3449.00000
68.82300	3360.00000
68.84000	3350.00000
68.85700	3285.00000
68.87400	3210.00000
68.89100	3167.00000
68.90800	3057.00000
68.92500	3071.00000
68.94200	2989.00000
68.95900	3055.00000
68.97600	2973.00000
68.99300	2903.00000
69.01000	2955.00000
69.02700	2892.00000
69.04400	2851.00000
69.06100	2819.00000
69.07800	2770.00000
69.09500	2761.00000
69.11200	2810.00000
69.12900	2764.00000
69.14600	2631.00000
69.16300	2662.00000
69.18000	2731.00000
69.19700	2688.00000
69.21400	2697.00000
69.23100	2729.00000
69.24800	2701.00000
69.26500	2638.00000
69.28200	2621.00000
69.29900	2597.00000
69.31600	2595.00000
69.33300	2651.00000
69.35000	2673.00000
69.36700	2671.00000
69.38400	2674.00000
69.40100	2667.00000
69.41800	2594.00000
69.43500	2660.00000
69.45200	2687.00000
69.46900	2749.00000
69.48600	2674.00000
69.50300	2566.00000
69.52000	2552.00000
69.53700	2539.00000
69.55400	2526.00000
69.57100	2490.00000
69.58800	2514.00000
69.60500	2508.00000
69.62200	2583.00000
69.63900	2594.00000
69.65600	2577.00000
69.67300	2602.00000
69.69000	2553.00000
69.70700	2516.00000
69.72400	2613.00000
69.74100	2503.00000
69.75800	2447.00000
69.77500	2531.00000
69.79200	2397.00000
69.80900	2507.00000
69.82600	2414.00000
69.84300	2460.00000
69.86000	2454.00000
69.87700	2474.00000
69.89400	2527.00000
69.91100	2412.00000
69.92800	2425.00000
69.94500	2375.00000
69.96200	2512.00000
69.97900	2489.00000
69.99600	2503.00000
70.01300	2454.00000
70.03000	2476.00000
70.04700	2461.00000
70.06400	2466.00000
70.08100	2411.00000
70.09800	2533.00000
70.11500	2488.00000
70.13200	2417.00000
70.14900	2552.00000
70.16600	2533.00000
70.18300	2532.00000
70.20000	2559.00000
70.21700	2395.00000
70.23400	2325.00000
70.25100	2411.00000
70.26800	2513.00000
70.28500	2519.00000
70.30200	2575.00000
70.31900	2498.00000
70.33600	2454.00000
70.35300	2526.00000
70.37000	2453.00000
70.38700	2396.00000
70.40400	2474.00000
70.42100	2462.00000
70.43800	2464.00000
70.45500	2492.00000
70.47200	2521.00000
70.48900	2540.00000
70.50600	2500.00000
70.52300	2425.00000
70.54000	2451.00000
70.55700	2439.00000
70.57400	2394.00000
70.59100	2448.00000
70.60800	2542.00000
70.62500	2590.00000
70.64200	2490.00000
70.65900	2446.00000
70.67600	2523.00000
70.69300	2489.00000
70.71000	2434.00000
70.72700	2494.00000
70.74400	2497.00000
70.76100	2369.00000
70.77800	2442.00000
70.79500	2381.00000
70.81200	2528.00000
70.82900	2449.00000
70.84600	2435.00000
70.86300	2381.00000
70.88000	2389.00000
70.89700	2431.00000
70.91400	2366.00000
70.93100	2527.00000
70.94800	2487.00000
70.96500	2553.00000
70.98200	2507.00000
70.99900	2536.00000
71.01600	2491.00000
71.03300	2516.00000
71.05000	2593.00000
71.06700	2518.00000
71.08400	2417.00000
71.10100	2382.00000
71.11800	2451.00000
71.13500	2446.00000
71.15200	2454.00000
71.16900	2457.00000
71.18600	2523.00000
71.20300	2529.00000
71.22000	2492.00000
71.23700	2344.00000
71.25400	2398.00000
71.27100	2487.00000
71.28800	2463.00000
71.30500	2541.00000
71.32200	2553.00000
71.33900	2478.00000
71.35600	2544.00000
71.37300	2533.00000
71.39000	2543.00000
71.40700	2482.00000
71.42400	2439.00000
71.44100	2491.00000
71.45800	2507.00000
71.47500	2510.00000
71.49200	2502.00000
71.50900	2566.00000
71.52600	2545.00000
71.54300	2515.00000
71.56000	2474.00000
71.57700	2479.00000
71.59400	2455.00000
71.61100	2390.00000
71.62800	2429.00000
71.64500	2407.00000
71.66200	2442.00000
71.67900	2467.00000
71.69600	2522.00000
71.71300	2515.00000
71.73000	2516.00000
71.74700	2552.00000
71.76400	2490.00000
71.78100	2449.00000
71.79800	2527.00000
71.81500	2549.00000
71.83200	2465.00000
71.84900	2543.00000
71.86600	2383.00000
71.88300	2441.00000
71.90000	2391.00000
71.91700	2515.00000
71.93400	2429.00000
71.95100	2517.00000
71.96800	2539.00000
71.98500	2452.00000
72.00200	2490.00000
72.01900	2521.00000
72.03600	2495.00000
72.05300	2505.00000
72.07000	2504.00000
72.08700	2460.00000
72.10400	2357.00000
72.12100	2388.00000
72.13800	2358.00000
72.15500	2486.00000
72.17200	2518.00000
72.18900	2439.00000
72.20600	2406.00000
72.22300	2487.00000
72.24000	2418.00000
72.25700	2437.00000
72.27400	2513.00000
72.29100	2462.00000
72.30800	2409.00000
72.32500	2489.00000
72.34200	2424.00000
72.35900	2354.00000
72.37600	2408.00000
72.39300	2447.00000
72.41000	2364.00000
72.42700	2420.00000
72.44400	2417.00000
72.46100	2376.00000
72.47800	2423.00000
72.49500	2418.00000
72.51200	2399.00000
72.52900	2427.00000
72.54600	2436.00000
72.56300	2494.00000
72.58000	2379.00000
72.59700	2381.00000
72.61400	2367.00000
72.63100	2395.00000
72.64800	2485.00000
72.66500	2472.00000
72.68200	2463.00000
72.69900	2404.00000
72.71600	2404.00000
72.73300	2406.00000
72.75000	2478.00000
72.76700	2468.00000
72.78400	2420.00000
72.80100	2377.00000
72.81800	2389.00000
72.83500	2371.00000
72.85200	2441.00000
72.86900	2551.00000
72.88600	2395.00000
72.90300	2401.00000
72.92000	2353.00000
72.93700	2495.00000
72.95400	2440.00000
72.97100	2432.00000
72.98800	2382.00000
73.00500	2447.00000
73.02200	2450.00000
73.03900	2404.00000
73.05600	2441.00000
73.07300	2437.00000
73.09000	2350.00000
73.10700	2368.00000
73.12400	2415.00000
73.14100	2366.00000
73.15800	2324.00000
73.17500	2354.00000
73.19200	2395.00000
73.20900	2363.00000
73.22600	2379.00000
73.24300	2396.00000
73.26000	2384.00000
73.27700	2386.00000
73.29400	2382.00000
73.31100	2401.00000
73.32800	2318.00000
73.34500	2346.00000
73.36200	2401.00000
73.37900	2367.00000
73.39600	2402.00000
73.41300	2438.00000
73.43000	2412.00000
73.44700	2433.00000
73.46400	2407.00000
73.48100	2386.00000
73.49800	2415.00000
73.51500	2344.00000
73.53200	2412.00000
73.54900	2334.00000
73.56600	2416.00000
73.58300	2370.00000
73.60000	2328.00000
73.61700	2416.00000
73.63400	2377.00000
73.65100	2438.00000
73.66800	2456.00000
73.68500	2428.00000
73.70200	2337.00000
73.71900	2429.00000
73.73600	2298.00000
73.75300	2496.00000
73.77000	2361.00000
73.78700	2288.00000
73.80400	2312.00000
73.82100	2395.00000
73.83800	2328.00000
73.85500	2324.00000
73.87200	2365.00000
73.88900	2372.00000
73.90600	2395.00000
73.92300	2375.00000
73.94000	2470.00000
73.95700	2377.00000
73.97400	2343.00000
73.99100	2398.00000
74.00800	2370.00000
74.02500	2446.00000
74.04200	2346.00000
74.05900	2374.00000
74.07600	2433.00000
74.09300	2405.00000
74.11000	2301.00000
74.12700	2300.00000
74.14400	2321.00000
74.16100	2385.00000
74.17800	2436.00000
74.19500	2406.00000
74.21200	2393.00000
74.22900	2387.00000
74.24600	2377.00000
74.26300	2450.00000
74.28000	2390.00000
74.29700	2403.00000
74.31400	2420.00000
74.33100	2395.00000
74.34800	2387.00000
74.36500	2409.00000
74.38200	2373.00000
74.39900	2333.00000
74.41600	2370.00000
74.43300	2352.00000
74.45000	2338.00000
74.46700	2430.00000
74.48400	2370.00000
74.50100	2289.00000
74.51800	2311.00000
74.53500	2435.00000
74.55200	2379.00000
74.56900	2374.00000
74.58600	2412.00000
74.60300	2391.00000
74.62000	2480.00000
74.63700	2322.00000
74.65400	2360.00000
74.67100	2408.00000
74.68800	2382.00000
74.70500	2387.00000
74.72200	2371.00000
74.73900	2383.00000
74.75600	2454.00000
74.77300	2356.00000
74.79000	2392.00000
74.80700	2422.00000
74.82400	2422.00000
74.84100	2427.00000
74.85800	2387.00000
74.87500	2411.00000
74.89200	2374.00000
74.90900	2369.00000
74.92600	2408.00000
74.94300	2404.00000
74.96000	2427.00000
74.97700	2305.00000
74.99400	2362.00000
