8.00000	1612.00000
8.02200	1498.00000
8.04400	1583.00000
8.06600	1523.00000
8.08800	1589.00000
8.11000	1406.00000
8.13200	1512.00000
8.15400	1472.00000
8.17600	1447.00000
8.19800	1446.00000
8.22000	1417.00000
8.24200	1394.00000
8.26400	1397.00000
8.28600	1412.00000
8.30800	1420.00000
8.33000	1287.00000
8.35200	1291.00000
8.37400	1254.00000
8.39600	1365.00000
8.41800	1246.00000
8.44000	1287.00000
8.46200	1327.00000
8.48400	1312.00000
8.50600	1255.00000
8.52800	1262.00000
8.55000	1215.00000
8.57200	1317.00000
8.59400	1227.00000
8.61600	1284.00000
8.63800	1309.00000
8.66000	1234.00000
8.68200	1237.00000
8.70400	1242.00000
8.72600	1237.00000
8.74800	1215.00000
8.77000	1278.00000
8.79200	1248.00000
8.81400	1228.00000
8.83600	1235.00000
8.85800	1205.00000
8.88000	1197.00000
8.90200	1222.00000
8.92400	1189.00000
8.94600	1171.00000
8.96800	1167.00000
8.99000	1176.00000
9.01200	1156.00000
9.03400	1157.00000
9.05600	1168.00000
9.07800	1160.00000
9.10000	1188.00000
9.12200	1109.00000
9.14400	1105.00000
9.16600	1151.00000
9.18800	1092.00000
9.21000	1144.00000
9.23200	1127.00000
9.25400	1164.00000
9.27600	1119.00000
9.29800	1065.00000
9.32000	1115.00000
9.34200	1088.00000
9.36400	1086.00000
9.38600	1085.00000
9.40800	1100.00000
9.43000	1082.00000
9.45200	1078.00000
9.47400	1075.00000
9.49600	1106.00000
9.51800	1096.00000
9.54000	1084.00000
9.56200	1079.00000
9.58400	1033.00000
9.60600	1103.00000
9.62800	1099.00000
9.65000	1112.00000
9.67200	1143.00000
9.69400	1108.00000
9.71600	1080.00000
9.73800	1084.00000
9.76000	1102.00000
9.78200	1077.00000
9.80400	1115.00000
9.82600	1141.00000
9.84800	1103.00000
9.87000	1091.00000
9.89200	1089.00000
9.91400	1077.00000
9.93600	1081.00000
9.95800	1052.00000
9.98000	1086.00000
10.00200	1057.00000
10.02400	1055.00000
10.04600	1096.00000
10.06800	1006.00000
10.09000	1015.00000
10.11200	1123.00000
10.13400	1059.00000
10.15600	1016.00000
10.17800	1103.00000
10.20000	1081.00000
10.22200	1087.00000
10.24400	1087.00000
10.26600	1053.00000
10.28800	1072.00000
10.31000	1131.00000
10.33200	1111.00000
10.35400	1149.00000
10.37600	1133.00000
10.39800	1178.00000
10.42000	1142.00000
10.44200	1193.00000
10.46400	1214.00000
10.48600	1216.00000
10.50800	1270.00000
10.53000	1248.00000
10.55200	1426.00000
10.57400	1607.00000
10.59600	1869.00000
10.61800	2264.00000
10.64000	2854.00000
10.66200	3584.00000
10.68400	4562.00000
10.70600	5323.00000
10.72800	6187.00000
10.75000	6955.00000
10.77200	6595.00000
10.79400	4926.00000
10.81600	2833.00000
10.83800	1705.00000
10.86000	1193.00000
10.88200	1069.00000
10.90400	995.00000
10.92600	973.00000
10.94800	936.00000
10.97000	979.00000
10.99200	992.00000
11.01400	940.00000
11.03600	929.00000
11.05800	921.00000
11.08000	883.00000
11.10200	918.00000
11.12400	887.00000
11.14600	895.00000
11.16800	901.00000
11.19000	949.00000
11.21200	922.00000
11.23400	924.00000
11.25600	932.00000
11.27800	892.00000
11.30000	895.00000
11.32200	911.00000
11.34400	917.00000
11.36600	874.00000
11.38800	851.00000
11.41000	867.00000
11.43200	912.00000
11.45400	917.00000
11.47600	889.00000
11.49800	835.00000
11.52000	892.00000
11.54200	886.00000
11.56400	878.00000
11.58600	851.00000
11.60800	863.00000
11.63000	858.00000
11.65200	816.00000
11.67400	891.00000
11.69600	846.00000
11.71800	771.00000
11.74000	850.00000
11.76200	863.00000
11.78400	864.00000
11.80600	827.00000
11.82800	824.00000
11.85000	806.00000
11.87200	856.00000
11.89400	808.00000
11.91600	812.00000
11.93800	827.00000
11.96000	841.00000
11.98200	819.00000
12.00400	820.00000
12.02600	812.00000
12.04800	816.00000
12.07000	835.00000
12.09200	817.00000
12.11400	834.00000
12.13600	814.00000
12.15800	820.00000
12.18000	833.00000
12.20200	758.00000
12.22400	763.00000
12.24600	812.00000
12.26800	736.00000
12.29000	867.00000
12.31200	742.00000
12.33400	738.00000
12.35600	791.00000
12.37800	788.00000
12.40000	806.00000
12.42200	729.00000
12.44400	797.00000
12.46600	832.00000
12.48800	788.00000
12.51000	702.00000
12.53200	774.00000
12.55400	767.00000
12.57600	783.00000
12.59800	769.00000
12.62000	755.00000
12.64200	806.00000
12.66400	738.00000
12.68600	783.00000
12.70800	745.00000
12.73000	769.00000
12.75200	736.00000
12.77400	737.00000
12.79600	713.00000
12.81800	741.00000
12.84000	777.00000
12.86200	742.00000
12.88400	789.00000
12.90600	733.00000
12.92800	785.00000
12.95000	754.00000
12.97200	714.00000
12.99400	760.00000
13.01600	754.00000
13.03800	720.00000
13.06000	772.00000
13.08200	736.00000
13.10400	764.00000
13.12600	793.00000
13.14800	743.00000
13.17000	711.00000
13.19200	744.00000
13.21400	712.00000
13.23600	715.00000
13.25800	695.00000
13.28000	752.00000
13.30200	706.00000
13.32400	729.00000
13.34600	666.00000
13.36800	721.00000
13.39000	737.00000
13.41200	678.00000
13.43400	773.00000
13.45600	753.00000
13.47800	694.00000
13.50000	730.00000
13.52200	730.00000
13.54400	730.00000
13.56600	705.00000
13.58800	703.00000
13.61000	709.00000
13.63200	759.00000
13.65400	701.00000
13.67600	720.00000
13.69800	690.00000
13.72000	744.00000
13.74200	666.00000
13.76400	658.00000
13.78600	682.00000
13.80800	692.00000
13.83000	696.00000
13.85200	693.00000
13.87400	686.00000
13.89600	717.00000
13.91800	720.00000
13.94000	704.00000
13.96200	671.00000
13.98400	677.00000
14.00600	657.00000
14.02800	658.00000
14.05000	698.00000
14.07200	692.00000
14.09400	651.00000
14.11600	636.00000
14.13800	674.00000
14.16000	707.00000
14.18200	671.00000
14.20400	652.00000
14.22600	697.00000
14.24800	696.00000
14.27000	678.00000
14.29200	709.00000
14.31400	690.00000
14.33600	676.00000
14.35800	663.00000
14.38000	643.00000
14.40200	693.00000
14.42400	709.00000
14.44600	676.00000
14.46800	694.00000
14.49000	642.00000
14.51200	648.00000
14.53400	668.00000
14.55600	683.00000
14.57800	612.00000
14.60000	686.00000
14.62200	697.00000
14.64400	666.00000
14.66600	646.00000
14.68800	678.00000
14.71000	696.00000
14.73200	675.00000
14.75400	651.00000
14.77600	653.00000
14.79800	644.00000
14.82000	645.00000
14.84200	640.00000
14.86400	658.00000
14.88600	685.00000
14.90800	651.00000
14.93000	661.00000
14.95200	651.00000
14.97400	686.00000
14.99600	664.00000
15.01800	668.00000
15.04000	644.00000
15.06200	635.00000
15.08400	655.00000
15.10600	617.00000
15.12800	671.00000
15.15000	650.00000
15.17200	630.00000
15.19400	681.00000
15.21600	641.00000
15.23800	624.00000
15.26000	623.00000
15.28200	653.00000
15.30400	691.00000
15.32600	649.00000
15.34800	617.00000
15.37000	643.00000
15.39200	641.00000
15.41400	684.00000
15.43600	640.00000
15.45800	608.00000
15.48000	619.00000
15.50200	602.00000
15.52400	640.00000
15.54600	627.00000
15.56800	600.00000
15.59000	626.00000
15.61200	621.00000
15.63400	650.00000
15.65600	624.00000
15.67800	605.00000
15.70000	624.00000
15.72200	602.00000
15.74400	631.00000
15.76600	597.00000
15.78800	606.00000
15.81000	625.00000
15.83200	657.00000
15.85400	603.00000
15.87600	624.00000
15.89800	621.00000
15.92000	649.00000
15.94200	638.00000
15.96400	593.00000
15.98600	611.00000
16.00800	605.00000
16.03000	647.00000
16.05200	602.00000
16.07400	628.00000
16.09600	622.00000
16.11800	665.00000
16.14000	626.00000
16.16200	608.00000
16.18400	617.00000
16.20600	594.00000
16.22800	605.00000
16.25000	657.00000
16.27200	603.00000
16.29400	647.00000
16.31600	588.00000
16.33800	631.00000
16.36000	571.00000
16.38200	634.00000
16.40400	561.00000
16.42600	601.00000
16.44800	606.00000
16.47000	610.00000
16.49200	609.00000
16.51400	587.00000
16.53600	616.00000
16.55800	591.00000
16.58000	615.00000
16.60200	583.00000
16.62400	640.00000
16.64600	622.00000
16.66800	615.00000
16.69000	544.00000
16.71200	585.00000
16.73400	638.00000
16.75600	584.00000
16.77800	627.00000
16.80000	604.00000
16.82200	583.00000
16.84400	637.00000
16.86600	585.00000
16.88800	607.00000
16.91000	636.00000
16.93200	603.00000
16.95400	584.00000
16.97600	583.00000
16.99800	581.00000
17.02000	625.00000
17.04200	586.00000
17.06400	608.00000
17.08600	576.00000
17.10800	616.00000
17.13000	629.00000
17.15200	639.00000
17.17400	639.00000
17.19600	594.00000
17.21800	595.00000
17.24000	588.00000
17.26200	579.00000
17.28400	591.00000
17.30600	583.00000
17.32800	547.00000
17.35000	572.00000
17.37200	651.00000
17.39400	608.00000
17.41600	615.00000
17.43800	636.00000
17.46000	606.00000
17.48200	584.00000
17.50400	607.00000
17.52600	550.00000
17.54800	621.00000
17.57000	582.00000
17.59200	623.00000
17.61400	600.00000
17.63600	582.00000
17.65800	576.00000
17.68000	610.00000
17.70200	586.00000
17.72400	599.00000
17.74600	592.00000
17.76800	600.00000
17.79000	581.00000
17.81200	581.00000
17.83400	580.00000
17.85600	636.00000
17.87800	597.00000
17.90000	602.00000
17.92200	625.00000
17.94400	581.00000
17.96600	599.00000
17.98800	569.00000
18.01000	613.00000
18.03200	598.00000
18.05400	646.00000
18.07600	578.00000
18.09800	571.00000
18.12000	561.00000
18.14200	621.00000
18.16400	597.00000
18.18600	591.00000
18.20800	623.00000
18.23000	643.00000
18.25200	642.00000
18.27400	698.00000
18.29600	706.00000
18.31800	722.00000
18.34000	654.00000
18.36200	639.00000
18.38400	638.00000
18.40600	569.00000
18.42800	647.00000
18.45000	583.00000
18.47200	603.00000
18.49400	584.00000
18.51600	571.00000
18.53800	589.00000
18.56000	549.00000
18.58200	604.00000
18.60400	573.00000
18.62600	623.00000
18.64800	580.00000
18.67000	552.00000
18.69200	634.00000
18.71400	591.00000
18.73600	562.00000
18.75800	562.00000
18.78000	635.00000
18.80200	532.00000
18.82400	573.00000
18.84600	586.00000
18.86800	568.00000
18.89000	580.00000
18.91200	597.00000
18.93400	653.00000
18.95600	630.00000
18.97800	596.00000
19.00000	580.00000
19.02200	575.00000
19.04400	617.00000
19.06600	586.00000
19.08800	562.00000
19.11000	579.00000
19.13200	583.00000
19.15400	592.00000
19.17600	545.00000
19.19800	575.00000
19.22000	536.00000
19.24200	574.00000
19.26400	592.00000
19.28600	623.00000
19.30800	567.00000
19.33000	574.00000
19.35200	566.00000
19.37400	603.00000
19.39600	617.00000
19.41800	592.00000
19.44000	644.00000
19.46200	643.00000
19.48400	692.00000
19.50600	649.00000
19.52800	640.00000
19.55000	659.00000
19.57200	575.00000
19.59400	607.00000
19.61600	611.00000
19.63800	621.00000
19.66000	624.00000
19.68200	606.00000
19.70400	591.00000
19.72600	588.00000
19.74800	621.00000
19.77000	598.00000
19.79200	611.00000
19.81400	576.00000
19.83600	619.00000
19.85800	594.00000
19.88000	615.00000
19.90200	610.00000
19.92400	592.00000
19.94600	599.00000
19.96800	590.00000
19.99000	612.00000
20.01200	583.00000
20.03400	548.00000
20.05600	559.00000
20.07800	620.00000
20.10000	600.00000
20.12200	575.00000
20.14400	593.00000
20.16600	603.00000
20.18800	603.00000
20.21000	625.00000
20.23200	543.00000
20.25400	582.00000
20.27600	663.00000
20.29800	563.00000
20.32000	601.00000
20.34200	606.00000
20.36400	644.00000
20.38600	623.00000
20.40800	579.00000
20.43000	567.00000
20.45200	608.00000
20.47400	583.00000
20.49600	590.00000
20.51800	591.00000
20.54000	575.00000
20.56200	587.00000
20.58400	614.00000
20.60600	584.00000
20.62800	649.00000
20.65000	610.00000
20.67200	658.00000
20.69400	624.00000
20.71600	658.00000
20.73800	708.00000
20.76000	673.00000
20.78200	697.00000
20.80400	665.00000
20.82600	720.00000
20.84800	690.00000
20.87000	639.00000
20.89200	689.00000
20.91400	681.00000
20.93600	694.00000
20.95800	663.00000
20.98000	687.00000
21.00200	662.00000
21.02400	697.00000
21.04600	654.00000
21.06800	708.00000
21.09000	676.00000
21.11200	669.00000
21.13400	654.00000
21.15600	604.00000
21.17800	637.00000
21.20000	565.00000
21.22200	693.00000
21.24400	629.00000
21.26600	648.00000
21.28800	641.00000
21.31000	635.00000
21.33200	661.00000
21.35400	641.00000
21.37600	734.00000
21.39800	669.00000
21.42000	728.00000
21.44200	829.00000
21.46400	1083.00000
21.48600	1286.00000
21.50800	1512.00000
21.53000	1853.00000
21.55200	2158.00000
21.57400	2310.00000
21.59600	2249.00000
21.61800	1981.00000
21.64000	1545.00000
21.66200	1124.00000
21.68400	921.00000
21.70600	788.00000
21.72800	696.00000
21.75000	639.00000
21.77200	624.00000
21.79400	657.00000
21.81600	635.00000
21.83800	701.00000
21.86000	657.00000
21.88200	648.00000
21.90400	664.00000
21.92600	634.00000
21.94800	652.00000
21.97000	627.00000
21.99200	653.00000
22.01400	659.00000
22.03600	667.00000
22.05800	682.00000
22.08000	688.00000
22.10200	691.00000
22.12400	708.00000
22.14600	683.00000
22.16800	727.00000
22.19000	667.00000
22.21200	702.00000
22.23400	653.00000
22.25600	651.00000
22.27800	707.00000
22.30000	653.00000
22.32200	693.00000
22.34400	700.00000
22.36600	671.00000
22.38800	656.00000
22.41000	663.00000
22.43200	691.00000
22.45400	642.00000
22.47600	703.00000
22.49800	709.00000
22.52000	746.00000
22.54200	693.00000
22.56400	733.00000
22.58600	713.00000
22.60800	720.00000
22.63000	765.00000
22.65200	752.00000
22.67400	716.00000
22.69600	740.00000
22.71800	723.00000
22.74000	716.00000
22.76200	759.00000
22.78400	776.00000
22.80600	800.00000
22.82800	833.00000
22.85000	1026.00000
22.87200	1225.00000
22.89400	1612.00000
22.91600	2527.00000
22.93800	3482.00000
22.96000	4849.00000
22.98200	6122.00000
23.00400	6828.00000
23.02600	6814.00000
23.04800	5829.00000
23.07000	4337.00000
23.09200	2947.00000
23.11400	1996.00000
23.13600	1335.00000
23.15800	840.00000
23.18000	748.00000
23.20200	717.00000
23.22400	679.00000
23.24600	704.00000
23.26800	716.00000
23.29000	645.00000
23.31200	668.00000
23.33400	660.00000
23.35600	688.00000
23.37800	685.00000
23.40000	707.00000
23.42200	635.00000
23.44400	672.00000
23.46600	661.00000
23.48800	656.00000
23.51000	655.00000
23.53200	639.00000
23.55400	677.00000
23.57600	734.00000
23.59800	746.00000
23.62000	765.00000
23.64200	772.00000
23.66400	804.00000
23.68600	798.00000
23.70800	796.00000
23.73000	752.00000
23.75200	729.00000
23.77400	716.00000
23.79600	807.00000
23.81800	781.00000
23.84000	785.00000
23.86200	780.00000
23.88400	754.00000
23.90600	781.00000
23.92800	798.00000
23.95000	818.00000
23.97200	789.00000
23.99400	745.00000
24.01600	722.00000
24.03800	679.00000
24.06000	691.00000
24.08200	679.00000
24.10400	682.00000
24.12600	644.00000
24.14800	647.00000
24.17000	622.00000
24.19200	644.00000
24.21400	642.00000
24.23600	631.00000
24.25800	618.00000
24.28000	625.00000
24.30200	640.00000
24.32400	619.00000
24.34600	628.00000
24.36800	654.00000
24.39000	598.00000
24.41200	599.00000
24.43400	692.00000
24.45600	698.00000
24.47800	651.00000
24.50000	698.00000
24.52200	665.00000
24.54400	682.00000
24.56600	679.00000
24.58800	742.00000
24.61000	669.00000
24.63200	636.00000
24.65400	658.00000
24.67600	628.00000
24.69800	662.00000
24.72000	700.00000
24.74200	674.00000
24.76400	683.00000
24.78600	656.00000
24.80800	693.00000
24.83000	685.00000
24.85200	677.00000
24.87400	669.00000
24.89600	715.00000
24.91800	735.00000
24.94000	697.00000
24.96200	719.00000
24.98400	717.00000
25.00600	771.00000
25.02800	756.00000
25.05000	748.00000
25.07200	729.00000
25.09400	709.00000
25.11600	715.00000
25.13800	744.00000
25.16000	695.00000
25.18200	687.00000
25.20400	706.00000
25.22600	725.00000
25.24800	736.00000
25.27000	772.00000
25.29200	765.00000
25.31400	735.00000
25.33600	782.00000
25.35800	787.00000
25.38000	748.00000
25.40200	756.00000
25.42400	756.00000
25.44600	790.00000
25.46800	738.00000
25.49000	839.00000
25.51200	814.00000
25.53400	794.00000
25.55600	843.00000
25.57800	796.00000
25.60000	815.00000
25.62200	842.00000
25.64400	822.00000
25.66600	855.00000
25.68800	867.00000
25.71000	877.00000
25.73200	834.00000
25.75400	846.00000
25.77600	854.00000
25.79800	877.00000
25.82000	900.00000
25.84200	837.00000
25.86400	883.00000
25.88600	870.00000
25.90800	889.00000
25.93000	862.00000
25.95200	963.00000
25.97400	937.00000
25.99600	1019.00000
26.01800	1073.00000
26.04000	1223.00000
26.06200	1370.00000
26.08400	1678.00000
26.10600	2390.00000
26.12800	3710.00000
26.15000	5840.00000
26.17200	8627.00000
26.19400	12091.00000
26.21600	15658.00000
26.23800	17001.00000
26.26000	16456.00000
26.28200	14763.00000
26.30400	10979.00000
26.32600	7449.00000
26.34800	4944.00000
26.37000	3115.00000
26.39200	1810.00000
26.41400	1207.00000
26.43600	1020.00000
26.45800	927.00000
26.48000	873.00000
26.50200	837.00000
26.52400	795.00000
26.54600	812.00000
26.56800	751.00000
26.59000	799.00000
26.61200	752.00000
26.63400	747.00000
26.65600	747.00000
26.67800	726.00000
26.70000	722.00000
26.72200	688.00000
26.74400	749.00000
26.76600	676.00000
26.78800	717.00000
26.81000	806.00000
26.83200	760.00000
26.85400	710.00000
26.87600	742.00000
26.89800	691.00000
26.92000	730.00000
26.94200	746.00000
26.96400	713.00000
26.98600	702.00000
27.00800	759.00000
27.03000	675.00000
27.05200	721.00000
27.07400	722.00000
27.09600	696.00000
27.11800	685.00000
27.14000	752.00000
27.16200	757.00000
27.18400	685.00000
27.20600	707.00000
27.22800	708.00000
27.25000	730.00000
27.27200	753.00000
27.29400	762.00000
27.31600	944.00000
27.33800	1200.00000
27.36000	1713.00000
27.38200	2264.00000
27.40400	2966.00000
27.42600	3334.00000
27.44800	3625.00000
27.47000	3495.00000
27.49200	2919.00000
27.51400	2330.00000
27.53600	1752.00000
27.55800	1388.00000
27.58000	931.00000
27.60200	738.00000
27.62400	714.00000
27.64600	665.00000
27.66800	646.00000
27.69000	636.00000
27.71200	646.00000
27.73400	668.00000
27.75600	640.00000
27.77800	619.00000
27.80000	659.00000
27.82200	638.00000
27.84400	620.00000
27.86600	570.00000
27.88800	652.00000
27.91000	626.00000
27.93200	663.00000
27.95400	722.00000
27.97600	801.00000
27.99800	932.00000
28.02000	1176.00000
28.04200	1443.00000
28.06400	1812.00000
28.08600	1793.00000
28.10800	1660.00000
28.13000	1640.00000
28.15200	1337.00000
28.17400	1067.00000
28.19600	928.00000
28.21800	743.00000
28.24000	620.00000
28.26200	596.00000
28.28400	627.00000
28.30600	574.00000
28.32800	603.00000
28.35000	604.00000
28.37200	605.00000
28.39400	564.00000
28.41600	581.00000
28.43800	592.00000
28.46000	654.00000
28.48200	574.00000
28.50400	597.00000
28.52600	638.00000
28.54800	606.00000
28.57000	567.00000
28.59200	635.00000
28.61400	610.00000
28.63600	584.00000
28.65800	598.00000
28.68000	564.00000
28.70200	625.00000
28.72400	622.00000
28.74600	640.00000
28.76800	602.00000
28.79000	650.00000
28.81200	598.00000
28.83400	647.00000
28.85600	616.00000
28.87800	577.00000
28.90000	629.00000
28.92200	629.00000
28.94400	623.00000
28.96600	614.00000
28.98800	599.00000
29.01000	603.00000
29.03200	579.00000
29.05400	620.00000
29.07600	636.00000
29.09800	639.00000
29.12000	653.00000
29.14200	607.00000
29.16400	582.00000
29.18600	685.00000
29.20800	653.00000
29.23000	626.00000
29.25200	642.00000
29.27400	629.00000
29.29600	676.00000
29.31800	634.00000
29.34000	684.00000
29.36200	666.00000
29.38400	623.00000
29.40600	621.00000
29.42800	669.00000
29.45000	641.00000
29.47200	619.00000
29.49400	657.00000
29.51600	668.00000
29.53800	720.00000
29.56000	792.00000
29.58200	747.00000
29.60400	891.00000
29.62600	1042.00000
29.64800	1335.00000
29.67000	1853.00000
29.69200	2789.00000
29.71400	4124.00000
29.73600	5417.00000
29.75800	6429.00000
29.78000	6724.00000
29.80200	6446.00000
29.82400	5449.00000
29.84600	4123.00000
29.86800	2949.00000
29.89000	2129.00000
29.91200	1551.00000
29.93400	1017.00000
29.95600	711.00000
29.97800	720.00000
30.00000	700.00000
30.02200	583.00000
30.04400	653.00000
30.06600	606.00000
30.08800	624.00000
30.11000	600.00000
30.13200	601.00000
30.15400	594.00000
30.17600	678.00000
30.19800	712.00000
30.22000	793.00000
30.24200	956.00000
30.26400	1075.00000
30.28600	1208.00000
30.30800	1275.00000
30.33000	1233.00000
30.35200	1157.00000
30.37400	922.00000
30.39600	853.00000
30.41800	733.00000
30.44000	710.00000
30.46200	657.00000
30.48400	607.00000
30.50600	577.00000
30.52800	606.00000
30.55000	536.00000
30.57200	557.00000
30.59400	546.00000
30.61600	576.00000
30.63800	584.00000
30.66000	531.00000
30.68200	513.00000
30.70400	571.00000
30.72600	528.00000
30.74800	551.00000
30.77000	580.00000
30.79200	599.00000
30.81400	540.00000
30.83600	529.00000
30.85800	528.00000
30.88000	525.00000
30.90200	525.00000
30.92400	521.00000
30.94600	586.00000
30.96800	534.00000
30.99000	542.00000
31.01200	482.00000
31.03400	528.00000
31.05600	505.00000
31.07800	504.00000
31.10000	526.00000
31.12200	508.00000
31.14400	520.00000
31.16600	474.00000
31.18800	557.00000
31.21000	506.00000
31.23200	480.00000
31.25400	548.00000
31.27600	521.00000
31.29800	506.00000
31.32000	505.00000
31.34200	527.00000
31.36400	504.00000
31.38600	518.00000
31.40800	488.00000
31.43000	545.00000
31.45200	555.00000
31.47400	534.00000
31.49600	490.00000
31.51800	528.00000
31.54000	516.00000
31.56200	538.00000
31.58400	528.00000
31.60600	637.00000
31.62800	711.00000
31.65000	853.00000
31.67200	975.00000
31.69400	1215.00000
31.71600	1338.00000
31.73800	1339.00000
31.76000	1388.00000
31.78200	1270.00000
31.80400	1147.00000
31.82600	957.00000
31.84800	999.00000
31.87000	865.00000
31.89200	750.00000
31.91400	688.00000
31.93600	611.00000
31.95800	623.00000
31.98000	623.00000
32.00200	531.00000
32.02400	484.00000
32.04600	492.00000
32.06800	517.00000
32.09000	498.00000
32.11200	503.00000
32.13400	477.00000
32.15600	500.00000
32.17800	493.00000
32.20000	521.00000
32.22200	538.00000
32.24400	513.00000
32.26600	488.00000
32.28800	476.00000
32.31000	468.00000
32.33200	492.00000
32.35400	499.00000
32.37600	473.00000
32.39800	554.00000
32.42000	582.00000
32.44200	737.00000
32.46400	797.00000
32.48600	1106.00000
32.50800	1343.00000
32.53000	1576.00000
32.55200	1772.00000
32.57400	1757.00000
32.59600	1899.00000
32.61800	1770.00000
32.64000	1478.00000
32.66200	1148.00000
32.68400	960.00000
32.70600	815.00000
32.72800	706.00000
32.75000	528.00000
32.77200	505.00000
32.79400	515.00000
32.81600	478.00000
32.83800	472.00000
32.86000	471.00000
32.88200	523.00000
32.90400	453.00000
32.92600	505.00000
32.94800	450.00000
32.97000	464.00000
32.99200	505.00000
33.01400	430.00000
33.03600	468.00000
33.05800	481.00000
33.08000	468.00000
33.10200	461.00000
33.12400	449.00000
33.14600	483.00000
33.16800	480.00000
33.19000	472.00000
33.21200	510.00000
33.23400	486.00000
33.25600	485.00000
33.27800	470.00000
33.30000	445.00000
33.32200	498.00000
33.34400	471.00000
33.36600	476.00000
33.38800	460.00000
33.41000	553.00000
33.43200	469.00000
33.45400	500.00000
33.47600	486.00000
33.49800	462.00000
33.52000	443.00000
33.54200	487.00000
33.56400	492.00000
33.58600	510.00000
33.60800	522.00000
33.63000	544.00000
33.65200	529.00000
33.67400	596.00000
33.69600	608.00000
33.71800	723.00000
33.74000	921.00000
33.76200	1315.00000
33.78400	1951.00000
33.80600	2665.00000
33.82800	3339.00000
33.85000	3412.00000
33.87200	3575.00000
33.89400	3531.00000
33.91600	3128.00000
33.93800	2334.00000
33.96000	1883.00000
33.98200	1484.00000
34.00400	1108.00000
34.02600	866.00000
34.04800	615.00000
34.07000	519.00000
34.09200	516.00000
34.11400	485.00000
34.13600	490.00000
34.15800	485.00000
34.18000	455.00000
34.20200	442.00000
34.22400	408.00000
34.24600	428.00000
34.26800	463.00000
34.29000	471.00000
34.31200	445.00000
34.33400	469.00000
34.35600	432.00000
34.37800	453.00000
34.40000	381.00000
34.42200	445.00000
34.44400	479.00000
34.46600	422.00000
34.48800	402.00000
34.51000	446.00000
34.53200	413.00000
34.55400	433.00000
34.57600	381.00000
34.59800	432.00000
34.62000	391.00000
34.64200	442.00000
34.66400	415.00000
34.68600	412.00000
34.70800	412.00000
34.73000	389.00000
34.75200	406.00000
34.77400	387.00000
34.79600	387.00000
34.81800	407.00000
34.84000	375.00000
34.86200	416.00000
34.88400	371.00000
34.90600	419.00000
34.92800	390.00000
34.95000	368.00000
34.97200	384.00000
34.99400	397.00000
35.01600	415.00000
35.03800	383.00000
35.06000	370.00000
35.08200	391.00000
35.10400	381.00000
35.12600	356.00000
35.14800	379.00000
35.17000	391.00000
35.19200	393.00000
35.21400	394.00000
35.23600	406.00000
35.25800	356.00000
35.28000	411.00000
35.30200	360.00000
35.32400	386.00000
35.34600	375.00000
35.36800	380.00000
35.39000	413.00000
35.41200	373.00000
35.43400	379.00000
35.45600	370.00000
35.47800	375.00000
35.50000	385.00000
35.52200	391.00000
35.54400	371.00000
35.56600	382.00000
35.58800	355.00000
35.61000	372.00000
35.63200	414.00000
35.65400	374.00000
35.67600	385.00000
35.69800	397.00000
35.72000	357.00000
35.74200	355.00000
35.76400	381.00000
35.78600	398.00000
35.80800	395.00000
35.83000	411.00000
35.85200	389.00000
35.87400	389.00000
35.89600	384.00000
35.91800	392.00000
35.94000	402.00000
35.96200	409.00000
35.98400	363.00000
36.00600	407.00000
36.02800	391.00000
36.05000	372.00000
36.07200	385.00000
36.09400	373.00000
36.11600	382.00000
36.13800	385.00000
36.16000	420.00000
36.18200	371.00000
36.20400	371.00000
36.22600	371.00000
36.24800	379.00000
36.27000	397.00000
36.29200	377.00000
36.31400	370.00000
36.33600	389.00000
36.35800	363.00000
36.38000	396.00000
36.40200	376.00000
36.42400	403.00000
36.44600	413.00000
36.46800	377.00000
36.49000	372.00000
36.51200	387.00000
36.53400	392.00000
36.55600	405.00000
36.57800	393.00000
36.60000	390.00000
36.62200	432.00000
36.64400	438.00000
36.66600	418.00000
36.68800	395.00000
36.71000	435.00000
36.73200	422.00000
36.75400	513.00000
36.77600	529.00000
36.79800	718.00000
36.82000	973.00000
36.84200	1211.00000
36.86400	1382.00000
36.88600	1668.00000
36.90800	1609.00000
36.93000	1599.00000
36.95200	1641.00000
36.97400	1363.00000
36.99600	1321.00000
37.01800	1342.00000
37.04000	1211.00000
37.06200	1063.00000
37.08400	956.00000
37.10600	829.00000
37.12800	660.00000
37.15000	612.00000
37.17200	541.00000
37.19400	530.00000
37.21600	485.00000
37.23800	409.00000
37.26000	417.00000
37.28200	384.00000
37.30400	407.00000
37.32600	375.00000
37.34800	382.00000
37.37000	366.00000
37.39200	362.00000
37.41400	384.00000
37.43600	394.00000
37.45800	370.00000
37.48000	377.00000
37.50200	351.00000
37.52400	408.00000
37.54600	365.00000
37.56800	357.00000
37.59000	372.00000
37.61200	354.00000
37.63400	409.00000
37.65600	390.00000
37.67800	360.00000
37.70000	394.00000
37.72200	415.00000
37.74400	418.00000
37.76600	458.00000
37.78800	471.00000
37.81000	527.00000
37.83200	673.00000
37.85400	924.00000
37.87600	1353.00000
37.89800	1675.00000
37.92000	1978.00000
37.94200	2104.00000
37.96400	2171.00000
37.98600	2084.00000
38.00800	1772.00000
38.03000	1399.00000
38.05200	1110.00000
38.07400	980.00000
38.09600	779.00000
38.11800	673.00000
38.14000	507.00000
38.16200	413.00000
38.18400	439.00000
38.20600	373.00000
38.22800	356.00000
38.25000	377.00000
38.27200	357.00000
38.29400	358.00000
38.31600	366.00000
38.33800	375.00000
38.36000	391.00000
38.38200	354.00000
38.40400	348.00000
38.42600	362.00000
38.44800	377.00000
38.47000	373.00000
38.49200	363.00000
38.51400	345.00000
38.53600	344.00000
38.55800	340.00000
38.58000	308.00000
38.60200	355.00000
38.62400	342.00000
38.64600	341.00000
38.66800	337.00000
38.69000	332.00000
38.71200	333.00000
38.73400	312.00000
38.75600	359.00000
38.77800	333.00000
38.80000	345.00000
38.82200	320.00000
38.84400	319.00000
38.86600	303.00000
38.88800	336.00000
38.91000	338.00000
38.93200	358.00000
38.95400	318.00000
38.97600	339.00000
38.99800	291.00000
39.02000	317.00000
39.04200	299.00000
39.06400	297.00000
39.08600	353.00000
39.10800	329.00000
39.13000	302.00000
39.15200	344.00000
39.17400	322.00000
39.19600	301.00000
39.21800	303.00000
39.24000	335.00000
39.26200	331.00000
39.28400	277.00000
39.30600	305.00000
39.32800	315.00000
39.35000	322.00000
39.37200	311.00000
39.39400	338.00000
39.41600	342.00000
39.43800	328.00000
39.46000	311.00000
39.48200	359.00000
39.50400	337.00000
39.52600	359.00000
39.54800	327.00000
39.57000	338.00000
39.59200	352.00000
39.61400	346.00000
39.63600	351.00000
39.65800	333.00000
39.68000	360.00000
39.70200	319.00000
39.72400	342.00000
39.74600	328.00000
39.76800	332.00000
39.79000	318.00000
39.81200	321.00000
39.83400	329.00000
39.85600	356.00000
39.87800	321.00000
39.90000	325.00000
39.92200	296.00000
39.94400	316.00000
39.96600	334.00000
39.98800	321.00000
40.01000	305.00000
40.03200	300.00000
40.05400	321.00000
40.07600	338.00000
40.09800	356.00000
40.12000	300.00000
40.14200	329.00000
40.16400	367.00000
40.18600	376.00000
40.20800	419.00000
40.23000	409.00000
40.25200	400.00000
40.27400	429.00000
40.29600	432.00000
40.31800	448.00000
40.34000	408.00000
40.36200	407.00000
40.38400	413.00000
40.40600	367.00000
40.42800	360.00000
40.45000	330.00000
40.47200	329.00000
40.49400	359.00000
40.51600	346.00000
40.53800	306.00000
40.56000	335.00000
40.58200	301.00000
40.60400	326.00000
40.62600	359.00000
40.64800	311.00000
40.67000	323.00000
40.69200	282.00000
40.71400	307.00000
40.73600	327.00000
40.75800	351.00000
40.78000	305.00000
40.80200	286.00000
40.82400	338.00000
40.84600	331.00000
40.86800	323.00000
40.89000	308.00000
40.91200	319.00000
40.93400	344.00000
40.95600	333.00000
40.97800	310.00000
41.00000	304.00000
41.02200	337.00000
41.04400	348.00000
41.06600	331.00000
41.08800	353.00000
41.11000	331.00000
41.13200	330.00000
41.15400	370.00000
41.17600	346.00000
41.19800	354.00000
41.22000	348.00000
41.24200	395.00000
41.26400	502.00000
41.28600	565.00000
41.30800	730.00000
41.33000	811.00000
41.35200	904.00000
41.37400	929.00000
41.39600	954.00000
41.41800	927.00000
41.44000	843.00000
41.46200	670.00000
41.48400	622.00000
41.50600	589.00000
41.52800	550.00000
41.55000	487.00000
41.57200	408.00000
41.59400	357.00000
41.61600	385.00000
41.63800	337.00000
41.66000	327.00000
41.68200	348.00000
41.70400	337.00000
41.72600	347.00000
41.74800	365.00000
41.77000	370.00000
41.79200	352.00000
41.81400	376.00000
41.83600	466.00000
41.85800	512.00000
41.88000	558.00000
41.90200	546.00000
41.92400	573.00000
41.94600	554.00000
41.96800	565.00000
41.99000	577.00000
42.01200	497.00000
42.03400	470.00000
42.05600	438.00000
42.07800	458.00000
42.10000	427.00000
42.12200	358.00000
42.14400	390.00000
42.16600	363.00000
42.18800	351.00000
42.21000	389.00000
42.23200	413.00000
42.25400	386.00000
42.27600	457.00000
42.29800	584.00000
42.32000	737.00000
42.34200	985.00000
42.36400	1381.00000
42.38600	1603.00000
42.40800	1722.00000
42.43000	1853.00000
42.45200	1954.00000
42.47400	1930.00000
42.49600	1706.00000
42.51800	1339.00000
42.54000	1134.00000
42.56200	963.00000
42.58400	862.00000
42.60600	703.00000
42.62800	536.00000
42.65000	417.00000
42.67200	406.00000
42.69400	348.00000
42.71600	367.00000
42.73800	349.00000
42.76000	378.00000
42.78200	332.00000
42.80400	334.00000
42.82600	344.00000
42.84800	366.00000
42.87000	365.00000
42.89200	442.00000
42.91400	503.00000
42.93600	520.00000
42.95800	612.00000
42.98000	590.00000
43.00200	675.00000
43.02400	717.00000
43.04600	742.00000
43.06800	689.00000
43.09000	711.00000
43.11200	699.00000
43.13400	655.00000
43.15600	705.00000
43.17800	648.00000
43.20000	538.00000
43.22200	473.00000
43.24400	432.00000
43.26600	451.00000
43.28800	397.00000
43.31000	353.00000
43.33200	367.00000
43.35400	335.00000
43.37600	328.00000
43.39800	346.00000
43.42000	352.00000
43.44200	328.00000
43.46400	330.00000
43.48600	314.00000
43.50800	312.00000
43.53000	336.00000
43.55200	300.00000
43.57400	340.00000
43.59600	344.00000
43.61800	356.00000
43.64000	322.00000
43.66200	342.00000
43.68400	364.00000
43.70600	317.00000
43.72800	341.00000
43.75000	326.00000
43.77200	350.00000
43.79400	441.00000
43.81600	464.00000
43.83800	594.00000
43.86000	666.00000
43.88200	711.00000
43.90400	772.00000
43.92600	803.00000
43.94800	842.00000
43.97000	789.00000
43.99200	684.00000
44.01400	635.00000
44.03600	534.00000
44.05800	492.00000
44.08000	506.00000
44.10200	448.00000
44.12400	352.00000
44.14600	370.00000
44.16800	317.00000
44.19000	320.00000
44.21200	317.00000
44.23400	317.00000
44.25600	306.00000
44.27800	284.00000
44.30000	311.00000
44.32200	289.00000
44.34400	324.00000
44.36600	321.00000
44.38800	324.00000
44.41000	351.00000
44.43200	311.00000
44.45400	324.00000
44.47600	324.00000
44.49800	356.00000
44.52000	365.00000
44.54200	415.00000
44.56400	482.00000
44.58600	614.00000
44.60800	839.00000
44.63000	979.00000
44.65200	1148.00000
44.67400	1256.00000
44.69600	1228.00000
44.71800	1326.00000
44.74000	1304.00000
44.76200	1068.00000
44.78400	828.00000
44.80600	734.00000
44.82800	711.00000
44.85000	694.00000
44.87200	538.00000
44.89400	429.00000
44.91600	357.00000
44.93800	306.00000
44.96000	312.00000
44.98200	284.00000
45.00400	327.00000
45.02600	314.00000
45.04800	322.00000
45.07000	275.00000
45.09200	295.00000
45.11400	271.00000
45.13600	322.00000
45.15800	322.00000
45.18000	303.00000
45.20200	313.00000
45.22400	281.00000
45.24600	299.00000
45.26800	285.00000
45.29000	310.00000
45.31200	291.00000
45.33400	273.00000
45.35600	274.00000
45.37800	316.00000
45.40000	293.00000
45.42200	285.00000
45.44400	281.00000
45.46600	277.00000
45.48800	278.00000
45.51000	308.00000
45.53200	294.00000
45.55400	293.00000
45.57600	291.00000
45.59800	309.00000
45.62000	284.00000
45.64200	300.00000
45.66400	280.00000
45.68600	277.00000
45.70800	302.00000
45.73000	302.00000
45.75200	336.00000
45.77400	296.00000
45.79600	278.00000
45.81800	293.00000
45.84000	274.00000
45.86200	244.00000
45.88400	299.00000
45.90600	257.00000
45.92800	283.00000
45.95000	274.00000
45.97200	285.00000
45.99400	267.00000
46.01600	300.00000
46.03800	275.00000
46.06000	285.00000
46.08200	312.00000
46.10400	238.00000
46.12600	282.00000
46.14800	262.00000
46.17000	302.00000
46.19200	266.00000
46.21400	260.00000
46.23600	297.00000
46.25800	258.00000
46.28000	289.00000
46.30200	269.00000
46.32400	284.00000
46.34600	298.00000
46.36800	281.00000
46.39000	286.00000
46.41200	291.00000
46.43400	297.00000
46.45600	313.00000
46.47800	321.00000
46.50000	335.00000
46.52200	361.00000
46.54400	421.00000
46.56600	418.00000
46.58800	435.00000
46.61000	428.00000
46.63200	429.00000
46.65400	418.00000
46.67600	340.00000
46.69800	403.00000
46.72000	382.00000
46.74200	380.00000
46.76400	389.00000
46.78600	333.00000
46.80800	318.00000
46.83000	298.00000
46.85200	298.00000
46.87400	297.00000
46.89600	343.00000
46.91800	299.00000
46.94000	309.00000
46.96200	299.00000
46.98400	288.00000
47.00600	286.00000
47.02800	314.00000
47.05000	312.00000
47.07200	291.00000
47.09400	303.00000
47.11600	281.00000
47.13800	281.00000
47.16000	296.00000
47.18200	285.00000
47.20400	274.00000
47.22600	269.00000
47.24800	282.00000
47.27000	276.00000
47.29200	272.00000
47.31400	278.00000
47.33600	291.00000
47.35800	259.00000
47.38000	265.00000
47.40200	245.00000
47.42400	273.00000
47.44600	240.00000
47.46800	272.00000
47.49000	245.00000
47.51200	271.00000
47.53400	302.00000
47.55600	264.00000
47.57800	264.00000
47.60000	257.00000
47.62200	287.00000
47.64400	292.00000
47.66600	264.00000
47.68800	305.00000
47.71000	238.00000
47.73200	281.00000
47.75400	291.00000
47.77600	322.00000
47.79800	285.00000
47.82000	294.00000
47.84200	270.00000
47.86400	268.00000
47.88600	318.00000
47.90800	316.00000
47.93000	303.00000
47.95200	356.00000
47.97400	415.00000
47.99600	501.00000
48.01800	596.00000
48.04000	685.00000
48.06200	708.00000
48.08400	761.00000
48.10600	828.00000
48.12800	885.00000
48.15000	928.00000
48.17200	778.00000
48.19400	625.00000
48.21600	541.00000
48.23800	488.00000
48.26000	508.00000
48.28200	485.00000
48.30400	416.00000
48.32600	339.00000
48.34800	307.00000
48.37000	304.00000
48.39200	302.00000
48.41400	285.00000
48.43600	268.00000
48.45800	324.00000
48.48000	293.00000
48.50200	308.00000
48.52400	290.00000
48.54600	280.00000
48.56800	307.00000
48.59000	261.00000
48.61200	283.00000
48.63400	307.00000
48.65600	258.00000
48.67800	285.00000
48.70000	251.00000
48.72200	278.00000
48.74400	252.00000
48.76600	279.00000
48.78800	267.00000
48.81000	247.00000
48.83200	256.00000
48.85400	249.00000
48.87600	290.00000
48.89800	254.00000
48.92000	297.00000
48.94200	269.00000
48.96400	252.00000
48.98600	292.00000
49.00800	274.00000
49.03000	268.00000
49.05200	304.00000
49.07400	297.00000
49.09600	269.00000
49.11800	255.00000
49.14000	268.00000
49.16200	261.00000
49.18400	262.00000
49.20600	286.00000
49.22800	274.00000
49.25000	282.00000
49.27200	273.00000
49.29400	254.00000
49.31600	279.00000
49.33800	289.00000
49.36000	287.00000
49.38200	308.00000
49.40400	311.00000
49.42600	309.00000
49.44800	312.00000
49.47000	340.00000
49.49200	356.00000
49.51400	356.00000
49.53600	347.00000
49.55800	362.00000
49.58000	340.00000
49.60200	326.00000
49.62400	336.00000
49.64600	314.00000
49.66800	361.00000
49.69000	332.00000
49.71200	382.00000
49.73400	361.00000
49.75600	401.00000
49.77800	428.00000
49.80000	518.00000
49.82200	528.00000
49.84400	560.00000
49.86600	590.00000
49.88800	589.00000
49.91000	627.00000
49.93200	635.00000
49.95400	550.00000
49.97600	487.00000
49.99800	440.00000
50.02000	419.00000
50.04200	390.00000
50.06400	396.00000
50.08600	355.00000
50.10800	347.00000
50.13000	357.00000
50.15200	364.00000
50.17400	310.00000
50.19600	274.00000
50.21800	322.00000
50.24000	344.00000
50.26200	346.00000
50.28400	350.00000
50.30600	322.00000
50.32800	315.00000
50.35000	338.00000
50.37200	337.00000
50.39400	359.00000
50.41600	299.00000
50.43800	316.00000
50.46000	344.00000
50.48200	342.00000
50.50400	344.00000
50.52600	349.00000
50.54800	416.00000
50.57000	417.00000
50.59200	520.00000
50.61400	757.00000
50.63600	882.00000
50.65800	1032.00000
50.68000	1113.00000
50.70200	1142.00000
50.72400	1247.00000
50.74600	1399.00000
50.76800	1302.00000
50.79000	982.00000
50.81200	832.00000
50.83400	669.00000
50.85600	711.00000
50.87800	721.00000
50.90000	692.00000
50.92200	508.00000
50.94400	418.00000
50.96600	349.00000
50.98800	330.00000
51.01000	305.00000
51.03200	313.00000
51.05400	319.00000
51.07600	322.00000
51.09800	294.00000
51.12000	306.00000
51.14200	266.00000
51.16400	301.00000
51.18600	304.00000
51.20800	302.00000
51.23000	309.00000
51.25200	278.00000
51.27400	293.00000
51.29600	351.00000
51.31800	382.00000
51.34000	384.00000
51.36200	392.00000
51.38400	399.00000
51.40600	442.00000
51.42800	413.00000
51.45000	426.00000
51.47200	393.00000
51.49400	379.00000
51.51600	338.00000
51.53800	344.00000
51.56000	327.00000
51.58200	326.00000
51.60400	327.00000
51.62600	340.00000
51.64800	277.00000
51.67000	275.00000
51.69200	297.00000
51.71400	299.00000
51.73600	297.00000
51.75800	268.00000
51.78000	256.00000
51.80200	313.00000
51.82400	262.00000
51.84600	283.00000
51.86800	294.00000
51.89000	319.00000
51.91200	286.00000
51.93400	264.00000
51.95600	272.00000
51.97800	279.00000
52.00000	289.00000
52.02200	298.00000
52.04400	294.00000
52.06600	275.00000
52.08800	302.00000
52.11000	284.00000
52.13200	323.00000
52.15400	348.00000
52.17600	393.00000
52.19800	391.00000
52.22000	453.00000
52.24200	432.00000
52.26400	445.00000
52.28600	466.00000
52.30800	458.00000
52.33000	451.00000
52.35200	424.00000
52.37400	453.00000
52.39600	421.00000
52.41800	442.00000
52.44000	491.00000
52.46200	480.00000
52.48400	460.00000
52.50600	420.00000
52.52800	423.00000
52.55000	382.00000
52.57200	351.00000
52.59400	305.00000
52.61600	342.00000
52.63800	347.00000
52.66000	323.00000
52.68200	286.00000
52.70400	269.00000
52.72600	283.00000
52.74800	261.00000
52.77000	259.00000
52.79200	285.00000
52.81400	237.00000
52.83600	269.00000
52.85800	266.00000
52.88000	294.00000
52.90200	252.00000
52.92400	248.00000
52.94600	291.00000
52.96800	297.00000
52.99000	307.00000
53.01200	266.00000
53.03400	271.00000
53.05600	269.00000
53.07800	254.00000
53.10000	275.00000
53.12200	282.00000
53.14400	227.00000
53.16600	276.00000
53.18800	249.00000
53.21000	292.00000
53.23200	302.00000
53.25400	270.00000
53.27600	278.00000
53.29800	260.00000
53.32000	249.00000
53.34200	277.00000
53.36400	256.00000
53.38600	281.00000
53.40800	281.00000
53.43000	273.00000
53.45200	289.00000
53.47400	293.00000
53.49600	259.00000
53.51800	262.00000
53.54000	264.00000
53.56200	253.00000
53.58400	284.00000
53.60600	276.00000
53.62800	281.00000
53.65000	305.00000
53.67200	292.00000
53.69400	298.00000
53.71600	276.00000
53.73800	296.00000
53.76000	300.00000
53.78200	288.00000
53.80400	335.00000
53.82600	366.00000
53.84800	421.00000
53.87000	516.00000
53.89200	594.00000
53.91400	620.00000
53.93600	638.00000
53.95800	683.00000
53.98000	730.00000
54.00200	723.00000
54.02400	606.00000
54.04600	561.00000
54.06800	498.00000
54.09000	493.00000
54.11200	514.00000
54.13400	489.00000
54.15600	441.00000
54.17800	449.00000
54.20000	402.00000
54.22200	366.00000
54.24400	367.00000
54.26600	308.00000
54.28800	298.00000
54.31000	304.00000
54.33200	310.00000
54.35400	299.00000
54.37600	267.00000
54.39800	268.00000
54.42000	312.00000
54.44200	276.00000
54.46400	270.00000
54.48600	283.00000
54.50800	263.00000
54.53000	298.00000
54.55200	232.00000
54.57400	309.00000
54.59600	270.00000
54.61800	250.00000
54.64000	267.00000
54.66200	240.00000
54.68400	282.00000
54.70600	231.00000
54.72800	293.00000
54.75000	258.00000
54.77200	268.00000
54.79400	271.00000
54.81600	265.00000
54.83800	259.00000
54.86000	235.00000
54.88200	278.00000
54.90400	259.00000
54.92600	252.00000
54.94800	322.00000
54.97000	252.00000
54.99200	274.00000
55.01400	282.00000
55.03600	274.00000
55.05800	273.00000
55.08000	309.00000
55.10200	276.00000
55.12400	263.00000
55.14600	277.00000
55.16800	263.00000
55.19000	282.00000
55.21200	260.00000
55.23400	311.00000
55.25600	302.00000
55.27800	272.00000
55.30000	319.00000
55.32200	316.00000
55.34400	365.00000
55.36600	389.00000
55.38800	431.00000
55.41000	470.00000
55.43200	513.00000
55.45400	531.00000
55.47600	504.00000
55.49800	547.00000
55.52000	535.00000
55.54200	547.00000
55.56400	466.00000
55.58600	434.00000
55.60800	353.00000
55.63000	396.00000
55.65200	416.00000
55.67400	372.00000
55.69600	362.00000
55.71800	308.00000
55.74000	300.00000
55.76200	273.00000
55.78400	299.00000
55.80600	326.00000
55.82800	291.00000
55.85000	298.00000
55.87200	301.00000
55.89400	314.00000
55.91600	268.00000
55.93800	291.00000
55.96000	263.00000
55.98200	290.00000
56.00400	276.00000
56.02600	274.00000
56.04800	312.00000
56.07000	252.00000
56.09200	262.00000
56.11400	307.00000
56.13600	265.00000
56.15800	305.00000
56.18000	289.00000
56.20200	327.00000
56.22400	306.00000
56.24600	305.00000
56.26800	317.00000
56.29000	349.00000
56.31200	341.00000
56.33400	441.00000
56.35600	513.00000
56.37800	623.00000
56.40000	650.00000
56.42200	708.00000
56.44400	749.00000
56.46600	829.00000
56.48800	781.00000
56.51000	754.00000
56.53200	689.00000
56.55400	559.00000
56.57600	515.00000
56.59800	499.00000
56.62000	543.00000
56.64200	536.00000
56.66400	470.00000
56.68600	365.00000
56.70800	375.00000
56.73000	314.00000
56.75200	293.00000
56.77400	306.00000
56.79600	305.00000
56.81800	311.00000
56.84000	286.00000
56.86200	267.00000
56.88400	313.00000
56.90600	285.00000
56.92800	295.00000
56.95000	279.00000
56.97200	238.00000
56.99400	284.00000
57.01600	280.00000
57.03800	264.00000
57.06000	266.00000
57.08200	256.00000
57.10400	247.00000
57.12600	270.00000
57.14800	261.00000
57.17000	263.00000
57.19200	280.00000
57.21400	256.00000
57.23600	278.00000
57.25800	264.00000
57.28000	256.00000
57.30200	315.00000
57.32400	286.00000
57.34600	257.00000
57.36800	260.00000
57.39000	264.00000
57.41200	300.00000
57.43400	279.00000
57.45600	289.00000
57.47800	284.00000
57.50000	277.00000
57.52200	282.00000
57.54400	279.00000
57.56600	281.00000
57.58800	264.00000
57.61000	308.00000
57.63200	258.00000
57.65400	270.00000
57.67600	305.00000
57.69800	306.00000
57.72000	267.00000
57.74200	305.00000
57.76400	306.00000
57.78600	269.00000
57.80800	296.00000
57.83000	321.00000
57.85200	314.00000
57.87400	400.00000
57.89600	419.00000
57.91800	463.00000
57.94000	508.00000
57.96200	511.00000
57.98400	517.00000
58.00600	592.00000
58.02800	561.00000
58.05000	517.00000
58.07200	478.00000
58.09400	423.00000
58.11600	453.00000
58.13800	410.00000
58.16000	421.00000
58.18200	397.00000
58.20400	345.00000
58.22600	334.00000
58.24800	327.00000
58.27000	310.00000
58.29200	305.00000
58.31400	273.00000
58.33600	268.00000
58.35800	285.00000
58.38000	299.00000
58.40200	260.00000
58.42400	272.00000
58.44600	292.00000
58.46800	276.00000
58.49000	259.00000
58.51200	252.00000
58.53400	293.00000
58.55600	272.00000
58.57800	264.00000
58.60000	281.00000
58.62200	299.00000
58.64400	279.00000
58.66600	268.00000
58.68800	240.00000
58.71000	275.00000
58.73200	283.00000
58.75400	270.00000
58.77600	268.00000
58.79800	289.00000
58.82000	288.00000
58.84200	300.00000
58.86400	293.00000
58.88600	313.00000
58.90800	257.00000
58.93000	307.00000
58.95200	272.00000
58.97400	294.00000
58.99600	289.00000
59.01800	298.00000
59.04000	333.00000
59.06200	382.00000
59.08400	399.00000
59.10600	426.00000
59.12800	437.00000
59.15000	479.00000
59.17200	488.00000
59.19400	516.00000
59.21600	460.00000
59.23800	420.00000
59.26000	361.00000
59.28200	405.00000
59.30400	379.00000
59.32600	376.00000
59.34800	351.00000
59.37000	392.00000
59.39200	297.00000
59.41400	332.00000
59.43600	299.00000
59.45800	282.00000
59.48000	278.00000
59.50200	267.00000
59.52400	298.00000
59.54600	312.00000
59.56800	289.00000
59.59000	269.00000
59.61200	255.00000
59.63400	278.00000
59.65600	270.00000
59.67800	287.00000
59.70000	278.00000
59.72200	266.00000
59.74400	273.00000
59.76600	287.00000
59.78800	289.00000
59.81000	314.00000
59.83200	282.00000
59.85400	286.00000
59.87600	300.00000
59.89800	247.00000
59.92000	314.00000
59.94200	298.00000
59.96400	278.00000
59.98600	273.00000
60.00800	286.00000
60.03000	293.00000
60.05200	260.00000
60.07400	340.00000
60.09600	343.00000
60.11800	372.00000
60.14000	429.00000
60.16200	508.00000
60.18400	500.00000
60.20600	512.00000
60.22800	580.00000
60.25000	553.00000
60.27200	547.00000
60.29400	534.00000
60.31600	472.00000
60.33800	434.00000
60.36000	417.00000
60.38200	430.00000
60.40400	392.00000
60.42600	409.00000
60.44800	357.00000
60.47000	378.00000
60.49200	299.00000
60.51400	300.00000
60.53600	280.00000
60.55800	287.00000
60.58000	288.00000
60.60200	292.00000
60.62400	280.00000
60.64600	256.00000
60.66800	293.00000
60.69000	287.00000
60.71200	273.00000
60.73400	277.00000
60.75600	266.00000
60.77800	287.00000
60.80000	272.00000
60.82200	266.00000
60.84400	265.00000
60.86600	271.00000
60.88800	279.00000
60.91000	265.00000
60.93200	285.00000
60.95400	271.00000
60.97600	268.00000
60.99800	287.00000
61.02000	290.00000
61.04200	287.00000
61.06400	304.00000
61.08600	340.00000
61.10800	314.00000
61.13000	272.00000
61.15200	336.00000
61.17400	319.00000
61.19600	337.00000
61.21800	305.00000
61.24000	319.00000
61.26200	318.00000
61.28400	312.00000
61.30600	309.00000
61.32800	306.00000
61.35000	300.00000
61.37200	292.00000
61.39400	312.00000
61.41600	328.00000
61.43800	304.00000
61.46000	301.00000
61.48200	290.00000
61.50400	337.00000
61.52600	325.00000
61.54800	375.00000
61.57000	434.00000
61.59200	502.00000
61.61400	511.00000
61.63600	575.00000
61.65800	646.00000
61.68000	643.00000
61.70200	715.00000
61.72400	691.00000
61.74600	715.00000
61.76800	639.00000
61.79000	604.00000
61.81200	610.00000
61.83400	609.00000
61.85600	587.00000
61.87800	588.00000
61.90000	476.00000
61.92200	453.00000
61.94400	412.00000
61.96600	373.00000
61.98800	376.00000
62.01000	364.00000
62.03200	344.00000
62.05400	327.00000
62.07600	289.00000
62.09800	317.00000
62.12000	307.00000
62.14200	291.00000
62.16400	295.00000
62.18600	303.00000
62.20800	283.00000
62.23000	296.00000
62.25200	326.00000
62.27400	293.00000
62.29600	287.00000
62.31800	259.00000
62.34000	274.00000
62.36200	288.00000
62.38400	278.00000
62.40600	267.00000
62.42800	314.00000
62.45000	297.00000
62.47200	253.00000
62.49400	280.00000
62.51600	295.00000
62.53800	271.00000
62.56000	249.00000
62.58200	307.00000
62.60400	269.00000
62.62600	273.00000
62.64800	294.00000
62.67000	258.00000
62.69200	268.00000
62.71400	288.00000
62.73600	244.00000
62.75800	305.00000
62.78000	297.00000
62.80200	274.00000
62.82400	287.00000
62.84600	302.00000
62.86800	280.00000
62.89000	315.00000
62.91200	329.00000
62.93400	319.00000
62.95600	362.00000
62.97800	295.00000
63.00000	364.00000
63.02200	331.00000
63.04400	341.00000
63.06600	358.00000
63.08800	357.00000
63.11000	332.00000
63.13200	361.00000
63.15400	394.00000
63.17600	360.00000
63.19800	378.00000
63.22000	374.00000
63.24200	344.00000
63.26400	337.00000
63.28600	368.00000
63.30800	346.00000
63.33000	366.00000
63.35200	394.00000
63.37400	385.00000
63.39600	333.00000
63.41800	355.00000
63.44000	342.00000
63.46200	339.00000
63.48400	332.00000
63.50600	302.00000
63.52800	305.00000
63.55000	315.00000
63.57200	319.00000
63.59400	305.00000
63.61600	313.00000
63.63800	283.00000
63.66000	308.00000
63.68200	292.00000
63.70400	263.00000
63.72600	266.00000
63.74800	272.00000
63.77000	234.00000
63.79200	258.00000
63.81400	264.00000
63.83600	245.00000
63.85800	248.00000
63.88000	276.00000
63.90200	256.00000
63.92400	258.00000
63.94600	253.00000
63.96800	263.00000
63.99000	227.00000
64.01200	263.00000
64.03400	237.00000
64.05600	252.00000
64.07800	259.00000
64.10000	277.00000
64.12200	235.00000
64.14400	243.00000
64.16600	254.00000
64.18800	259.00000
64.21000	254.00000
64.23200	268.00000
64.25400	228.00000
64.27600	268.00000
64.29800	235.00000
64.32000	273.00000
64.34200	264.00000
64.36400	260.00000
64.38600	257.00000
64.40800	224.00000
64.43000	264.00000
64.45200	231.00000
64.47400	238.00000
64.49600	257.00000
64.51800	271.00000
64.54000	265.00000
64.56200	264.00000
64.58400	250.00000
64.60600	266.00000
64.62800	258.00000
64.65000	255.00000
64.67200	268.00000
64.69400	253.00000
64.71600	260.00000
64.73800	245.00000
64.76000	267.00000
64.78200	280.00000
64.80400	268.00000
64.82600	246.00000
64.84800	297.00000
64.87000	266.00000
64.89200	300.00000
64.91400	279.00000
64.93600	301.00000
64.95800	316.00000
64.98000	304.00000
65.00200	303.00000
65.02400	361.00000
65.04600	348.00000
65.06800	341.00000
65.09000	397.00000
65.11200	404.00000
65.13400	385.00000
65.15600	391.00000
65.17800	369.00000
65.20000	352.00000
65.22200	305.00000
65.24400	330.00000
65.26600	295.00000
65.28800	282.00000
65.31000	302.00000
65.33200	316.00000
65.35400	252.00000
65.37600	297.00000
65.39800	263.00000
65.42000	268.00000
65.44200	291.00000
65.46400	252.00000
65.48600	276.00000
65.50800	264.00000
65.53000	266.00000
65.55200	245.00000
65.57400	261.00000
65.59600	254.00000
65.61800	262.00000
65.64000	264.00000
65.66200	295.00000
65.68400	308.00000
65.70600	338.00000
65.72800	333.00000
65.75000	351.00000
65.77200	377.00000
65.79400	323.00000
65.81600	317.00000
65.83800	303.00000
65.86000	298.00000
65.88200	302.00000
65.90400	290.00000
65.92600	291.00000
65.94800	261.00000
65.97000	283.00000
65.99200	294.00000
66.01400	286.00000
66.03600	265.00000
66.05800	287.00000
66.08000	263.00000
66.10200	276.00000
66.12400	242.00000
66.14600	277.00000
66.16800	282.00000
66.19000	260.00000
66.21200	277.00000
66.23400	285.00000
66.25600	296.00000
66.27800	295.00000
66.30000	298.00000
66.32200	305.00000
66.34400	265.00000
66.36600	269.00000
66.38800	287.00000
66.41000	293.00000
66.43200	271.00000
66.45400	318.00000
66.47600	324.00000
66.49800	343.00000
66.52000	338.00000
66.54200	343.00000
66.56400	360.00000
66.58600	338.00000
66.60800	341.00000
66.63000	343.00000
66.65200	287.00000
66.67400	311.00000
66.69600	291.00000
66.71800	321.00000
66.74000	343.00000
66.76200	376.00000
66.78400	374.00000
66.80600	368.00000
66.82800	408.00000
66.85000	392.00000
66.87200	399.00000
66.89400	416.00000
66.91600	357.00000
66.93800	334.00000
66.96000	288.00000
66.98200	287.00000
67.00400	289.00000
67.02600	298.00000
67.04800	323.00000
67.07000	337.00000
67.09200	306.00000
67.11400	305.00000
67.13600	309.00000
67.15800	300.00000
67.18000	333.00000
67.20200	308.00000
67.22400	343.00000
67.24600	353.00000
67.26800	368.00000
67.29000	377.00000
67.31200	364.00000
67.33400	348.00000
67.35600	319.00000
67.37800	330.00000
67.40000	309.00000
67.42200	306.00000
67.44400	316.00000
67.46600	280.00000
67.48800	284.00000
67.51000	272.00000
67.53200	302.00000
67.55400	272.00000
67.57600	272.00000
67.59800	260.00000
67.62000	260.00000
67.64200	286.00000
67.66400	256.00000
67.68600	254.00000
67.70800	257.00000
67.73000	239.00000
67.75200	252.00000
67.77400	242.00000
67.79600	256.00000
67.81800	253.00000
67.84000	243.00000
67.86200	235.00000
67.88400	245.00000
67.90600	244.00000
67.92800	245.00000
67.95000	214.00000
67.97200	245.00000
67.99400	238.00000
68.01600	242.00000
68.03800	239.00000
68.06000	261.00000
68.08200	267.00000
68.10400	249.00000
68.12600	235.00000
68.14800	213.00000
68.17000	223.00000
68.19200	237.00000
68.21400	238.00000
68.23600	249.00000
68.25800	239.00000
68.28000	240.00000
68.30200	216.00000
68.32400	242.00000
68.34600	269.00000
68.36800	229.00000
68.39000	242.00000
68.41200	261.00000
68.43400	235.00000
68.45600	235.00000
68.47800	245.00000
68.50000	245.00000
68.52200	226.00000
68.54400	210.00000
68.56600	233.00000
68.58800	227.00000
68.61000	248.00000
68.63200	238.00000
68.65400	253.00000
68.67600	253.00000
68.69800	240.00000
68.72000	237.00000
68.74200	232.00000
68.76400	244.00000
68.78600	247.00000
68.80800	242.00000
68.83000	253.00000
68.85200	255.00000
68.87400	228.00000
68.89600	245.00000
68.91800	227.00000
68.94000	255.00000
68.96200	255.00000
68.98400	254.00000
69.00600	246.00000
69.02800	256.00000
69.05000	241.00000
69.07200	256.00000
69.09400	246.00000
69.11600	276.00000
69.13800	280.00000
69.16000	273.00000
69.18200	298.00000
69.20400	332.00000
69.22600	319.00000
69.24800	308.00000
69.27000	288.00000
69.29200	296.00000
69.31400	296.00000
69.33600	227.00000
69.35800	247.00000
69.38000	310.00000
69.40200	302.00000
69.42400	308.00000
69.44600	331.00000
69.46800	306.00000
69.49000	326.00000
69.51200	312.00000
69.53400	338.00000
69.55600	298.00000
69.57800	318.00000
69.60000	279.00000
69.62200	289.00000
69.64400	293.00000
69.66600	308.00000
69.68800	312.00000
69.71000	287.00000
69.73200	322.00000
69.75400	337.00000
69.77600	302.00000
69.79800	303.00000
69.82000	317.00000
69.84200	311.00000
69.86400	284.00000
69.88600	350.00000
69.90800	270.00000
69.93000	284.00000
69.95200	300.00000
69.97400	343.00000
69.99600	342.00000
70.01800	301.00000
70.04000	334.00000
70.06200	290.00000
70.08400	303.00000
70.10600	260.00000
70.12800	298.00000
70.15000	280.00000
70.17200	286.00000
70.19400	338.00000
70.21600	318.00000
70.23800	309.00000
70.26000	319.00000
70.28200	358.00000
70.30400	372.00000
70.32600	363.00000
70.34800	332.00000
70.37000	317.00000
70.39200	288.00000
70.41400	298.00000
70.43600	281.00000
70.45800	292.00000
70.48000	286.00000
70.50200	247.00000
70.52400	258.00000
70.54600	259.00000
70.56800	270.00000
70.59000	285.00000
70.61200	261.00000
70.63400	238.00000
70.65600	233.00000
70.67800	242.00000
70.70000	251.00000
70.72200	214.00000
70.74400	244.00000
70.76600	229.00000
70.78800	229.00000
70.81000	213.00000
70.83200	233.00000
70.85400	222.00000
70.87600	228.00000
70.89800	249.00000
70.92000	242.00000
70.94200	235.00000
70.96400	242.00000
70.98600	240.00000
71.00800	211.00000
71.03000	215.00000
71.05200	253.00000
71.07400	213.00000
71.09600	257.00000
71.11800	223.00000
71.14000	230.00000
71.16200	243.00000
71.18400	229.00000
71.20600	220.00000
71.22800	260.00000
71.25000	270.00000
71.27200	240.00000
71.29400	248.00000
71.31600	224.00000
71.33800	281.00000
71.36000	218.00000
71.38200	251.00000
71.40400	216.00000
71.42600	260.00000
71.44800	274.00000
71.47000	262.00000
71.49200	248.00000
71.51400	289.00000
71.53600	298.00000
71.55800	326.00000
71.58000	307.00000
71.60200	315.00000
71.62400	346.00000
71.64600	343.00000
71.66800	346.00000
71.69000	306.00000
71.71200	276.00000
71.73400	267.00000
71.75600	255.00000
71.77800	271.00000
71.80000	300.00000
71.82200	293.00000
71.84400	279.00000
71.86600	295.00000
71.88800	287.00000
71.91000	269.00000
71.93200	266.00000
71.95400	251.00000
71.97600	239.00000
71.99800	248.00000
72.02000	224.00000
72.04200	250.00000
72.06400	231.00000
72.08600	227.00000
72.10800	280.00000
72.13000	236.00000
72.15200	248.00000
72.17400	237.00000
72.19600	231.00000
72.21800	220.00000
72.24000	233.00000
72.26200	209.00000
72.28400	210.00000
72.30600	211.00000
72.32800	241.00000
72.35000	243.00000
72.37200	211.00000
72.39400	242.00000
72.41600	244.00000
72.43800	231.00000
72.46000	236.00000
72.48200	226.00000
72.50400	251.00000
72.52600	218.00000
72.54800	228.00000
72.57000	213.00000
72.59200	237.00000
72.61400	229.00000
72.63600	257.00000
72.65800	229.00000
72.68000	231.00000
72.70200	242.00000
72.72400	239.00000
72.74600	248.00000
72.76800	243.00000
72.79000	211.00000
72.81200	225.00000
72.83400	214.00000
72.85600	231.00000
72.87800	222.00000
72.90000	237.00000
72.92200	190.00000
72.94400	237.00000
72.96600	215.00000
72.98800	231.00000
73.01000	228.00000
73.03200	253.00000
73.05400	244.00000
73.07600	263.00000
73.09800	275.00000
73.12000	298.00000
73.14200	304.00000
73.16400	335.00000
73.18600	370.00000
73.20800	381.00000
73.23000	350.00000
73.25200	405.00000
73.27400	363.00000
73.29600	331.00000
73.31800	295.00000
73.34000	301.00000
73.36200	314.00000
73.38400	332.00000
73.40600	272.00000
73.42800	317.00000
73.45000	285.00000
73.47200	325.00000
73.49400	268.00000
73.51600	261.00000
73.53800	265.00000
73.56000	225.00000
73.58200	230.00000
73.60400	243.00000
73.62600	226.00000
73.64800	268.00000
73.67000	222.00000
73.69200	227.00000
73.71400	235.00000
73.73600	255.00000
73.75800	214.00000
73.78000	266.00000
73.80200	234.00000
73.82400	241.00000
73.84600	258.00000
73.86800	225.00000
73.89000	230.00000
73.91200	233.00000
73.93400	244.00000
73.95600	241.00000
73.97800	252.00000
74.00000	225.00000
74.02200	255.00000
74.04400	247.00000
74.06600	255.00000
74.08800	261.00000
74.11000	266.00000
74.13200	273.00000
74.15400	279.00000
74.17600	286.00000
74.19800	296.00000
74.22000	305.00000
74.24200	312.00000
74.26400	301.00000
74.28600	244.00000
74.30800	259.00000
74.33000	267.00000
74.35200	267.00000
74.37400	255.00000
74.39600	249.00000
74.41800	295.00000
74.44000	280.00000
74.46200	257.00000
74.48400	303.00000
74.50600	286.00000
74.52800	291.00000
74.55000	279.00000
74.57200	278.00000
74.59400	256.00000
74.61600	286.00000
74.63800	260.00000
74.66000	243.00000
74.68200	253.00000
74.70400	267.00000
74.72600	262.00000
74.74800	258.00000
74.77000	263.00000
74.79200	230.00000
74.81400	262.00000
74.83600	209.00000
74.85800	221.00000
74.88000	254.00000
74.90200	218.00000
74.92400	221.00000
74.94600	229.00000
74.96800	229.00000
74.99000	265.00000
75.01200	257.00000
75.03400	262.00000
75.05600	275.00000
75.07800	259.00000
75.10000	214.00000
75.12200	293.00000
75.14400	299.00000
75.16600	295.00000
75.18800	317.00000
75.21000	348.00000
75.23200	383.00000
75.25400	376.00000
75.27600	361.00000
75.29800	361.00000
75.32000	355.00000
75.34200	303.00000
75.36400	345.00000
75.38600	373.00000
75.40800	341.00000
75.43000	338.00000
75.45200	324.00000
75.47400	333.00000
75.49600	318.00000
75.51800	297.00000
75.54000	266.00000
75.56200	296.00000
75.58400	278.00000
75.60600	279.00000
75.62800	304.00000
75.65000	238.00000
75.67200	233.00000
75.69400	231.00000
75.71600	238.00000
75.73800	256.00000
75.76000	249.00000
75.78200	261.00000
75.80400	225.00000
75.82600	248.00000
75.84800	222.00000
75.87000	234.00000
75.89200	211.00000
75.91400	225.00000
75.93600	238.00000
75.95800	248.00000
75.98000	267.00000
76.00200	245.00000
76.02400	239.00000
76.04600	242.00000
76.06800	263.00000
76.09000	246.00000
76.11200	249.00000
76.13400	247.00000
76.15600	253.00000
76.17800	255.00000
76.20000	223.00000
76.22200	241.00000
76.24400	239.00000
76.26600	233.00000
76.28800	230.00000
76.31000	236.00000
76.33200	247.00000
76.35400	262.00000
76.37600	219.00000
76.39800	284.00000
76.42000	271.00000
76.44200	295.00000
76.46400	299.00000
76.48600	313.00000
76.50800	299.00000
76.53000	322.00000
76.55200	339.00000
76.57400	338.00000
76.59600	332.00000
76.61800	283.00000
76.64000	290.00000
76.66200	226.00000
76.68400	265.00000
76.70600	255.00000
76.72800	264.00000
76.75000	259.00000
76.77200	278.00000
76.79400	229.00000
76.81600	280.00000
76.83800	255.00000
76.86000	242.00000
76.88200	253.00000
76.90400	235.00000
76.92600	214.00000
76.94800	245.00000
76.97000	224.00000
76.99200	224.00000
77.01400	214.00000
77.03600	236.00000
77.05800	201.00000
77.08000	205.00000
77.10200	226.00000
77.12400	249.00000
77.14600	216.00000
77.16800	228.00000
77.19000	197.00000
77.21200	217.00000
77.23400	223.00000
77.25600	210.00000
77.27800	209.00000
77.30000	234.00000
77.32200	220.00000
77.34400	225.00000
77.36600	263.00000
77.38800	235.00000
77.41000	233.00000
77.43200	247.00000
77.45400	270.00000
77.47600	263.00000
77.49800	283.00000
77.52000	249.00000
77.54200	232.00000
77.56400	228.00000
77.58600	263.00000
77.60800	221.00000
77.63000	230.00000
77.65200	265.00000
77.67400	250.00000
77.69600	253.00000
77.71800	278.00000
77.74000	270.00000
77.76200	264.00000
77.78400	263.00000
77.80600	263.00000
77.82800	268.00000
77.85000	281.00000
77.87200	309.00000
77.89400	292.00000
77.91600	283.00000
77.93800	247.00000
77.96000	261.00000
77.98200	258.00000
78.00400	275.00000
78.02600	262.00000
78.04800	236.00000
78.07000	239.00000
78.09200	244.00000
78.11400	250.00000
78.13600	242.00000
78.15800	220.00000
78.18000	231.00000
78.20200	251.00000
78.22400	220.00000
78.24600	221.00000
78.26800	232.00000
78.29000	223.00000
78.31200	225.00000
78.33400	214.00000
78.35600	201.00000
78.37800	241.00000
78.40000	208.00000
78.42200	232.00000
78.44400	235.00000
78.46600	216.00000
78.48800	226.00000
78.51000	218.00000
78.53200	239.00000
78.55400	233.00000
78.57600	236.00000
78.59800	208.00000
78.62000	236.00000
78.64200	233.00000
78.66400	238.00000
78.68600	259.00000
78.70800	224.00000
78.73000	240.00000
78.75200	229.00000
78.77400	244.00000
78.79600	266.00000
78.81800	248.00000
78.84000	288.00000
78.86200	295.00000
78.88400	325.00000
78.90600	315.00000
78.92800	311.00000
78.95000	293.00000
78.97200	257.00000
78.99400	249.00000
79.01600	271.00000
79.03800	260.00000
79.06000	241.00000
79.08200	284.00000
79.10400	290.00000
79.12600	263.00000
79.14800	293.00000
79.17000	297.00000
79.19200	265.00000
79.21400	248.00000
79.23600	237.00000
79.25800	244.00000
79.28000	281.00000
79.30200	268.00000
79.32400	281.00000
79.34600	248.00000
79.36800	226.00000
79.39000	216.00000
79.41200	226.00000
79.43400	206.00000
79.45600	214.00000
79.47800	216.00000
79.50000	210.00000
79.52200	221.00000
79.54400	233.00000
79.56600	255.00000
79.58800	227.00000
79.61000	223.00000
79.63200	236.00000
79.65400	240.00000
79.67600	232.00000
79.69800	234.00000
79.72000	230.00000
79.74200	193.00000
79.76400	228.00000
79.78600	249.00000
79.80800	249.00000
79.83000	212.00000
79.85200	220.00000
79.87400	183.00000
79.89600	240.00000
79.91800	199.00000
79.94000	204.00000
79.96200	215.00000
79.98400	193.00000
80.00600	238.00000
80.02800	234.00000
80.05000	228.00000
80.07200	234.00000
80.09400	223.00000
80.11600	210.00000
80.13800	264.00000
80.16000	194.00000
80.18200	203.00000
80.20400	233.00000
80.22600	199.00000
80.24800	195.00000
80.27000	239.00000
80.29200	216.00000
80.31400	239.00000
80.33600	244.00000
80.35800	232.00000
80.38000	218.00000
80.40200	227.00000
80.42400	247.00000
80.44600	213.00000
80.46800	241.00000
80.49000	219.00000
80.51200	260.00000
80.53400	234.00000
80.55600	213.00000
80.57800	208.00000
80.60000	229.00000
80.62200	235.00000
80.64400	221.00000
80.66600	227.00000
80.68800	252.00000
80.71000	235.00000
80.73200	228.00000
80.75400	217.00000
80.77600	207.00000
80.79800	223.00000
80.82000	214.00000
80.84200	231.00000
80.86400	243.00000
80.88600	248.00000
80.90800	263.00000
80.93000	270.00000
80.95200	314.00000
80.97400	280.00000
80.99600	311.00000
81.01800	304.00000
81.04000	296.00000
81.06200	296.00000
81.08400	288.00000
81.10600	289.00000
81.12800	280.00000
81.15000	288.00000
81.17200	253.00000
81.19400	276.00000
81.21600	253.00000
81.23800	256.00000
81.26000	251.00000
81.28200	236.00000
81.30400	235.00000
81.32600	270.00000
81.34800	225.00000
81.37000	253.00000
81.39200	251.00000
81.41400	269.00000
81.43600	274.00000
81.45800	260.00000
81.48000	268.00000
81.50200	239.00000
81.52400	244.00000
81.54600	264.00000
81.56800	263.00000
81.59000	258.00000
81.61200	263.00000
81.63400	238.00000
81.65600	232.00000
81.67800	283.00000
81.70000	286.00000
81.72200	276.00000
81.74400	220.00000
81.76600	248.00000
81.78800	235.00000
81.81000	255.00000
81.83200	264.00000
81.85400	242.00000
81.87600	204.00000
81.89800	220.00000
81.92000	236.00000
81.94200	232.00000
81.96400	226.00000
81.98600	243.00000
82.00800	252.00000
82.03000	194.00000
82.05200	212.00000
82.07400	219.00000
82.09600	207.00000
82.11800	239.00000
82.14000	208.00000
82.16200	229.00000
82.18400	213.00000
82.20600	217.00000
82.22800	236.00000
82.25000	226.00000
82.27200	221.00000
82.29400	235.00000
82.31600	217.00000
82.33800	222.00000
82.36000	206.00000
82.38200	224.00000
82.40400	228.00000
82.42600	222.00000
82.44800	236.00000
82.47000	246.00000
82.49200	233.00000
82.51400	258.00000
82.53600	234.00000
82.55800	232.00000
82.58000	238.00000
82.60200	215.00000
82.62400	212.00000
82.64600	202.00000
82.66800	237.00000
82.69000	243.00000
82.71200	235.00000
82.73400	260.00000
82.75600	228.00000
82.77800	242.00000
82.80000	201.00000
82.82200	212.00000
82.84400	191.00000
82.86600	227.00000
82.88800	202.00000
82.91000	226.00000
82.93200	198.00000
82.95400	206.00000
82.97600	227.00000
82.99800	213.00000
83.02000	217.00000
83.04200	220.00000
83.06400	256.00000
83.08600	239.00000
83.10800	261.00000
83.13000	248.00000
83.15200	267.00000
83.17400	274.00000
83.19600	271.00000
83.21800	272.00000
83.24000	302.00000
83.26200	290.00000
83.28400	292.00000
83.30600	285.00000
83.32800	268.00000
83.35000	289.00000
83.37200	270.00000
83.39400	273.00000
83.41600	280.00000
83.43800	258.00000
83.46000	294.00000
83.48200	249.00000
83.50400	270.00000
83.52600	258.00000
83.54800	253.00000
83.57000	269.00000
83.59200	293.00000
83.61400	260.00000
83.63600	281.00000
83.65800	242.00000
83.68000	255.00000
83.70200	242.00000
83.72400	218.00000
83.74600	210.00000
83.76800	242.00000
83.79000	229.00000
83.81200	261.00000
83.83400	290.00000
83.85600	309.00000
83.87800	299.00000
83.90000	320.00000
83.92200	360.00000
83.94400	325.00000
83.96600	296.00000
83.98800	264.00000
84.01000	272.00000
84.03200	222.00000
84.05400	228.00000
84.07600	257.00000
84.09800	251.00000
84.12000	274.00000
84.14200	261.00000
84.16400	240.00000
84.18600	276.00000
84.20800	262.00000
84.23000	264.00000
84.25200	240.00000
84.27400	255.00000
84.29600	241.00000
84.31800	221.00000
84.34000	201.00000
84.36200	224.00000
84.38400	220.00000
84.40600	233.00000
84.42800	234.00000
84.45000	232.00000
84.47200	232.00000
84.49400	234.00000
84.51600	229.00000
84.53800	239.00000
84.56000	244.00000
84.58200	249.00000
84.60400	219.00000
84.62600	217.00000
84.64800	230.00000
84.67000	227.00000
84.69200	236.00000
84.71400	242.00000
84.73600	217.00000
84.75800	199.00000
84.78000	216.00000
84.80200	200.00000
84.82400	224.00000
84.84600	224.00000
84.86800	244.00000
84.89000	220.00000
84.91200	206.00000
84.93400	226.00000
84.95600	233.00000
84.97800	229.00000
85.00000	251.00000
85.02200	230.00000
85.04400	251.00000
85.06600	262.00000
85.08800	256.00000
85.11000	271.00000
85.13200	255.00000
85.15400	263.00000
85.17600	238.00000
85.19800	233.00000
85.22000	228.00000
85.24200	216.00000
85.26400	238.00000
85.28600	249.00000
85.30800	235.00000
85.33000	226.00000
85.35200	237.00000
85.37400	224.00000
85.39600	229.00000
85.41800	237.00000
85.44000	200.00000
85.46200	235.00000
85.48400	214.00000
85.50600	199.00000
85.52800	250.00000
85.55000	190.00000
85.57200	235.00000
85.59400	212.00000
85.61600	221.00000
85.63800	214.00000
85.66000	226.00000
85.68200	241.00000
85.70400	249.00000
85.72600	235.00000
85.74800	257.00000
85.77000	251.00000
85.79200	256.00000
85.81400	279.00000
85.83600	240.00000
85.85800	221.00000
85.88000	215.00000
85.90200	235.00000
85.92400	222.00000
85.94600	232.00000
85.96800	227.00000
85.99000	268.00000
86.01200	233.00000
86.03400	224.00000
86.05600	231.00000
86.07800	263.00000
86.10000	214.00000
86.12200	189.00000
86.14400	221.00000
86.16600	226.00000
86.18800	223.00000
86.21000	224.00000
86.23200	246.00000
86.25400	222.00000
86.27600	221.00000
86.29800	221.00000
86.32000	209.00000
86.34200	227.00000
86.36400	215.00000
86.38600	217.00000
86.40800	217.00000
86.43000	210.00000
86.45200	234.00000
86.47400	213.00000
86.49600	239.00000
86.51800	221.00000
86.54000	256.00000
86.56200	215.00000
86.58400	230.00000
86.60600	250.00000
86.62800	245.00000
86.65000	239.00000
86.67200	233.00000
86.69400	230.00000
86.71600	213.00000
86.73800	214.00000
86.76000	216.00000
86.78200	249.00000
86.80400	218.00000
86.82600	238.00000
86.84800	218.00000
86.87000	207.00000
86.89200	272.00000
86.91400	267.00000
86.93600	267.00000
86.95800	243.00000
86.98000	246.00000
87.00200	230.00000
87.02400	223.00000
87.04600	226.00000
87.06800	238.00000
87.09000	207.00000
87.11200	227.00000
87.13400	224.00000
87.15600	259.00000
87.17800	225.00000
87.20000	227.00000
87.22200	241.00000
87.24400	214.00000
87.26600	228.00000
87.28800	227.00000
87.31000	212.00000
87.33200	250.00000
87.35400	208.00000
87.37600	215.00000
87.39800	223.00000
87.42000	248.00000
87.44200	229.00000
87.46400	210.00000
87.48600	206.00000
87.50800	229.00000
87.53000	222.00000
87.55200	221.00000
87.57400	232.00000
87.59600	249.00000
87.61800	244.00000
87.64000	231.00000
87.66200	284.00000
87.68400	287.00000
87.70600	258.00000
87.72800	272.00000
87.75000	341.00000
87.77200	240.00000
87.79400	271.00000
87.81600	225.00000
87.83800	271.00000
87.86000	282.00000
87.88200	260.00000
87.90400	211.00000
87.92600	231.00000
87.94800	220.00000
87.97000	222.00000
87.99200	269.00000
88.01400	257.00000
88.03600	250.00000
88.05800	257.00000
88.08000	238.00000
88.10200	220.00000
88.12400	209.00000
88.14600	226.00000
88.16800	209.00000
88.19000	199.00000
88.21200	233.00000
88.23400	257.00000
88.25600	195.00000
88.27800	220.00000
88.30000	190.00000
88.32200	227.00000
88.34400	229.00000
88.36600	224.00000
88.38800	226.00000
88.41000	219.00000
88.43200	232.00000
88.45400	239.00000
88.47600	225.00000
88.49800	245.00000
88.52000	223.00000
88.54200	214.00000
88.56400	230.00000
88.58600	202.00000
88.60800	205.00000
88.63000	230.00000
88.65200	236.00000
88.67400	229.00000
88.69600	218.00000
88.71800	221.00000
88.74000	232.00000
88.76200	245.00000
88.78400	243.00000
88.80600	243.00000
88.82800	235.00000
88.85000	218.00000
88.87200	250.00000
88.89400	217.00000
88.91600	239.00000
88.93800	224.00000
88.96000	255.00000
88.98200	267.00000
89.00400	229.00000
89.02600	253.00000
89.04800	273.00000
89.07000	236.00000
89.09200	289.00000
89.11400	243.00000
89.13600	227.00000
89.15800	268.00000
89.18000	281.00000
89.20200	280.00000
89.22400	285.00000
89.24600	273.00000
89.26800	246.00000
89.29000	282.00000
89.31200	283.00000
89.33400	291.00000
89.35600	271.00000
89.37800	253.00000
89.40000	261.00000
89.42200	241.00000
89.44400	252.00000
89.46600	251.00000
89.48800	229.00000
89.51000	252.00000
89.53200	260.00000
89.55400	265.00000
89.57600	270.00000
89.59800	239.00000
89.62000	217.00000
89.64200	267.00000
89.66400	236.00000
89.68600	229.00000
89.70800	262.00000
89.73000	269.00000
89.75200	272.00000
89.77400	243.00000
89.79600	253.00000
89.81800	260.00000
89.84000	253.00000
89.86200	264.00000
89.88400	271.00000
89.90600	258.00000
89.92800	268.00000
89.95000	266.00000
89.97200	213.00000
89.99400	259.00000
