7.01130	189.80000
7.02140	185.34000
7.03160	185.66000
7.04170	183.64000
7.05190	187.67000
7.06200	182.70000
7.07220	186.06000
7.08230	186.77000
7.09250	185.30000
7.10260	189.92000
7.11280	189.88000
7.12290	187.89000
7.13310	185.45000
7.14320	185.53000
7.15340	185.86000
7.16350	184.95000
7.17370	184.98000
7.18380	188.03000
7.19400	185.70000
7.20410	187.28000
7.21430	185.97000
7.22440	185.67000
7.23460	184.06000
7.24470	182.86000
7.25490	185.27000
7.26500	185.17000
7.27520	183.95000
7.28530	184.30000
7.29550	187.30000
7.30560	187.52000
7.31580	186.02000
7.32590	185.48000
7.33610	185.12000
7.34620	184.31000
7.35640	182.70000
7.36650	184.31000
7.37670	183.00000
7.38680	184.84000
7.39700	183.33000
7.40710	181.78000
7.41730	182.66000
7.42740	186.95000
7.43760	184.59000
7.44770	183.23000
7.45790	183.70000
7.46800	183.78000
7.47820	186.02000
7.48830	183.27000
7.49850	186.84000
7.50860	186.56000
7.51880	181.83000
7.52890	182.89000
7.53910	182.53000
7.54920	182.69000
7.55940	180.23000
7.56950	187.89000
7.57970	183.11000
7.58980	185.23000
7.60000	184.69000
7.61010	185.22000
7.62030	182.48000
7.63040	183.89000
7.64060	181.45000
7.65070	182.70000
7.66090	182.73000
7.67100	182.36000
7.68120	181.86000
7.69130	179.50000
7.70150	182.67000
7.71160	181.53000
7.72180	185.88000
7.73190	180.41000
7.74210	182.50000
7.75220	183.03000
7.76240	183.06000
7.77250	181.23000
7.78270	185.77000
7.79280	178.80000
7.80300	180.55000
7.81310	182.31000
7.82330	180.28000
7.83340	183.52000
7.84360	183.42000
7.85370	179.94000
7.86390	181.02000
7.87400	182.48000
7.88420	183.05000
7.89430	181.23000
7.90450	182.53000
7.91460	182.58000
7.92480	180.45000
7.93490	183.77000
7.94510	181.36000
7.95520	183.39000
7.96540	183.53000
7.97550	183.72000
7.98570	180.58000
7.99590	183.78000
8.00600	181.58000
8.01620	181.66000
8.02630	182.52000
8.03650	182.53000
8.04660	184.30000
8.05680	184.19000
8.06690	184.56000
8.07710	182.97000
8.08720	183.59000
8.09740	182.53000
8.10750	183.75000
8.11770	178.94000
8.12780	180.95000
8.13790	181.56000
8.14810	180.64000
8.15830	181.34000
8.16840	177.62000
8.17860	177.94000
8.18870	180.47000
8.19890	178.83000
8.20900	181.66000
8.21920	179.72000
8.22930	178.95000
8.23950	180.38000
8.24960	178.28000
8.25980	179.25000
8.26990	179.33000
8.28010	179.34000
8.29020	178.66000
8.30040	176.83000
8.31050	181.48000
8.32070	177.19000
8.33080	176.83000
8.34100	179.30000
8.35110	179.53000
8.36130	180.48000
8.37140	181.08000
8.38160	178.58000
8.39170	177.81000
8.40190	179.42000
8.41200	177.72000
8.42220	179.00000
8.43230	177.72000
8.44250	179.23000
8.45260	180.73000
8.46280	177.98000
8.47290	178.27000
8.48310	178.59000
8.49320	177.47000
8.50340	179.41000
8.51350	176.20000
8.52370	180.36000
8.53380	175.53000
8.54400	177.62000
8.55410	179.83000
8.56430	178.56000
8.57440	177.55000
8.58460	180.20000
8.59470	180.36000
8.60490	179.62000
8.61500	178.69000
8.62520	179.66000
8.63530	181.62000
8.64550	182.56000
8.65560	181.80000
8.66580	179.23000
8.67590	184.78000
8.68610	184.05000
8.69620	183.30000
8.70640	187.33000
8.71650	186.84000
8.72670	185.00000
8.73680	187.11000
8.74700	188.58000
8.75710	187.59000
8.76730	187.52000
8.77740	188.83000
8.78760	188.06000
8.79770	193.19000
8.80790	198.48000
8.81800	197.53000
8.82820	200.09000
8.83830	203.83000
8.84850	210.20000
8.85860	218.73000
8.86880	224.95000
8.87890	237.52000
8.88910	248.58000
8.89920	258.00000
8.90940	258.27000
8.91950	259.80000
8.92970	246.16000
8.93980	233.80000
8.95000	218.20000
8.96010	200.70000
8.97030	194.64000
8.98040	186.47000
8.99060	181.31000
9.00070	179.28000
9.01090	177.67000
9.02100	179.28000
9.03120	177.72000
9.04130	177.97000
9.05150	176.12000
9.06160	182.64000
9.07180	180.05000
9.08190	177.95000
9.09210	179.62000
9.10220	178.69000
9.11240	182.44000
9.12250	178.75000
9.13270	181.33000
9.14280	181.64000
9.15300	182.33000
9.16310	183.78000
9.17330	185.92000
9.18340	186.41000
9.19360	188.25000
9.20370	190.41000
9.21390	195.34000
9.22400	192.86000
9.23420	197.94000
9.24430	205.52000
9.25450	207.19000
9.26460	213.97000
9.27480	222.56000
9.28490	228.61000
9.29510	233.33000
9.30520	243.03000
9.31540	243.47000
9.32550	243.20000
9.33570	240.41000
9.34580	227.11000
9.35600	211.28000
9.36610	202.56000
9.37630	195.12000
9.38640	185.03000
9.39660	176.41000
9.40670	175.45000
9.41690	177.16000
9.42700	175.28000
9.43720	176.20000
9.44730	173.20000
9.45750	174.61000
9.46760	169.86000
9.47780	173.98000
9.48790	172.77000
9.49810	170.23000
9.50820	170.78000
9.51840	172.75000
9.52850	171.33000
9.53870	173.92000
9.54880	173.84000
9.55900	173.48000
9.56910	172.67000
9.57930	174.25000
9.58940	172.86000
9.59960	172.75000
9.60970	169.34000
9.61990	170.38000
9.63000	169.84000
9.64020	171.09000
9.65030	172.70000
9.66050	173.44000
9.67060	171.86000
9.68080	174.50000
9.69090	172.83000
9.70110	175.88000
9.71120	172.08000
9.72140	172.69000
9.73150	175.28000
9.74170	175.05000
9.75180	175.42000
9.76200	174.78000
9.77210	174.98000
9.78230	175.11000
9.79240	174.70000
9.80260	175.91000
9.81270	172.78000
9.82290	173.69000
9.83300	177.80000
9.84320	180.88000
9.85330	180.50000
9.86350	183.23000
9.87360	183.06000
9.88380	184.05000
9.89390	187.50000
9.90410	191.55000
9.91420	194.47000
9.92440	196.36000
9.93450	196.77000
9.94470	203.31000
9.95480	209.19000
9.96500	213.80000
9.97510	223.52000
9.98530	233.27000
9.99540	243.95000
10.00560	261.00000
10.01570	278.16000
10.02590	293.45000
10.03600	319.16000
10.04620	328.78000
10.05630	337.16000
10.06650	328.39000
10.07660	304.95000
10.08680	273.56000
10.09690	240.17000
10.10710	217.36000
10.11720	201.47000
10.12740	185.78000
10.13750	179.61000
10.14770	177.30000
10.15780	177.52000
10.16800	173.88000
10.17810	172.75000
10.18830	173.12000
10.19840	174.61000
10.20860	171.17000
10.21870	171.59000
10.22890	172.30000
10.23900	170.73000
10.24920	172.69000
10.25930	170.38000
10.26950	170.02000
10.27960	171.67000
10.28980	169.39000
10.29990	170.48000
10.31010	169.80000
10.32020	165.92000
10.33040	170.02000
10.34050	169.77000
10.35070	169.89000
10.36080	167.53000
10.37100	167.55000
10.38110	171.62000
10.39130	169.53000
10.40140	171.34000
10.41160	169.34000
10.42170	171.17000
10.43190	169.42000
10.44200	171.80000
10.45220	168.62000
10.46230	168.84000
10.47250	171.78000
10.48260	168.45000
10.49280	168.28000
10.50290	171.00000
10.51310	172.02000
10.52320	171.58000
10.53340	169.17000
10.54350	166.81000
10.55370	166.89000
10.56380	169.42000
10.57400	171.00000
10.58410	171.47000
10.59430	171.14000
10.60440	171.59000
10.61460	174.53000
10.62470	175.83000
10.63490	174.48000
10.64500	175.31000
10.65520	176.52000
10.66530	178.78000
10.67550	180.81000
10.68560	181.94000
10.69580	186.59000
10.70590	192.00000
10.71610	196.91000
10.72620	197.66000
10.73640	203.83000
10.74650	212.08000
10.75670	221.36000
10.76680	233.64000
10.77700	246.55000
10.78710	267.09000
10.79730	281.80000
10.80740	305.36000
10.81760	314.67000
10.82770	327.98000
10.83790	320.42000
10.84800	305.44000
10.85820	282.34000
10.86830	254.50000
10.87850	226.48000
10.88860	203.94000
10.89880	190.83000
10.90890	179.64000
10.91910	174.02000
10.92920	168.62000
10.93940	167.97000
10.94950	169.06000
10.95970	168.69000
10.96980	169.62000
10.98000	168.38000
10.99010	169.28000
11.00030	170.88000
11.01040	165.53000
11.02060	171.44000
11.03070	167.17000
11.04090	165.80000
11.05100	167.14000
11.06120	166.86000
11.07130	166.84000
11.08150	164.77000
11.09160	166.30000
11.10180	165.38000
11.11190	166.11000
11.12210	163.47000
11.13220	168.98000
11.14240	167.78000
11.15250	163.84000
11.16270	166.62000
11.17280	164.53000
11.18300	165.52000
11.19310	166.41000
11.20330	166.58000
11.21340	163.03000
11.22360	165.30000
11.23370	165.00000
11.24390	165.53000
11.25400	162.77000
11.26420	165.17000
11.27430	167.00000
11.28450	166.92000
11.29460	165.03000
11.30480	162.81000
11.31490	167.97000
11.32510	166.72000
11.33520	164.94000
11.34540	165.61000
11.35550	166.20000
11.36570	162.34000
11.37580	165.56000
11.38600	166.30000
11.39610	163.97000
11.40630	164.47000
11.41640	165.19000
11.42660	163.06000
11.43670	166.33000
11.44690	162.42000
11.45700	165.59000
11.46720	164.44000
11.47730	164.23000
11.48750	164.00000
11.49760	165.39000
11.50780	164.06000
11.51790	161.98000
11.52810	166.09000
11.53820	168.39000
11.54840	166.11000
11.55850	167.28000
11.56870	166.67000
11.57880	166.66000
11.58900	169.16000
11.59910	168.16000
11.60930	169.56000
11.61940	168.52000
11.62960	169.55000
11.63970	170.42000
11.64990	172.95000
11.66000	178.61000
11.67020	178.58000
11.68030	179.84000
11.69050	185.72000
11.70060	192.38000
11.71080	197.81000
11.72090	199.44000
11.73110	198.12000
11.74120	197.11000
11.75140	196.58000
11.76150	190.95000
11.77170	185.12000
11.78180	179.31000
11.79200	174.12000
11.80210	169.56000
11.81230	168.62000
11.82240	165.12000
11.83260	164.69000
11.84270	163.75000
11.85290	160.45000
11.86300	165.58000
11.87320	159.11000
11.88330	163.30000
11.89350	162.47000
11.90360	162.95000
11.91380	163.52000
11.92390	164.70000
11.93410	165.72000
11.94420	163.11000
11.95440	163.03000
11.96450	163.02000
11.97470	164.33000
11.98480	161.66000
11.99500	162.42000
12.00510	162.25000
12.01530	160.08000
12.02540	161.36000
12.03560	163.73000
12.04570	159.78000
12.05590	161.28000
12.06600	161.75000
12.07620	162.22000
12.08630	163.38000
12.09650	162.19000
12.10660	163.73000
12.11680	161.50000
12.12690	161.16000
12.13710	160.48000
12.14720	162.95000
12.15740	160.52000
12.16750	160.47000
12.17770	162.31000
12.18780	161.98000
12.19800	160.48000
12.20810	159.20000
12.21830	161.03000
12.22840	162.91000
12.23860	161.28000
12.24870	163.25000
12.25890	159.88000
12.26900	159.22000
12.27920	161.97000
12.28930	160.33000
12.29950	161.52000
12.30960	159.12000
12.31980	160.86000
12.32990	164.20000
12.34010	159.19000
12.35020	159.45000
12.36040	163.56000
12.37050	159.59000
12.38070	161.00000
12.39080	161.97000
12.40100	160.20000
12.41110	160.52000
12.42130	159.52000
12.43140	159.89000
12.44160	161.64000
12.45170	163.19000
12.46190	157.34000
12.47200	159.53000
12.48220	161.53000
12.49230	162.62000
12.50250	163.39000
12.51260	162.16000
12.52280	161.38000
12.53290	159.73000
12.54310	158.31000
12.55320	162.42000
12.56340	164.08000
12.57350	160.66000
12.58370	163.73000
12.59380	161.95000
12.60400	161.42000
12.61410	163.72000
12.62430	163.53000
12.63440	162.41000
12.64460	157.33000
12.65470	163.06000
12.66490	162.86000
12.67500	159.83000
12.68520	161.48000
12.69530	159.80000
12.70550	162.12000
12.71560	160.73000
12.72580	159.70000
12.73590	161.42000
12.74610	159.95000
12.75620	158.66000
12.76640	158.77000
12.77650	160.59000
12.78670	160.41000
12.79680	158.77000
12.80700	159.05000
12.81710	164.55000
12.82730	160.89000
12.83740	162.20000
12.84760	162.61000
12.85770	160.31000
12.86790	162.02000
12.87800	161.97000
12.88820	161.81000
12.89830	159.27000
12.90850	160.88000
12.91860	159.48000
12.92880	161.38000
12.93890	166.55000
12.94910	163.23000
12.95920	163.72000
12.96940	162.59000
12.97950	165.36000
12.98970	164.41000
12.99980	166.69000
13.01000	165.47000
13.02010	168.06000
13.03030	170.14000
13.04040	171.77000
13.05060	175.20000
13.06070	182.66000
13.07090	182.50000
13.08100	190.14000
13.09120	198.08000
13.10130	206.70000
13.11150	213.52000
13.12160	231.25000
13.13180	235.42000
13.14190	241.17000
13.15210	247.92000
13.16220	242.80000
13.17240	233.02000
13.18250	225.05000
13.19270	211.53000
13.20280	198.14000
13.21300	186.97000
13.22310	174.59000
13.23330	170.94000
13.24340	166.16000
13.25360	164.77000
13.26370	160.39000
13.27390	161.80000
13.28400	158.59000
13.29420	160.91000
13.30430	157.45000
13.31450	158.31000
13.32460	159.59000
13.33480	161.30000
13.34490	159.42000
13.35510	159.02000
13.36520	160.00000
13.37540	157.47000
13.38550	158.88000
13.39570	160.91000
13.40580	159.50000
13.41600	157.56000
13.42610	160.33000
13.43630	155.45000
13.44640	160.73000
13.45660	160.17000
13.46670	158.16000
13.47690	155.59000
13.48700	154.72000
13.49720	156.95000
13.50730	158.38000
13.51750	158.66000
13.52760	160.41000
13.53780	159.58000
13.54790	156.75000
13.55810	159.30000
13.56820	157.89000
13.57840	157.30000
13.58850	159.25000
13.59870	157.19000
13.60880	156.41000
13.61900	157.47000
13.62910	157.92000
13.63930	160.91000
13.64940	152.89000
13.65960	158.78000
13.66970	159.22000
13.67990	158.17000
13.69000	161.56000
13.70020	161.11000
13.71030	156.33000
13.72050	160.30000
13.73060	159.59000
13.74080	159.86000
13.75090	162.00000
13.76110	160.91000
13.77120	160.00000
13.78140	163.69000
13.79150	159.53000
13.80170	165.47000
13.81180	166.81000
13.82200	168.45000
13.83210	170.11000
13.84230	175.30000
13.85240	180.86000
13.86260	179.06000
13.87270	186.38000
13.88290	196.77000
13.89300	203.86000
13.90320	217.59000
13.91330	230.14000
13.92350	252.11000
13.93360	272.55000
13.94380	298.70000
13.95390	325.77000
13.96410	349.62000
13.97420	379.28000
13.98440	392.94000
13.99450	397.45000
14.00470	388.59000
14.01480	360.95000
14.02500	333.02000
14.03510	298.02000
14.04530	262.30000
14.05540	231.89000
14.06560	207.20000
14.07570	191.86000
14.08590	178.17000
14.09600	170.16000
14.10620	167.53000
14.11630	167.98000
14.12650	166.27000
14.13660	165.88000
14.14680	165.41000
14.15690	167.06000
14.16710	170.41000
14.17720	174.31000
14.18740	173.52000
14.19750	174.89000
14.20770	180.73000
14.21780	187.64000
14.22800	195.23000
14.23810	202.88000
14.24830	211.78000
14.25840	223.86000
14.26860	232.53000
14.27870	246.16000
14.28890	245.97000
14.29900	244.28000
14.30920	232.31000
14.31930	217.89000
14.32950	204.53000
14.33960	194.17000
14.34980	179.47000
14.35990	174.28000
14.37010	167.17000
14.38020	159.98000
14.39040	160.66000
14.40050	157.84000
14.41070	156.45000
14.42080	157.58000
14.43100	155.19000
14.44110	156.47000
14.45130	154.98000
14.46140	156.03000
14.47160	154.23000
14.48170	155.73000
14.49190	155.33000
14.50200	154.52000
14.51220	155.95000
14.52230	157.20000
14.53250	156.28000
14.54260	156.30000
14.55280	158.45000
14.56290	155.30000
14.57310	155.31000
14.58320	157.05000
14.59340	156.05000
14.60350	156.77000
14.61370	158.50000
14.62380	156.53000
14.63400	157.67000
14.64410	156.00000
14.65430	158.91000
14.66440	157.50000
14.67460	155.83000
14.68470	154.73000
14.69490	156.94000
14.70500	154.89000
14.71520	154.50000
14.72530	153.69000
14.73550	155.64000
14.74560	156.23000
14.75580	152.67000
14.76590	156.30000
14.77610	153.22000
14.78620	154.12000
14.79640	157.75000
14.80650	157.80000
14.81670	155.83000
14.82680	153.64000
14.83700	154.31000
14.84710	154.42000
14.85730	152.89000
14.86740	155.81000
14.87760	153.81000
14.88770	155.28000
14.89790	155.58000
14.90800	156.31000
14.91820	155.12000
14.92830	153.25000
14.93850	157.83000
14.94860	157.95000
14.95880	154.23000
14.96890	154.11000
14.97910	154.75000
14.98920	152.70000
14.99940	155.77000
15.00950	155.55000
15.01970	155.97000
15.02980	154.16000
15.04000	155.89000
15.05010	154.09000
15.06030	155.31000
15.07040	152.50000
15.08060	153.38000
15.09070	154.00000
15.10090	158.42000
15.11100	153.00000
15.12120	152.02000
15.13130	152.94000
15.14150	155.70000
15.15160	155.52000
15.16180	152.64000
15.17190	153.47000
15.18210	156.02000
15.19220	153.59000
15.20240	152.22000
15.21250	157.52000
15.22270	155.38000
15.23280	153.59000
15.24300	156.91000
15.25310	156.20000
15.26330	153.64000
15.27340	158.77000
15.28360	157.97000
15.29370	156.53000
15.30390	158.19000
15.31400	157.98000
15.32420	160.92000
15.33430	160.84000
15.34450	163.16000
15.35460	162.53000
15.36480	168.03000
15.37490	170.42000
15.38510	177.30000
15.39520	182.53000
15.40540	186.58000
15.41550	190.36000
15.42570	195.19000
15.43580	193.39000
15.44600	190.09000
15.45610	190.11000
15.46630	186.95000
15.47640	181.72000
15.48660	178.56000
15.49670	175.50000
15.50690	172.12000
15.51700	173.94000
15.52720	174.47000
15.53730	174.75000
15.54750	181.72000
15.55760	182.64000
15.56780	180.14000
15.57790	182.03000
15.58810	177.45000
15.59820	178.78000
15.60840	173.58000
15.61850	173.05000
15.62870	172.00000
15.63880	171.22000
15.64900	169.88000
15.65910	169.97000
15.66930	170.83000
15.67940	176.14000
15.68960	181.20000
15.69970	186.23000
15.70990	189.59000
15.72000	192.08000
15.73020	193.97000
15.74030	191.19000
15.75050	186.05000
15.76060	181.94000
15.77080	179.61000
15.78090	174.91000
15.79110	171.39000
15.80120	165.41000
15.81140	163.11000
15.82150	161.17000
15.83170	161.41000
15.84180	156.38000
15.85200	161.12000
15.86210	156.36000
15.87230	158.70000
15.88240	156.56000
15.89260	158.09000
15.90270	160.28000
15.91290	157.77000
15.92300	156.81000
15.93320	157.91000
15.94330	162.56000
15.95350	158.39000
15.96360	159.38000
15.97380	161.84000
15.98390	161.30000
15.99410	163.64000
16.00420	162.73000
16.01440	165.45000
16.02450	168.36000
16.03470	172.52000
16.04480	176.42000
16.05500	177.61000
16.06510	183.30000
16.07530	192.94000
16.08540	198.19000
16.09560	214.50000
16.10570	229.78000
16.11590	249.52000
16.12600	279.11000
16.13620	310.22000
16.14630	352.81000
16.15650	416.59000
16.16660	478.17000
16.17680	558.30000
16.18690	651.03000
16.19710	722.47000
16.20720	788.80000
16.21740	808.20000
16.22750	783.67000
16.23770	716.53000
16.24780	633.33000
16.25800	538.91000
16.26810	449.45000
16.27830	371.53000
16.28840	298.66000
16.29860	247.19000
16.30870	210.84000
16.31890	187.69000
16.32900	175.94000
16.33920	168.97000
16.34930	166.92000
16.35950	162.78000
16.36960	159.19000
16.37980	160.41000
16.38990	160.28000
16.40010	159.16000
16.41020	156.97000
16.42040	160.52000
16.43050	157.38000
16.44070	156.73000
16.45080	155.77000
16.46100	155.89000
16.47110	158.92000
16.48130	157.48000
16.49140	156.70000
16.50160	156.53000
16.51170	151.73000
16.52190	154.66000
16.53200	156.05000
16.54220	152.08000
16.55230	154.05000
16.56250	155.05000
16.57260	154.50000
16.58280	153.97000
16.59290	156.72000
16.60310	153.17000
16.61320	153.77000
16.62340	155.48000
16.63350	151.31000
16.64370	155.41000
16.65380	152.98000
16.66400	152.38000
16.67410	157.39000
16.68430	154.75000
16.69440	153.17000
16.70460	159.78000
16.71470	156.33000
16.72490	155.86000
16.73500	161.12000
16.74520	157.53000
16.75530	158.41000
16.76550	162.33000
16.77560	163.84000
16.78580	166.89000
16.79590	170.75000
16.80610	174.64000
16.81620	181.11000
16.82640	190.33000
16.83650	200.50000
16.84670	209.91000
16.85680	223.30000
16.86700	229.00000
16.87710	240.12000
16.88730	248.72000
16.89740	251.66000
16.90760	256.50000
16.91770	254.05000
16.92790	245.98000
16.93800	236.50000
16.94820	221.48000
16.95830	212.64000
16.96850	196.55000
16.97860	186.64000
16.98880	179.86000
16.99890	168.14000
17.00910	167.44000
17.01920	164.23000
17.02940	160.94000
17.03950	163.33000
17.04970	159.89000
17.05980	157.92000
17.07000	158.53000
17.08010	159.42000
17.09030	161.27000
17.10040	164.39000
17.11060	163.58000
17.12070	162.70000
17.13090	162.03000
17.14100	164.73000
17.15120	162.84000
17.16130	162.28000
17.17150	163.52000
17.18160	160.81000
17.19180	160.94000
17.20190	160.81000
17.21210	158.53000
17.22220	160.34000
17.23240	161.20000
17.24250	161.94000
17.25270	160.84000
17.26280	159.36000
17.27300	162.33000
17.28310	160.80000
17.29330	159.39000
17.30340	157.91000
17.31360	161.52000
17.32370	160.17000
17.33390	162.61000
17.34400	166.67000
17.35420	167.61000
17.36430	168.78000
17.37450	178.36000
17.38460	179.41000
17.39480	185.83000
17.40490	197.58000
17.41510	205.36000
17.42520	217.47000
17.43540	241.86000
17.44550	265.39000
17.45570	298.00000
17.46580	347.69000
17.47600	400.00000
17.48610	455.58000
17.49630	524.67000
17.50640	581.58000
17.51660	606.58000
17.52670	623.19000
17.53690	622.50000
17.54700	598.14000
17.55720	570.45000
17.56730	518.11000
17.57750	456.94000
17.58760	406.58000
17.59780	364.61000
17.60790	331.25000
17.61810	321.72000
17.62820	316.80000
17.63840	324.81000
17.64850	347.00000
17.65870	364.30000
17.66880	383.36000
17.67900	398.95000
17.68910	396.48000
17.69930	380.31000
17.70940	353.91000
17.71960	325.97000
17.72970	289.31000
17.73990	263.62000
17.75000	240.06000
17.76020	216.97000
17.77030	204.30000
17.78050	198.48000
17.79060	192.86000
17.80080	200.33000
17.81090	206.69000
17.82110	221.12000
17.83120	231.86000
17.84140	253.09000
17.85150	274.14000
17.86170	296.06000
17.87180	320.48000
17.88200	337.95000
17.89210	345.75000
17.90230	342.41000
17.91240	322.28000
17.92260	303.59000
17.93270	279.30000
17.94290	251.98000
17.95300	235.34000
17.96320	215.06000
17.97330	192.05000
17.98350	181.38000
17.99360	176.80000
18.00380	169.25000
18.01390	170.64000
18.02410	171.86000
18.03420	166.70000
18.04440	168.34000
18.05450	171.22000
18.06470	172.69000
18.07480	179.22000
18.08500	185.03000
18.09510	190.14000
18.10530	201.89000
18.11540	216.12000
18.12560	227.62000
18.13570	246.55000
18.14590	261.83000
18.15600	273.89000
18.16620	282.14000
18.17630	282.19000
18.18650	277.28000
18.19660	269.59000
18.20680	248.86000
18.21690	234.28000
18.22710	215.09000
18.23720	203.05000
18.24740	191.14000
18.25750	175.95000
18.26770	168.89000
18.27780	161.95000
18.28800	162.02000
18.29810	155.91000
18.30830	154.25000
18.31840	154.50000
18.32860	155.88000
18.33870	151.31000
18.34890	158.42000
18.35900	154.97000
18.36920	151.64000
18.37930	154.75000
18.38950	158.05000
18.39960	153.86000
18.40980	152.56000
18.41990	155.25000
18.43010	151.42000
18.44020	153.86000
18.45040	155.30000
18.46050	150.02000
18.47070	153.91000
18.48080	152.25000
18.49100	151.48000
18.50110	155.09000
18.51130	154.55000
18.52140	156.64000
18.53160	158.23000
18.54170	156.48000
18.55190	156.45000
18.56200	156.34000
18.57220	155.50000
18.58230	162.17000
18.59250	162.70000
18.60260	168.17000
18.61280	169.19000
18.62290	178.52000
18.63310	181.20000
18.64320	189.89000
18.65340	201.75000
18.66350	217.48000
18.67370	231.80000
18.68380	245.14000
18.69400	262.47000
18.70410	271.72000
18.71430	277.55000
18.72440	272.11000
18.73460	263.42000
18.74470	249.94000
18.75490	232.12000
18.76500	214.83000
18.77520	204.00000
18.78530	191.69000
18.79550	178.77000
18.80560	169.73000
18.81580	160.92000
18.82590	158.47000
18.83610	157.62000
18.84620	155.83000
18.85640	153.89000
18.86650	155.44000
18.87670	153.53000
18.88680	151.17000
18.89700	152.72000
18.90710	155.50000
18.91730	153.09000
18.92740	153.58000
18.93760	150.59000
18.94770	150.36000
18.95790	153.53000
18.96800	154.09000
18.97820	150.41000
18.98830	153.41000
18.99850	151.45000
19.00860	153.11000
19.01880	151.62000
19.02890	150.47000
19.03910	148.16000
19.04920	151.38000
19.05940	151.28000
19.06950	147.91000
19.07970	154.23000
19.08980	151.19000
19.10000	150.02000
19.11010	154.58000
19.12030	152.58000
19.13040	151.58000
19.14060	152.45000
19.15070	152.83000
19.16090	153.20000
19.17100	154.44000
19.18120	154.23000
19.19130	151.20000
19.20150	160.53000
19.21160	156.33000
19.22180	161.02000
19.23190	164.55000
19.24210	168.58000
19.25220	172.81000
19.26240	176.23000
19.27250	182.45000
19.28270	185.25000
19.29280	188.31000
19.30300	189.30000
19.31310	185.97000
19.32330	185.08000
19.33340	180.38000
19.34360	177.00000
19.35370	170.50000
19.36390	167.62000
19.37400	162.34000
19.38420	159.84000
19.39430	157.27000
19.40450	154.78000
19.41460	156.39000
19.42480	154.05000
19.43490	151.86000
19.44510	151.58000
19.45520	155.06000
19.46540	148.98000
19.47550	152.83000
19.48570	150.39000
19.49580	151.34000
19.50600	150.47000
19.51610	152.25000
19.52630	150.58000
19.53640	153.84000
19.54660	153.27000
19.55670	150.19000
19.56690	154.06000
19.57700	154.77000
19.58720	150.09000
19.59730	151.75000
19.60750	151.12000
19.61760	151.80000
19.62780	156.55000
19.63790	153.17000
19.64810	149.69000
19.65820	152.33000
19.66840	151.28000
19.67850	152.28000
19.68870	151.36000
19.69880	153.25000
19.70900	152.36000
19.71910	153.67000
19.72930	152.86000
19.73940	154.05000
19.74960	156.08000
19.75970	156.52000
19.76990	152.34000
19.78000	154.59000
19.79020	157.53000
19.80030	155.77000
19.81050	158.66000
19.82060	158.62000
19.83080	158.03000
19.84090	160.86000
19.85110	161.34000
19.86120	163.36000
19.87140	169.86000
19.88150	176.25000
19.89170	176.62000
19.90180	189.17000
19.91200	199.20000
19.92210	208.97000
19.93230	232.80000
19.94240	249.42000
19.95260	268.25000
19.96270	292.05000
19.97290	307.69000
19.98300	312.56000
19.99320	322.61000
20.00330	316.41000
20.01350	303.55000
20.02360	292.00000
20.03380	267.42000
20.04390	245.27000
20.05410	238.92000
20.06420	223.78000
20.07440	206.02000
20.08450	201.34000
20.09470	192.52000
20.10480	193.31000
20.11500	198.36000
20.12510	208.98000
20.13530	220.05000
20.14540	238.25000
20.15560	262.30000
20.16570	286.08000
20.17590	311.72000
20.18600	329.94000
20.19620	341.83000
20.20630	352.55000
20.21650	339.48000
20.22660	318.52000
20.23680	300.39000
20.24690	276.53000
20.25710	256.72000
20.26720	239.09000
20.27740	216.03000
20.28750	198.30000
20.29770	190.30000
20.30780	180.97000
20.31800	174.64000
20.32810	173.42000
20.33830	175.97000
20.34840	172.20000
20.35860	173.05000
20.36870	168.45000
20.37890	166.83000
20.38900	167.34000
20.39920	165.83000
20.40930	160.09000
20.41950	160.62000
20.42960	157.11000
20.43980	156.52000
20.44990	156.97000
20.46010	156.34000
20.47020	155.39000
20.48040	153.53000
20.49050	151.64000
20.50070	152.69000
20.51080	152.89000
20.52100	154.50000
20.53110	152.19000
20.54130	154.59000
20.55140	153.55000
20.56160	153.88000
20.57170	156.03000
20.58190	152.34000
20.59200	152.55000
20.60220	152.75000
20.61230	154.12000
20.62250	153.27000
20.63260	154.61000
20.64280	154.06000
20.65290	151.19000
20.66310	152.59000
20.67320	151.20000
20.68340	151.89000
20.69350	152.92000
20.70370	153.27000
20.71380	154.50000
20.72400	151.08000
20.73410	151.61000
20.74430	152.33000
20.75440	152.08000
20.76460	154.98000
20.77470	153.41000
20.78490	154.92000
20.79500	153.08000
20.80520	151.33000
20.81530	152.05000
20.82550	153.83000
20.83560	150.91000
20.84580	153.66000
20.85590	152.69000
20.86610	152.03000
20.87620	153.92000
20.88640	151.56000
20.89650	150.64000
20.90670	152.06000
20.91680	154.94000
20.92700	153.62000
20.93710	156.42000
20.94730	155.42000
20.95740	156.52000
20.96760	160.80000
20.97770	161.58000
20.98790	161.67000
20.99800	165.83000
21.00820	169.73000
21.01830	173.80000
21.02850	178.05000
21.03860	181.47000
21.04880	178.72000
21.05890	177.80000
21.06910	179.17000
21.07920	174.14000
21.08940	174.80000
21.09950	171.30000
21.10970	164.67000
21.11980	165.00000
21.13000	163.88000
21.14010	158.52000
21.15030	158.88000
21.16040	155.45000
21.17060	151.12000
21.18070	155.73000
21.19090	153.88000
21.20100	150.42000
21.21120	155.98000
21.22130	154.91000
21.23150	152.88000
21.24160	153.25000
21.25180	153.31000
21.26190	153.59000
21.27210	157.47000
21.28220	158.23000
21.29240	158.39000
21.30250	163.17000
21.31270	164.06000
21.32280	165.11000
21.33300	166.08000
21.34310	167.64000
21.35330	169.78000
21.36340	167.50000
21.37360	166.86000
21.38370	165.30000
21.39390	165.64000
21.40400	159.39000
21.41420	157.33000
21.42430	159.73000
21.43450	157.41000
21.44460	155.11000
21.45480	155.62000
21.46490	157.81000
21.47510	155.72000
21.48520	158.56000
21.49540	157.83000
21.50550	156.44000
21.51570	159.42000
21.52580	158.53000
21.53600	158.50000
21.54610	160.00000
21.55630	160.58000
21.56640	158.52000
21.57660	166.28000
21.58670	170.45000
21.59690	172.34000
21.60700	175.31000
21.61720	177.53000
21.62730	178.42000
21.63750	182.78000
21.64760	188.08000
21.65780	186.14000
21.66790	195.86000
21.67810	202.34000
21.68820	211.30000
21.69840	229.52000
21.70850	251.09000
21.71870	270.42000
21.72880	296.42000
21.73900	325.67000
21.74910	340.97000
21.75930	358.73000
21.76940	365.77000
21.77960	360.20000
21.78970	354.16000
21.79990	338.00000
21.81000	313.80000
21.82020	293.95000
21.83030	267.08000
21.84050	242.64000
21.85060	227.16000
21.86080	207.92000
21.87100	190.73000
21.88110	181.91000
21.89130	173.19000
21.90140	164.94000
21.91160	162.80000
21.92170	159.16000
21.93190	155.16000
21.94200	156.17000
21.95220	158.05000
21.96230	153.89000
21.97250	154.22000
21.98260	157.02000
21.99280	152.89000
22.00290	155.14000
22.01310	154.62000
22.02320	154.41000
22.03330	154.69000
22.04350	157.20000
22.05360	155.41000
22.06380	158.47000
22.07390	160.83000
22.08410	159.19000
22.09420	159.95000
22.10440	162.52000
22.11460	161.42000
22.12470	164.12000
22.13490	168.14000
22.14500	164.77000
22.15520	168.81000
22.16530	167.73000
22.17550	163.56000
22.18560	166.52000
22.19580	157.52000
22.20590	160.59000
22.21610	165.16000
22.22620	160.91000
22.23640	160.38000
22.24650	159.70000
22.25670	162.33000
22.26680	160.73000
22.27700	166.25000
22.28710	167.62000
22.29730	170.19000
22.30740	174.41000
22.31760	180.88000
22.32770	193.64000
22.33790	208.48000
22.34800	228.34000
22.35820	245.97000
22.36830	280.08000
22.37850	310.70000
22.38860	326.14000
22.39880	337.62000
22.40890	348.62000
22.41910	326.84000
22.42920	318.14000
22.43940	307.03000
22.44950	279.16000
22.45970	266.94000
22.46980	247.06000
22.48000	222.50000
22.49010	210.61000
22.50030	199.59000
22.51040	183.08000
22.52060	179.30000
22.53070	181.09000
22.54090	176.22000
22.55100	176.14000
22.56120	177.34000
22.57130	177.84000
22.58150	179.22000
22.59160	179.50000
22.60180	178.98000
22.61190	174.09000
22.62210	171.97000
22.63220	173.05000
22.64240	166.06000
22.65250	168.52000
22.66270	161.92000
22.67280	164.33000
22.68300	159.62000
22.69310	157.25000
22.70330	157.62000
22.71340	158.34000
22.72360	157.06000
22.73370	161.50000
22.74390	161.03000
22.75400	164.06000
22.76420	166.53000
22.77430	171.33000
22.78450	173.83000
22.79460	183.55000
22.80480	190.36000
22.81490	202.62000
22.82510	209.16000
22.83520	223.92000
22.84540	228.67000
22.85550	248.95000
22.86570	265.95000
22.87580	278.30000
22.88600	302.55000
22.89610	325.67000
22.90630	334.62000
22.91640	355.02000
22.92660	361.27000
22.93670	345.45000
22.94690	348.30000
22.95700	334.58000
22.96720	318.62000
22.97730	306.44000
22.98750	293.39000
22.99760	273.25000
23.00780	256.95000
23.01790	236.36000
23.02810	211.30000
23.03820	206.14000
23.04840	192.84000
23.05850	180.62000
23.06870	181.95000
23.07880	176.50000
23.08900	168.16000
23.09910	169.95000
23.10930	170.14000
23.11940	170.84000
23.12960	172.78000
23.13970	179.12000
23.14990	180.83000
23.16000	196.27000
23.17020	203.03000
23.18030	206.36000
23.19050	217.52000
23.20060	224.14000
23.21080	225.08000
23.22090	228.81000
23.23110	223.11000
23.24120	218.20000
23.25140	213.83000
23.26150	203.92000
23.27170	195.81000
23.28180	192.70000
23.29200	185.00000
23.30210	176.09000
23.31230	170.19000
23.32240	164.12000
23.33260	161.59000
23.34270	157.53000
23.35290	158.84000
23.36300	151.28000
23.37320	152.70000
23.38330	152.97000
23.39350	152.75000
23.40360	151.48000
23.41380	154.30000
23.42390	154.34000
23.43410	151.75000
23.44420	152.28000
23.45440	148.41000
23.46450	148.72000
23.47470	149.38000
23.48480	147.64000
23.49500	153.41000
23.50510	150.56000
23.51530	151.73000
23.52540	150.14000
23.53560	151.47000
23.54570	148.12000
23.55590	150.47000
23.56600	147.86000
23.57620	152.17000
23.58630	145.67000
23.59650	150.91000
23.60660	150.48000
23.61680	151.47000
23.62690	151.45000
23.63710	150.41000
23.64720	150.48000
23.65740	154.62000
23.66750	151.75000
23.67770	156.98000
23.68780	156.95000
23.69800	160.19000
23.70810	160.45000
23.71830	164.66000
23.72840	164.22000
23.73860	175.03000
23.74870	174.91000
23.75890	175.03000
23.76900	175.78000
23.77920	178.23000
23.78930	176.89000
23.79950	177.70000
23.80960	179.62000
23.81980	179.89000
23.82990	184.08000
23.84010	188.62000
23.85020	197.59000
23.86040	214.25000
23.87050	236.33000
23.88070	250.89000
23.89080	284.22000
23.90100	315.27000
23.91110	324.69000
23.92130	340.88000
23.93140	348.02000
23.94160	329.23000
23.95170	323.11000
23.96190	302.88000
23.97200	273.25000
23.98220	268.42000
23.99230	250.33000
24.00250	224.80000
24.01260	210.06000
24.02280	191.77000
24.03290	176.34000
24.04310	167.69000
24.05320	160.08000
24.06340	155.70000
24.07350	152.17000
24.08370	154.80000
24.09380	148.02000
24.10400	152.69000
24.11410	151.62000
24.12430	150.03000
24.13440	150.78000
24.14460	147.22000
24.15470	148.78000
24.16490	149.28000
24.17500	150.78000
24.18520	148.91000
24.19530	150.25000
24.20550	149.06000
24.21560	144.80000
24.22580	153.09000
24.23590	153.45000
24.24610	155.45000
24.25620	156.12000
24.26640	158.27000
24.27650	159.48000
24.28670	165.16000
24.29680	170.27000
24.30700	178.36000
24.31710	183.16000
24.32730	192.70000
24.33740	195.77000
24.34760	205.00000
24.35770	205.61000
24.36790	202.50000
24.37800	207.53000
24.38820	201.44000
24.39830	193.69000
24.40850	188.03000
24.41860	183.23000
24.42880	174.78000
24.43890	170.91000
24.44910	171.48000
24.45920	160.12000
24.46940	159.34000
24.47950	153.95000
24.48970	150.31000
24.49980	150.55000
24.51000	150.81000
24.52010	146.69000
24.53030	147.34000
24.54040	148.55000
24.55060	145.27000
24.56070	145.25000
24.57090	145.06000
24.58100	141.31000
24.59120	147.67000
24.60130	144.44000
24.61150	143.48000
24.62160	145.31000
24.63180	142.12000
24.64190	145.91000
24.65210	147.69000
24.66220	143.97000
24.67240	144.83000
24.68250	145.06000
24.69270	146.33000
24.70280	144.58000
24.71300	144.72000
24.72310	144.05000
24.73330	143.81000
24.74340	146.48000
24.75360	146.64000
24.76370	145.52000
24.77390	145.00000
24.78400	143.80000
24.79420	141.17000
24.80430	143.64000
24.81450	146.52000
24.82460	141.91000
24.83480	144.33000
24.84490	144.45000
24.85510	145.70000
24.86520	145.58000
24.87540	145.61000
24.88550	143.86000
24.89570	145.28000
24.90580	143.48000
24.91600	145.06000
24.92610	143.84000
24.93630	143.27000
24.94640	144.97000
24.95660	145.67000
24.96670	146.70000
24.97690	145.59000
24.98700	145.89000
24.99720	145.11000
25.00730	144.92000
25.01750	146.83000
25.02760	149.14000
25.03780	146.77000
25.04790	150.30000
25.05810	151.11000
25.06820	151.44000
25.07840	156.62000
25.08850	158.72000
25.09870	158.72000
25.10880	165.41000
25.11900	167.81000
25.12910	176.00000
25.13930	184.66000
25.14940	188.59000
25.15960	197.55000
25.16970	209.31000
25.17990	213.14000
25.19000	221.36000
25.20020	228.44000
25.21030	240.33000
25.22050	250.42000
25.23060	262.72000
25.24080	277.72000
25.25090	284.50000
25.26110	296.97000
25.27120	297.77000
25.28140	287.64000
25.29150	279.69000
25.30170	263.34000
25.31180	242.70000
25.32200	235.23000
25.33210	223.75000
25.34230	213.08000
25.35240	199.91000
25.36260	189.28000
25.37270	174.67000
25.38290	164.72000
25.39300	161.22000
25.40320	151.44000
25.41330	152.48000
25.42350	150.98000
25.43360	146.83000
25.44380	147.70000
25.45390	146.03000
25.46410	146.41000
25.47420	147.69000
25.48440	146.84000
25.49450	144.53000
25.50470	146.47000
25.51480	144.33000
25.52500	145.03000
25.53510	145.55000
25.54530	144.41000
25.55540	145.55000
25.56560	143.84000
25.57570	145.91000
25.58590	142.06000
25.59600	148.94000
25.60620	148.19000
25.61630	147.02000
25.62650	150.27000
25.63660	150.97000
25.64680	147.22000
25.65690	148.64000
25.66710	148.66000
25.67720	145.41000
25.68740	145.25000
25.69750	146.75000
25.70770	146.92000
25.71780	147.41000
25.72800	140.05000
25.73810	140.53000
25.74830	143.47000
25.75840	143.41000
25.76860	144.05000
25.77870	139.89000
25.78890	141.41000
25.79900	141.80000
25.80920	142.67000
25.81930	142.98000
25.82950	139.52000
25.83960	143.02000
25.84980	143.48000
25.85990	141.81000
25.87010	144.50000
25.88020	142.11000
25.89040	144.19000
25.90050	143.20000
25.91070	143.00000
25.92080	140.70000
25.93100	144.59000
25.94110	145.81000
25.95130	139.52000
25.96140	143.16000
25.97160	143.52000
25.98170	142.31000
25.99190	145.70000
26.00200	144.41000
26.01220	139.52000
26.02230	144.66000
26.03250	145.67000
26.04260	142.42000
26.05280	145.06000
26.06290	144.36000
26.07310	142.78000
26.08320	145.89000
26.09340	144.83000
26.10350	146.25000
26.11370	152.92000
26.12380	152.27000
26.13400	153.58000
26.14410	158.75000
26.15430	161.52000
26.16440	166.61000
26.17460	168.11000
26.18470	165.75000
26.19490	166.69000
26.20500	164.08000
26.21520	161.27000
26.22530	153.98000
26.23550	160.64000
26.24560	155.66000
26.25580	151.00000
26.26590	149.80000
26.27610	146.94000
26.28620	143.95000
26.29640	145.45000
26.30650	144.98000
26.31670	140.42000
26.32680	142.92000
26.33700	141.31000
26.34710	139.28000
26.35730	139.62000
26.36740	143.25000
26.37760	139.27000
26.38770	140.16000
26.39790	139.75000
26.40800	140.00000
26.41820	140.91000
26.42830	142.95000
26.43850	142.72000
26.44860	143.53000
26.45880	141.44000
26.46890	142.73000
26.47910	142.64000
26.48920	147.42000
26.49940	143.66000
26.50950	146.59000
26.51970	146.16000
26.52980	146.25000
26.54000	150.19000
26.55010	149.97000
26.56030	144.92000
26.57040	148.58000
26.58060	148.30000
26.59070	144.80000
26.60090	146.55000
26.61100	147.81000
26.62120	145.31000
26.63130	144.92000
26.64150	145.70000
26.65160	145.50000
26.66180	144.52000
26.67190	145.20000
26.68210	141.97000
26.69220	142.45000
26.70240	146.86000
26.71250	141.61000
26.72270	143.48000
26.73280	143.25000
26.74300	142.91000
26.75310	142.09000
26.76330	141.83000
26.77340	138.89000
26.78360	143.64000
26.79370	144.86000
26.80390	144.67000
26.81400	147.66000
26.82420	149.03000
26.83430	149.62000
26.84450	155.91000
26.85460	152.97000
26.86480	154.11000
26.87490	153.19000
26.88510	153.19000
26.89520	152.16000
26.90540	154.45000
26.91550	153.92000
26.92570	152.09000
26.93580	156.50000
26.94600	156.39000
26.95610	150.53000
26.96630	157.80000
26.97640	155.66000
26.98660	150.70000
26.99670	154.92000
27.00690	153.50000
27.01700	151.11000
27.02720	152.22000
27.03730	149.61000
27.04750	149.19000
27.05760	147.09000
27.06780	145.09000
27.07790	144.84000
27.08810	144.58000
27.09820	143.38000
27.10840	139.30000
27.11850	142.33000
27.12870	137.20000
27.13880	137.53000
27.14900	138.16000
27.15910	140.33000
27.16930	139.27000
27.17940	138.95000
27.18960	139.70000
27.19970	140.23000
27.20990	143.48000
27.22000	144.11000
27.23020	145.08000
27.24030	145.38000
27.25050	149.94000
27.26060	149.58000
27.27080	156.14000
27.28090	153.30000
27.29110	155.80000
27.30120	157.84000
27.31140	156.31000
27.32150	157.56000
27.33170	158.78000
27.34180	162.25000
27.35200	157.25000
27.36210	159.09000
27.37230	159.08000
27.38240	157.27000
27.39260	164.03000
27.40270	160.61000
27.41290	159.69000
27.42300	159.70000
27.43320	161.62000
27.44330	158.48000
27.45350	159.59000
27.46360	161.44000
27.47380	157.00000
27.48390	159.73000
27.49410	156.72000
27.50420	151.89000
27.51440	154.45000
27.52450	152.97000
27.53470	146.12000
27.54480	148.39000
27.55500	148.89000
27.56510	146.45000
27.57530	147.80000
27.58540	149.03000
27.59560	151.77000
27.60570	155.47000
27.61590	157.50000
27.62600	159.17000
27.63620	162.94000
27.64630	168.89000
27.65650	168.03000
27.66660	169.98000
27.67680	170.48000
27.68690	164.48000
27.69710	166.83000
27.70720	161.75000
27.71740	157.20000
27.72750	157.20000
27.73770	153.33000
27.74780	149.25000
27.75800	150.39000
27.76810	147.06000
27.77830	142.72000
27.78840	142.17000
27.79860	142.05000
27.80870	140.02000
27.81890	140.03000
27.82900	140.81000
27.83920	137.42000
27.84930	139.77000
27.85950	140.92000
27.86960	138.25000
27.87980	139.66000
27.88990	140.98000
27.90010	139.53000
27.91020	139.73000
27.92040	139.97000
27.93050	142.25000
27.94070	143.73000
27.95080	147.72000
27.96100	149.12000
27.97110	156.00000
27.98130	162.98000
27.99140	164.25000
28.00160	170.97000
28.01170	171.30000
28.02190	172.48000
28.03200	167.78000
28.04220	166.23000
28.05230	166.06000
28.06250	161.91000
28.07260	160.39000
28.08280	162.78000
28.09290	159.48000
28.10310	155.81000
28.11320	155.30000
28.12340	152.97000
28.13350	150.34000
28.14370	147.64000
28.15380	148.06000
28.16400	151.44000
28.17410	148.55000
28.18430	154.77000
28.19440	156.34000
28.20460	154.66000
28.21470	160.52000
28.22490	164.17000
28.23500	162.55000
28.24520	165.94000
28.25530	165.55000
28.26550	164.62000
28.27560	165.89000
28.28580	162.44000
28.29590	158.66000
28.30610	154.66000
28.31620	152.78000
28.32640	147.73000
28.33650	150.44000
28.34670	148.31000
28.35680	144.42000
28.36700	143.75000
28.37710	142.64000
28.38730	141.09000
28.39740	137.11000
28.40760	136.55000
28.41770	138.61000
28.42790	139.83000
28.43800	140.05000
28.44820	136.23000
28.45830	137.53000
28.46850	139.02000
28.47860	137.19000
28.48880	139.09000
28.49890	140.53000
28.50910	139.95000
28.51920	140.44000
28.52940	139.53000
28.53950	141.55000
28.54970	141.41000
28.55980	138.55000
28.57000	138.48000
28.58010	140.12000
28.59030	141.34000
28.60040	140.75000
28.61060	139.39000
28.62070	142.30000
28.63090	140.09000
28.64100	141.02000
28.65120	142.98000
28.66130	140.55000
28.67150	142.47000
28.68160	140.89000
28.69180	142.38000
28.70190	149.27000
28.71210	147.23000
28.72220	148.09000
28.73240	154.12000
28.74250	154.83000
28.75270	157.23000
28.76280	160.00000
28.77300	158.58000
28.78310	159.12000
28.79330	159.00000
28.80340	155.73000
28.81360	154.70000
28.82370	159.25000
28.83390	157.30000
28.84400	151.27000
28.85420	154.19000
28.86430	150.98000
28.87450	150.33000
28.88460	150.52000
28.89480	149.39000
28.90490	144.98000
28.91510	149.84000
28.92520	148.09000
28.93540	143.89000
28.94550	149.80000
28.95570	144.98000
28.96580	146.41000
28.97600	145.89000
28.98610	152.38000
28.99630	151.83000
29.00640	153.31000
29.01660	159.64000
29.02670	164.80000
29.03690	175.02000
29.04700	188.03000
29.05720	188.69000
29.06730	203.69000
29.07750	212.02000
29.08760	212.12000
29.09780	214.02000
29.10790	215.20000
29.11810	202.22000
29.12820	197.61000
29.13840	188.53000
29.14850	180.83000
29.15870	180.33000
29.16880	180.14000
29.17900	173.61000
29.18910	167.27000
29.19930	160.56000
29.20940	150.72000
29.21960	150.53000
29.22970	144.72000
29.23990	140.33000
29.25000	141.12000
29.26020	139.75000
29.27030	139.19000
29.28050	137.36000
29.29060	140.84000
29.30080	137.56000
29.31090	138.45000
29.32110	141.48000
29.33120	138.30000
29.34140	139.39000
29.35150	141.84000
29.36170	141.73000
29.37180	142.28000
29.38200	143.97000
29.39210	147.08000
29.40230	148.34000
29.41240	149.84000
29.42260	154.45000
29.43270	156.55000
29.44290	160.19000
29.45300	158.91000
29.46320	166.72000
29.47330	166.80000
29.48350	164.73000
29.49360	174.02000
29.50380	175.91000
29.51390	175.67000
29.52410	177.95000
29.53420	178.77000
29.54440	178.39000
29.55450	175.64000
29.56470	176.50000
29.57480	167.81000
29.58500	167.11000
29.59510	164.67000
29.60530	158.19000
29.61540	158.50000
29.62560	153.78000
29.63570	151.97000
29.64590	149.20000
29.65600	147.25000
29.66620	145.53000
29.67630	143.06000
29.68650	146.27000
29.69660	143.67000
29.70680	144.72000
29.71690	143.67000
29.72710	144.02000
29.73720	147.81000
29.74740	150.02000
29.75750	151.47000
29.76770	150.17000
29.77780	149.23000
29.78800	149.06000
29.79810	152.00000
29.80830	152.41000
29.81840	151.03000
29.82860	148.58000
29.83870	146.06000
29.84890	144.75000
29.85900	147.53000
29.86920	142.03000
29.87930	140.83000
29.88950	142.72000
29.89960	138.58000
29.90980	138.16000
29.91990	141.00000
29.93010	137.00000
29.94020	136.34000
29.95040	136.16000
29.96050	138.33000
29.97070	135.05000
29.98080	139.88000
29.99100	136.58000
30.00110	136.66000
30.01130	138.30000
30.02140	137.62000
30.03160	140.22000
30.04170	139.70000
30.05190	141.31000
30.06200	144.12000
30.07220	142.14000
30.08230	144.83000
30.09250	146.00000
30.10260	150.86000
30.11280	151.12000
30.12290	155.14000
30.13310	157.95000
30.14320	160.28000
30.15340	157.94000
30.16350	156.84000
30.17370	157.22000
30.18380	154.84000
30.19400	156.20000
30.20410	154.75000
30.21430	151.50000
30.22440	151.66000
30.23460	151.30000
30.24470	148.58000
30.25490	148.78000
30.26500	148.14000
30.27520	145.44000
30.28530	144.27000
30.29550	146.67000
30.30560	143.20000
30.31580	145.80000
30.32590	147.34000
30.33610	145.86000
30.34620	146.81000
30.35640	146.75000
30.36650	144.61000
30.37670	150.12000
30.38680	147.33000
30.39700	143.75000
30.40710	142.77000
30.41730	143.72000
30.42740	141.34000
30.43760	143.23000
30.44770	142.03000
30.45790	145.86000
30.46800	145.34000
30.47820	141.48000
30.48830	140.88000
30.49850	146.09000
30.50860	142.67000
30.51880	142.41000
30.52890	144.86000
30.53910	140.84000
30.54920	141.66000
30.55940	141.31000
30.56950	140.30000
30.57970	140.73000
30.58980	144.56000
30.60000	141.08000
30.61010	143.39000
30.62030	145.59000
30.63040	145.50000
30.64060	148.47000
30.65070	150.09000
30.66090	152.20000
30.67100	154.09000
30.68120	159.98000
30.69130	161.66000
30.70150	162.67000
30.71160	169.69000
30.72180	171.95000
30.73190	171.25000
30.74210	171.52000
30.75220	169.28000
30.76240	168.47000
30.77250	165.28000
30.78270	166.20000
30.79280	161.42000
30.80300	165.02000
30.81310	165.45000
30.82330	160.30000
30.83340	156.78000
30.84360	154.83000
30.85370	149.03000
30.86390	148.48000
30.87400	146.81000
30.88420	143.42000
30.89430	145.08000
30.90450	145.86000
30.91460	139.66000
30.92480	143.55000
30.93490	141.05000
30.94510	139.20000
30.95520	139.17000
30.96540	140.86000
30.97550	136.25000
30.98570	138.27000
30.99580	136.45000
31.00600	137.83000
31.01610	139.03000
31.02630	139.27000
31.03640	140.50000
31.04660	142.03000
31.05670	141.14000
31.06690	144.59000
31.07700	144.05000
31.08720	151.09000
31.09730	153.83000
31.10750	157.73000
31.11760	161.45000
31.12780	163.84000
31.13790	167.98000
31.14810	173.08000
31.15820	173.52000
31.16840	176.89000
31.17850	173.47000
31.18870	170.66000
31.19880	171.62000
31.20900	169.97000
31.21910	168.89000
31.22930	169.50000
31.23940	169.09000
31.24960	166.70000
31.25970	168.22000
31.26990	170.95000
31.28000	172.62000
31.29020	176.39000
31.30030	179.50000
31.31050	179.77000
31.32060	181.72000
31.33080	184.81000
31.34090	183.06000
31.35110	180.78000
31.36120	175.78000
31.37140	171.14000
31.38150	174.67000
31.39170	169.27000
31.40180	165.69000
31.41200	170.53000
31.42210	167.62000
31.43230	162.19000
31.44240	158.53000
31.45260	158.28000
31.46270	151.34000
31.47290	150.95000
31.48300	148.69000
31.49320	146.81000
31.50330	147.08000
31.51350	145.11000
31.52360	140.20000
31.53380	140.50000
31.54390	141.06000
31.55410	140.05000
31.56420	137.59000
31.57440	137.33000
31.58450	134.16000
31.59470	138.27000
31.60480	136.27000
31.61500	136.02000
31.62510	137.84000
31.63530	136.95000
31.64540	137.53000
31.65560	140.02000
31.66570	139.56000
31.67590	138.77000
31.68600	142.75000
31.69620	144.36000
31.70630	144.30000
31.71650	151.44000
31.72660	153.88000
31.73680	154.62000
31.74690	161.52000
31.75710	162.61000
31.76720	162.50000
31.77740	163.36000
31.78750	159.30000
31.79770	155.84000
31.80780	154.78000
31.81800	155.20000
31.82810	151.33000
31.83830	149.59000
31.84840	149.03000
31.85860	146.48000
31.86870	146.59000
31.87890	145.70000
31.88900	141.75000
31.89920	141.97000
31.90930	141.31000
31.91950	139.58000
31.92960	137.92000
31.93980	138.19000
31.94990	135.11000
31.96010	137.03000
31.97020	139.09000
31.98040	137.95000
31.99050	137.36000
32.00070	138.86000
32.01080	138.20000
32.02100	137.77000
32.03110	138.02000
32.04130	140.28000
32.05140	142.56000
32.06160	140.17000
32.07170	138.31000
32.08190	137.03000
32.09200	135.97000
32.10220	135.89000
32.11230	138.45000
32.12250	135.16000
32.13260	137.00000
32.14280	137.22000
32.15290	137.72000
32.16310	136.00000
32.17320	135.86000
32.18340	136.64000
32.19350	135.44000
32.20370	136.95000
32.21380	138.69000
32.22400	136.70000
32.23410	135.78000
32.24430	138.67000
32.25440	138.38000
32.26460	140.05000
32.27470	137.67000
32.28490	135.72000
32.29500	137.12000
32.30520	137.09000
32.31530	137.56000
32.32550	138.81000
32.33560	138.78000
32.34580	135.70000
32.35590	142.03000
32.36610	139.30000
32.37620	142.53000
32.38640	148.69000
32.39650	158.58000
32.40670	156.48000
32.41680	163.72000
32.42700	168.17000
32.43710	171.61000
32.44730	176.39000
32.45740	173.95000
32.46760	169.75000
32.47770	168.44000
32.48790	165.92000
32.49800	158.39000
32.50820	160.02000
32.51830	158.14000
32.52850	155.89000
32.53860	154.31000
32.54880	154.12000
32.55890	151.02000
32.56910	151.20000
32.57920	148.20000
32.58940	143.66000
32.59950	143.42000
32.60970	145.06000
32.61980	146.22000
32.63000	147.73000
32.64010	152.16000
32.65030	148.62000
32.66040	150.09000
32.67060	150.12000
32.68070	150.36000
32.69090	157.53000
32.70100	158.27000
32.71120	158.03000
32.72130	164.78000
32.73150	168.45000
32.74160	174.16000
32.75180	184.72000
32.76190	186.42000
32.77210	191.19000
32.78220	192.59000
32.79240	190.81000
32.80250	186.03000
32.81270	180.98000
32.82280	174.42000
32.83300	171.23000
32.84310	171.41000
32.85330	175.78000
32.86340	171.59000
32.87360	170.95000
32.88370	166.55000
32.89390	160.84000
32.90400	157.41000
32.91420	157.34000
32.92430	154.45000
32.93450	152.28000
32.94460	153.83000
32.95480	148.83000
32.96490	150.19000
32.97510	148.06000
32.98520	150.75000
32.99540	149.56000
33.00550	152.59000
33.01570	152.53000
33.02580	152.41000
33.03600	155.22000
33.04610	152.73000
33.05630	156.78000
33.06640	156.19000
33.07660	152.17000
33.08670	154.97000
33.09690	155.86000
33.10700	152.09000
33.11720	156.55000
33.12730	157.58000
33.13750	158.64000
33.14760	160.95000
33.15780	163.80000
33.16790	162.98000
33.17810	165.33000
33.18820	166.23000
33.19840	165.34000
33.20850	162.58000
33.21870	161.36000
33.22880	160.34000
33.23900	161.27000
33.24910	158.86000
33.25930	154.31000
33.26940	155.30000
33.27960	151.17000
33.28970	149.66000
33.29990	147.81000
33.31000	146.56000
33.32020	143.75000
33.33030	146.47000
33.34050	146.00000
33.35060	141.61000
33.36080	147.64000
33.37090	147.66000
33.38110	147.08000
33.39120	146.80000
33.40140	148.91000
33.41150	145.91000
33.42170	149.11000
33.43180	150.22000
33.44200	148.47000
33.45210	149.25000
33.46230	147.83000
33.47240	145.06000
33.48260	143.86000
33.49270	148.00000
33.50290	138.84000
33.51300	144.53000
33.52320	144.66000
33.53330	140.92000
33.54350	138.73000
33.55360	140.20000
33.56380	140.14000
33.57390	136.42000
33.58410	138.97000
33.59420	135.03000
33.60440	136.83000
33.61450	137.72000
33.62470	134.80000
33.63480	133.97000
33.64500	134.19000
33.65510	134.69000
33.66530	136.28000
33.67540	136.62000
33.68560	134.33000
33.69570	133.58000
33.70590	134.11000
33.71600	133.00000
33.72620	137.36000
33.73630	135.73000
33.74650	133.56000
33.75660	136.66000
33.76680	134.14000
33.77690	134.92000
33.78710	136.27000
33.79720	134.23000
33.80740	134.83000
33.81750	136.39000
33.82770	136.16000
33.83780	135.81000
33.84800	136.25000
33.85810	137.22000
33.86830	130.41000
33.87840	137.59000
33.88860	135.88000
33.89870	135.17000
33.90890	136.98000
33.91900	136.95000
33.92920	132.52000
33.93930	135.72000
33.94950	135.61000
33.95960	134.61000
33.96980	134.47000
33.97990	133.91000
33.99010	133.62000
34.00020	136.47000
34.01040	138.62000
34.02050	134.53000
34.03070	135.84000
34.04080	138.77000
34.05100	134.53000
34.06110	137.34000
34.07130	138.52000
34.08140	136.16000
34.09160	141.52000
34.10170	138.45000
34.11190	138.14000
34.12200	140.83000
34.13220	140.44000
34.14230	138.23000
34.15250	143.31000
34.16260	144.31000
34.17280	146.17000
34.18290	146.12000
34.19310	147.92000
34.20320	148.67000
34.21340	152.95000
34.22350	156.78000
34.23370	158.72000
34.24380	166.59000
34.25400	171.33000
34.26410	171.88000
34.27430	179.80000
34.28440	187.38000
34.29460	195.53000
34.30470	201.53000
34.31490	214.17000
34.32500	222.08000
34.33520	230.67000
34.34530	240.92000
34.35550	250.64000
34.36560	257.09000
34.37580	257.89000
34.38590	257.75000
34.39610	250.48000
34.40620	253.69000
34.41640	246.17000
34.42650	248.72000
34.43670	247.80000
34.44680	240.59000
34.45700	230.97000
34.46710	220.41000
34.47730	203.27000
34.48740	190.62000
34.49760	186.45000
34.50770	180.16000
34.51790	175.73000
34.52800	172.41000
34.53820	166.75000
34.54830	159.31000
34.55850	155.59000
34.56860	146.66000
34.57880	144.95000
34.58890	142.30000
34.59910	139.88000
34.60920	140.50000
34.61940	139.83000
34.62950	136.44000
34.63970	140.70000
34.64980	139.58000
34.66000	138.36000
34.67010	140.91000
34.68030	139.56000
34.69040	136.89000
34.70060	137.20000
34.71070	140.23000
34.72090	137.84000
34.73100	138.62000
34.74120	139.73000
34.75130	134.83000
34.76150	137.66000
34.77160	141.09000
34.78180	134.41000
34.79190	139.33000
34.80210	137.72000
34.81220	135.50000
34.82240	136.02000
34.83250	139.38000
34.84270	137.58000
34.85280	140.16000
34.86300	140.09000
34.87310	139.69000
34.88330	142.28000
34.89340	143.91000
34.90360	142.86000
34.91370	146.83000
34.92390	148.06000
34.93400	149.66000
34.94420	157.19000
34.95430	159.11000
34.96450	159.83000
34.97460	167.34000
34.98480	163.52000
34.99490	161.62000
35.00510	163.06000
35.01520	159.17000
35.02540	155.52000
35.03550	155.66000
35.04570	155.78000
35.05580	150.39000
35.06600	157.52000
35.07610	157.80000
35.08630	152.03000
35.09640	152.91000
35.10660	153.06000
35.11670	146.81000
35.12690	153.94000
35.13700	153.70000
35.14720	152.81000
35.15730	154.72000
35.16750	157.25000
35.17760	155.17000
35.18780	159.97000
35.19790	160.77000
35.20810	157.12000
35.21820	157.52000
35.22840	152.94000
35.23850	148.84000
35.24870	150.48000
35.25880	148.55000
35.26900	148.44000
35.27910	151.44000
35.28930	153.17000
35.29940	150.31000
35.30960	152.28000
35.31970	151.89000
35.32990	152.48000
35.34000	156.06000
35.35020	160.22000
35.36030	161.97000
35.37050	164.98000
35.38060	166.48000
35.39080	166.25000
35.40090	172.70000
35.41110	171.11000
35.42120	169.98000
35.43140	174.17000
35.44150	178.48000
35.45170	178.88000
35.46180	183.06000
35.47200	186.45000
35.48210	184.53000
35.49230	194.36000
35.50240	195.16000
35.51260	197.86000
35.52270	201.48000
35.53290	205.06000
35.54300	203.78000
35.55320	200.62000
35.56330	197.78000
35.57350	189.27000
35.58360	189.67000
35.59380	184.80000
35.60390	180.44000
35.61410	182.38000
35.62420	181.38000
35.63440	180.77000
35.64460	181.33000
35.65470	183.69000
35.66480	181.98000
35.67500	183.62000
35.68520	188.64000
35.69530	194.55000
35.70540	199.48000
35.71560	203.86000
35.72570	207.30000
35.73590	211.97000
35.74600	223.11000
35.75620	220.55000
35.76630	228.89000
35.77650	237.86000
35.78660	240.45000
35.79680	245.88000
35.80690	248.61000
35.81710	248.59000
35.82720	249.05000
35.83740	252.17000
35.84750	248.28000
35.85770	248.62000
35.86780	245.41000
35.87800	237.47000
35.88810	237.22000
35.89830	229.20000
35.90850	221.98000
35.91860	221.81000
35.92870	218.75000
35.93890	220.77000
35.94910	218.25000
35.95920	213.52000
35.96930	205.19000
35.97950	201.69000
35.98970	196.11000
35.99980	187.58000
36.00990	183.95000
36.02010	182.08000
36.03030	173.69000
36.04040	176.50000
36.05050	170.88000
36.06070	163.69000
36.07090	165.36000
36.08100	156.80000
36.09110	158.55000
36.10130	154.62000
36.11150	150.23000
36.12160	147.81000
36.13180	149.41000
36.14190	145.61000
36.15210	146.69000
36.16220	147.50000
36.17240	147.25000
36.18250	144.31000
36.19260	147.78000
36.20280	151.45000
36.21300	148.78000
36.22310	153.50000
36.23320	155.84000
36.24340	153.38000
36.25360	155.62000
36.26370	155.06000
36.27380	157.31000
36.28400	155.59000
36.29420	149.95000
36.30430	153.88000
36.31440	154.66000
36.32460	156.66000
36.33480	157.53000
36.34490	160.23000
36.35500	161.62000
36.36520	160.02000
36.37540	165.14000
36.38550	165.22000
36.39570	166.12000
36.40580	169.22000
36.41600	174.06000
36.42610	171.77000
36.43630	175.14000
36.44640	174.80000
36.45660	172.64000
36.46670	169.25000
36.47690	173.20000
36.48700	162.28000
36.49720	162.50000
36.50730	163.91000
36.51750	164.31000
36.52760	165.11000
36.53780	167.48000
36.54790	164.62000
36.55810	170.16000
36.56820	173.91000
36.57840	174.22000
36.58850	178.20000
36.59870	179.14000
36.60880	177.61000
36.61900	183.08000
36.62910	181.81000
36.63930	179.61000
36.64940	178.38000
36.65960	173.95000
36.66970	171.23000
36.67990	171.36000
36.69000	168.62000
36.70020	163.00000
36.71030	165.86000
36.72050	162.27000
36.73060	158.11000
36.74080	158.20000
36.75090	154.00000
36.76110	149.31000
36.77120	150.86000
36.78140	147.22000
36.79150	141.95000
36.80170	142.38000
36.81180	143.67000
36.82200	137.58000
36.83210	140.08000
36.84230	140.78000
36.85240	137.45000
36.86260	140.08000
36.87270	138.61000
36.88290	139.27000
36.89300	142.77000
36.90320	141.05000
36.91330	140.09000
36.92350	143.47000
36.93360	143.28000
36.94380	143.02000
36.95390	147.12000
36.96410	148.45000
36.97420	146.31000
36.98440	145.92000
36.99450	141.95000
37.00470	143.03000
37.01480	147.75000
37.02500	145.55000
37.03510	142.98000
37.04530	143.77000
37.05540	143.28000
37.06560	140.23000
37.07570	144.53000
37.08590	145.47000
37.09600	143.22000
37.10620	147.80000
37.11630	148.42000
37.12650	145.22000
37.13660	147.11000
37.14680	151.73000
37.15690	149.78000
37.16710	155.66000
37.17720	154.39000
37.18740	155.77000
37.19750	156.89000
37.20770	162.86000
37.21780	164.70000
37.22800	168.70000
37.23810	165.98000
37.24830	168.97000
37.25840	174.67000
37.26860	180.14000
37.27870	183.91000
37.28890	193.09000
37.29900	205.30000
37.30920	209.89000
37.31930	220.03000
37.32950	228.00000
37.33960	230.42000
37.34980	235.92000
37.35990	233.11000
37.37010	227.41000
37.38020	222.70000
37.39040	218.28000
37.40050	212.73000
37.41070	213.22000
37.42080	208.72000
37.43100	206.17000
37.44110	208.03000
37.45130	200.19000
37.46140	198.22000
37.47160	194.70000
37.48170	187.14000
37.49190	174.86000
37.50200	172.17000
37.51220	167.14000
37.52230	162.34000
37.53250	165.59000
37.54260	164.39000
37.55280	163.66000
37.56290	165.20000
37.57310	169.69000
37.58320	165.83000
37.59340	168.59000
37.60350	168.25000
37.61370	161.22000
37.62380	159.05000
37.63400	154.47000
37.64410	151.86000
37.65430	152.73000
37.66440	149.98000
37.67460	150.36000
37.68470	149.02000
37.69490	149.81000
37.70500	147.94000
37.71520	148.36000
37.72530	146.72000
37.73550	144.41000
37.74560	143.84000
37.75580	139.94000
37.76590	140.64000
37.77610	141.94000
37.78620	142.39000
37.79640	140.06000
37.80650	142.27000
37.81670	143.38000
37.82680	141.67000
37.83700	141.36000
37.84710	142.08000
37.85730	139.42000
37.86740	140.34000
37.87760	143.41000
37.88770	143.28000
37.89790	142.03000
37.90800	145.61000
37.91820	147.06000
37.92830	146.14000
37.93850	146.20000
37.94860	143.48000
37.95880	147.64000
37.96890	144.61000
37.97910	142.39000
37.98920	143.77000
37.99940	143.16000
38.00950	140.86000
38.01970	148.30000
38.02980	148.11000
38.04000	149.05000
38.05010	152.00000
38.06030	154.75000
38.07040	156.33000
38.08060	156.86000
38.09070	154.55000
38.10090	152.47000
38.11100	154.34000
38.12120	149.52000
38.13130	147.61000
38.14150	147.28000
38.15160	145.03000
38.16180	143.89000
38.17190	146.83000
38.18210	146.62000
38.19220	143.77000
38.20240	143.92000
38.21250	144.33000
38.22270	140.81000
38.23280	138.75000
38.24300	139.05000
38.25310	137.41000
38.26330	140.86000
38.27340	138.45000
38.28360	136.38000
38.29370	137.75000
38.30390	134.80000
38.31400	137.12000
38.32420	138.48000
38.33430	140.66000
38.34450	135.47000
38.35460	139.20000
38.36480	137.61000
38.37490	135.83000
38.38510	135.69000
38.39520	138.69000
38.40540	135.70000
38.41550	139.23000
38.42570	137.02000
38.43580	139.72000
38.44600	139.02000
38.45610	139.80000
38.46630	137.58000
38.47640	142.75000
38.48660	140.38000
38.49670	141.62000
38.50690	140.16000
38.51700	144.70000
38.52720	143.31000
38.53730	143.14000
38.54750	143.98000
38.55760	143.31000
38.56780	143.30000
38.57790	146.14000
38.58810	147.28000
38.59820	150.98000
38.60840	155.09000
38.61850	155.02000
38.62870	156.03000
38.63880	160.06000
38.64900	160.80000
38.65910	159.39000
38.66930	160.66000
38.67940	159.61000
38.68960	160.17000
38.69970	158.50000
38.70990	155.34000
38.72000	159.66000
38.73020	156.92000
38.74030	153.33000
38.75050	155.31000
38.76060	157.02000
38.77080	153.33000
38.78090	155.45000
38.79110	152.36000
38.80120	149.06000
38.81140	150.34000
38.82150	149.91000
38.83170	147.25000
38.84180	151.17000
38.85200	150.98000
38.86210	150.52000
38.87230	152.48000
38.88240	152.09000
38.89260	152.11000
38.90270	157.83000
38.91290	156.59000
38.92300	159.11000
38.93320	162.94000
38.94330	168.11000
38.95350	166.89000
38.96360	174.77000
38.97380	180.56000
38.98390	180.89000
38.99410	188.92000
39.00420	196.41000
39.01440	198.95000
39.02450	212.97000
39.03470	217.61000
39.04480	225.89000
39.05500	239.94000
39.06510	245.50000
39.07530	250.97000
39.08540	260.19000
39.09560	261.61000
39.10570	255.08000
39.11590	258.00000
39.12600	257.47000
39.13620	243.78000
39.14630	250.28000
39.15650	244.31000
39.16660	235.77000
39.17680	235.28000
39.18690	229.56000
39.19710	220.89000
39.20720	219.39000
39.21740	219.28000
39.22750	211.06000
39.23770	213.20000
39.24780	210.00000
39.25800	206.41000
39.26810	207.56000
39.27830	205.20000
39.28840	202.64000
39.29860	195.59000
39.30870	195.56000
39.31890	193.70000
39.32900	195.84000
39.33920	197.03000
39.34930	195.45000
39.35950	201.77000
39.36960	202.48000
39.37980	200.64000
39.38990	202.31000
39.40010	200.92000
39.41020	194.47000
39.42040	190.55000
39.43050	188.38000
39.44070	181.98000
39.45080	181.55000
39.46100	184.73000
39.47110	184.47000
39.48130	184.22000
39.49140	188.38000
39.50160	185.19000
39.51170	190.75000
39.52190	191.55000
39.53200	182.75000
39.54220	184.83000
39.55230	183.09000
39.56250	180.23000
39.57260	180.42000
39.58280	178.36000
39.59290	176.33000
39.60310	175.55000
39.61320	172.42000
39.62340	171.95000
39.63350	173.80000
39.64370	169.94000
39.65380	162.47000
39.66400	164.41000
39.67410	160.80000
39.68430	153.48000
39.69440	157.62000
39.70460	154.72000
39.71470	152.22000
39.72490	157.36000
39.73500	154.05000
39.74520	152.86000
39.75530	154.25000
39.76550	159.66000
39.77560	155.66000
39.78580	156.30000
39.79590	159.11000
39.80610	159.91000
39.81620	163.66000
39.82640	164.86000
39.83650	164.05000
39.84670	166.36000
39.85680	165.27000
39.86700	166.77000
39.87710	167.84000
39.88730	167.23000
39.89740	160.78000
39.90760	163.92000
39.91770	161.98000
39.92790	163.38000
39.93800	165.75000
39.94820	168.78000
39.95830	163.70000
39.96850	169.25000
39.97860	164.45000
39.98880	168.36000
39.99890	169.30000
