2.00000	327.84000
2.01000	327.47000
2.02000	326.02000
2.03000	327.09000
2.04000	328.25000
2.05000	329.23000
2.06000	327.24000
2.07000	327.15000
2.08000	324.45000
2.09000	327.42000
2.10000	325.42000
2.11000	326.62000
2.12000	326.31000
2.13000	327.21000
2.14000	323.74000
2.15000	326.13000
2.16000	326.78000
2.17000	326.43000
2.18000	326.20000
2.19000	326.81000
2.20000	322.16000
2.21000	327.03000
2.22000	325.71000
2.23000	326.26000
2.24000	325.09000
2.25000	325.39000
2.26000	322.85000
2.27000	322.89000
2.28000	322.64000
2.29000	325.82000
2.30000	324.74000
2.31000	324.51000
2.32000	322.03000
2.33000	324.19000
2.34000	321.63000
2.35000	322.84000
2.36000	323.80000
2.37000	325.31000
2.38000	321.60000
2.39000	323.39000
2.40000	324.23000
2.41000	323.53000
2.42000	323.75000
2.43000	322.93000
2.44000	322.50000
2.45000	320.76000
2.46000	320.39000
2.47000	322.32000
2.48000	320.80000
2.49000	320.65000
2.50000	319.56000
2.51000	320.36000
2.52000	321.63000
2.53000	323.95000
2.54000	320.09000
2.55000	323.39000
2.56000	318.16000
2.57000	317.88000
2.58000	320.91000
2.59000	322.40000
2.60000	323.61000
2.61000	319.87000
2.62000	319.16000
2.63000	319.39000
2.64000	319.36000
2.65000	320.37000
2.66000	320.47000
2.67000	319.73000
2.68000	316.99000
2.69000	317.24000
2.70000	318.08000
2.71000	320.59000
2.72000	319.89000
2.73000	318.67000
2.74000	317.05000
2.75000	318.78000
2.76000	318.12000
2.77000	320.32000
2.78000	318.24000
2.79000	318.52000
2.80000	316.19000
2.81000	318.03000
2.82000	316.30000
2.83000	318.58000
2.84000	317.89000
2.85000	318.79000
2.86000	314.82000
2.87000	315.14000
2.88000	316.27000
2.89000	317.35000
2.90000	319.16000
2.91000	317.46000
2.92000	315.55000
2.93000	317.47000
2.94000	315.27000
2.95000	317.69000
2.96000	315.88000
2.97000	316.20000
2.98000	313.29000
2.99000	314.92000
3.00000	316.17000
3.01000	317.46000
3.02000	315.50000
3.03000	314.49000
3.04000	313.18000
3.05000	314.18000
3.06000	313.32000
3.07000	315.61000
3.08000	313.66000
3.09000	311.03000
3.10000	310.90000
3.11000	313.20000
3.12000	312.11000
3.13000	314.88000
3.14000	314.13000
3.15000	313.87000
3.16000	312.17000
3.17000	312.62000
3.18000	313.37000
3.19000	314.04000
3.20000	314.83000
3.21000	313.82000
3.22000	312.05000
3.23000	313.08000
3.24000	312.03000
3.25000	314.01000
3.26000	312.29000
3.27000	311.82000
3.28000	310.58000
3.29000	310.44000
3.30000	311.08000
3.31000	311.74000
3.32000	311.85000
3.33000	311.42000
3.34000	309.30000
3.35000	312.21000
3.36000	309.43000
3.37000	312.35000
3.38000	310.29000
3.39000	310.66000
3.40000	309.34000
3.41000	310.17000
3.42000	311.07000
3.43000	311.89000
3.44000	309.05000
3.45000	308.75000
3.46000	308.63000
3.47000	310.07000
3.48000	310.68000
3.49000	315.21000
3.50000	313.64000
3.51000	313.11000
3.52000	310.47000
3.53000	311.81000
3.54000	311.37000
3.55000	315.40000
3.56000	315.25000
3.57000	317.27000
3.58000	315.88000
3.59000	323.42000
3.60000	330.16000
3.61000	336.38000
3.62000	347.42000
3.63000	369.29000
3.64000	402.44000
3.65000	463.88000
3.66000	559.97000
3.67000	692.42000
3.68000	819.47000
3.69000	894.26000
3.70000	858.33000
3.71000	741.95000
3.72000	602.56000
3.73000	485.11000
3.74000	398.51000
3.75000	354.77000
3.76000	331.08000
3.77000	324.69000
3.78000	317.48000
3.79000	316.47000
3.80000	313.96000
3.81000	312.84000
3.82000	310.67000
3.83000	308.80000
3.84000	309.72000
3.85000	310.58000
3.86000	307.51000
3.87000	306.54000
3.88000	304.68000
3.89000	306.77000
3.90000	307.30000
3.91000	309.60000
3.92000	307.81000
3.93000	307.04000
3.94000	306.65000
3.95000	304.29000
3.96000	306.24000
3.97000	309.92000
3.98000	308.98000
3.99000	306.50000
4.00000	306.53000
4.01000	305.57000
4.02000	305.14000
4.03000	307.93000
4.04000	305.73000
4.05000	306.77000
4.06000	304.29000
4.07000	304.89000
4.08000	304.64000
4.09000	306.53000
4.10000	305.46000
4.11000	304.86000
4.12000	302.49000
4.13000	306.65000
4.14000	305.96000
4.15000	307.14000
4.16000	307.12000
4.17000	308.24000
4.18000	303.80000
4.19000	306.98000
4.20000	305.73000
4.21000	307.60000
4.22000	307.15000
4.23000	304.67000
4.24000	304.13000
4.25000	305.23000
4.26000	303.33000
4.27000	307.39000
4.28000	305.98000
4.29000	304.57000
4.30000	303.93000
4.31000	306.03000
4.32000	308.96000
4.33000	308.65000
4.34000	307.07000
4.35000	308.29000
4.36000	304.86000
4.37000	306.45000
4.38000	306.43000
4.39000	306.87000
4.40000	305.07000
4.41000	305.10000
4.42000	303.91000
4.43000	304.66000
4.44000	305.58000
4.45000	307.58000
4.46000	306.28000
4.47000	305.02000
4.48000	303.49000
4.49000	306.07000
4.50000	307.02000
4.51000	305.96000
4.52000	305.04000
4.53000	306.81000
4.54000	302.61000
4.55000	304.15000
4.56000	305.73000
4.57000	307.46000
4.58000	303.67000
4.59000	304.08000
4.60000	301.86000
4.61000	303.56000
4.62000	303.51000
4.63000	305.50000
4.64000	304.50000
4.65000	305.35000
4.66000	302.46000
4.67000	304.87000
4.68000	304.14000
4.69000	304.99000
4.70000	304.79000
4.71000	305.31000
4.72000	301.75000
4.73000	303.21000
4.74000	304.64000
4.75000	306.44000
4.76000	307.26000
4.77000	306.09000
4.78000	302.41000
4.79000	304.92000
4.80000	303.14000
4.81000	306.18000
4.82000	305.88000
4.83000	306.67000
4.84000	304.24000
4.85000	303.62000
4.86000	306.12000
4.87000	306.93000
4.88000	305.89000
4.89000	307.22000
4.90000	303.33000
4.91000	305.69000
4.92000	303.63000
4.93000	306.61000
4.94000	305.82000
4.95000	305.41000
4.96000	302.54000
4.97000	306.29000
4.98000	304.77000
4.99000	305.89000
5.00000	306.48000
5.01000	305.98000
5.02000	303.40000
5.03000	302.94000
5.04000	304.43000
5.05000	306.31000
5.06000	305.12000
5.07000	307.17000
5.08000	303.40000
5.09000	306.94000
5.10000	305.38000
5.11000	308.22000
5.12000	304.96000
5.13000	306.26000
5.14000	302.13000
5.15000	305.60000
5.16000	306.02000
5.17000	307.09000
5.18000	307.26000
5.19000	305.43000
5.20000	302.72000
5.21000	306.65000
5.22000	307.60000
5.23000	308.63000
5.24000	308.33000
5.25000	309.24000
5.26000	305.58000
5.27000	307.65000
5.28000	308.47000
5.29000	309.22000
5.30000	309.42000
5.31000	308.51000
5.32000	305.78000
5.33000	308.07000
5.34000	307.49000
5.35000	310.61000
5.36000	309.24000
5.37000	312.53000
5.38000	310.44000
5.39000	311.02000
5.40000	309.66000
5.41000	313.77000
5.42000	312.61000
5.43000	315.72000
5.44000	310.12000
5.45000	315.18000
5.46000	318.31000
5.47000	323.83000
5.48000	327.11000
5.49000	340.25000
5.50000	356.03000
5.51000	393.72000
5.52000	438.68000
5.53000	489.82000
5.54000	524.87000
5.55000	556.05000
5.56000	565.95000
5.57000	557.24000
5.58000	533.24000
5.59000	491.19000
5.60000	446.30000
5.61000	407.14000
5.62000	373.32000
5.63000	353.21000
5.64000	339.20000
5.65000	332.77000
5.66000	327.50000
5.67000	324.28000
5.68000	321.18000
5.69000	320.12000
5.70000	320.22000
5.71000	321.67000
5.72000	319.08000
5.73000	319.86000
5.74000	317.68000
5.75000	321.54000
5.76000	323.01000
5.77000	332.33000
5.78000	337.90000
5.79000	352.33000
5.80000	373.44000
5.81000	400.39000
5.82000	418.78000
5.83000	426.39000
5.84000	411.96000
5.85000	384.91000
5.86000	359.67000
5.87000	343.51000
5.88000	329.53000
5.89000	327.09000
5.90000	322.82000
5.91000	324.45000
5.92000	320.98000
5.93000	322.34000
5.94000	321.52000
5.95000	325.83000
5.96000	326.37000
5.97000	328.73000
5.98000	330.99000
5.99000	339.35000
6.00000	351.13000
6.01000	371.72000
6.02000	398.34000
6.03000	447.79000
6.04000	512.69000
6.05000	612.44000
6.06000	703.44000
6.07000	755.83000
6.08000	757.49000
6.09000	740.34000
6.10000	738.51000
6.11000	788.53000
6.12000	854.95000
6.13000	895.82000
6.14000	853.09000
6.15000	752.27000
6.16000	622.80000
6.17000	510.62000
6.18000	428.19000
6.19000	377.26000
6.20000	351.27000
6.21000	337.28000
6.22000	327.93000
6.23000	324.89000
6.24000	324.27000
6.25000	324.12000
6.26000	320.47000
6.27000	320.17000
6.28000	317.74000
6.29000	319.18000
6.30000	318.66000
6.31000	321.62000
6.32000	320.84000
6.33000	320.56000
6.34000	318.35000
6.35000	319.18000
6.36000	319.56000
6.37000	321.10000
6.38000	321.56000
6.39000	322.67000
6.40000	322.48000
6.41000	323.90000
6.42000	327.43000
6.43000	331.03000
6.44000	335.14000
6.45000	339.60000
6.46000	345.05000
6.47000	360.87000
6.48000	378.34000
6.49000	405.40000
6.50000	441.03000
6.51000	491.88000
6.52000	544.81000
6.53000	597.03000
6.54000	629.19000
6.55000	620.05000
6.56000	569.92000
6.57000	504.38000
6.58000	446.14000
6.59000	399.20000
6.60000	363.92000
6.61000	348.74000
6.62000	334.57000
6.63000	331.89000
6.64000	322.64000
6.65000	323.99000
6.66000	321.98000
6.67000	323.37000
6.68000	321.57000
6.69000	320.69000
6.70000	318.69000
6.71000	319.28000
6.72000	319.31000
6.73000	321.36000
6.74000	321.24000
6.75000	319.95000
6.76000	317.49000
6.77000	319.47000
6.78000	321.42000
6.79000	322.26000
6.80000	320.68000
6.81000	321.10000
6.82000	319.66000
6.83000	323.86000
6.84000	320.63000
6.85000	322.73000
6.86000	322.77000
6.87000	322.21000
6.88000	321.25000
6.89000	325.14000
6.90000	323.17000
6.91000	325.34000
6.92000	324.76000
6.93000	324.14000
6.94000	321.15000
6.95000	323.75000
6.96000	324.30000
6.97000	324.39000
6.98000	323.91000
6.99000	324.17000
7.00000	321.85000
7.01000	323.82000
7.02000	323.54000
7.03000	326.01000
7.04000	324.67000
7.05000	326.31000
7.06000	322.22000
7.07000	324.63000
7.08000	325.11000
7.09000	328.51000
7.10000	327.99000
7.11000	329.53000
7.12000	323.86000
7.13000	328.64000
7.14000	326.66000
7.15000	331.36000
7.16000	329.77000
7.17000	331.73000
7.18000	329.96000
7.19000	334.44000
7.20000	332.76000
7.21000	339.42000
7.22000	338.44000
7.23000	341.35000
7.24000	339.60000
7.25000	345.95000
7.26000	349.89000
7.27000	355.66000
7.28000	360.93000
7.29000	372.36000
7.30000	380.53000
7.31000	397.59000
7.32000	425.28000
7.33000	465.25000
7.34000	515.47000
7.35000	596.16000
7.36000	701.09000
7.37000	842.39000
7.38000	976.86000
7.39000	1084.20000
7.40000	1113.79000
7.41000	1072.27000
7.42000	947.83000
7.43000	800.88000
7.44000	647.35000
7.45000	528.88000
7.46000	449.08000
7.47000	399.64000
7.48000	370.48000
7.49000	357.77000
7.50000	350.60000
7.51000	348.72000
7.52000	344.19000
7.53000	341.88000
7.54000	339.54000
7.55000	341.45000
7.56000	338.73000
7.57000	340.71000
7.58000	338.07000
7.59000	338.29000
7.60000	337.46000
7.61000	337.48000
7.62000	338.73000
7.63000	339.80000
7.64000	341.59000
7.65000	338.24000
7.66000	337.59000
7.67000	339.23000
7.68000	339.73000
7.69000	341.52000
7.70000	342.36000
7.71000	341.87000
7.72000	342.83000
7.73000	345.00000
7.74000	348.40000
7.75000	352.89000
7.76000	351.41000
7.77000	353.42000
7.78000	350.06000
7.79000	349.36000
7.80000	347.70000
7.81000	348.17000
7.82000	350.23000
7.83000	349.03000
7.84000	348.37000
7.85000	352.26000
7.86000	353.68000
7.87000	357.80000
7.88000	361.22000
7.89000	367.66000
7.90000	375.62000
7.91000	387.98000
7.92000	410.60000
7.93000	440.71000
7.94000	478.41000
7.95000	523.62000
7.96000	557.50000
7.97000	582.06000
7.98000	567.82000
7.99000	540.06000
8.00000	496.62000
8.01000	466.68000
8.02000	443.62000
8.03000	439.85000
8.04000	447.16000
8.05000	468.88000
8.06000	502.91000
8.07000	549.32000
8.08000	605.81000
8.09000	665.60000
8.10000	717.04000
8.11000	752.38000
8.12000	744.41000
8.13000	703.00000
8.14000	633.30000
8.15000	563.85000
8.16000	496.17000
8.17000	443.82000
8.18000	411.15000
8.19000	391.27000
8.20000	374.17000
8.21000	369.36000
8.22000	366.50000
8.23000	367.08000
8.24000	364.75000
8.25000	364.85000
8.26000	365.30000
8.27000	364.70000
8.28000	365.33000
8.29000	369.54000
8.30000	372.06000
8.31000	373.36000
8.32000	377.02000
8.33000	388.55000
8.34000	401.84000
8.35000	427.39000
8.36000	466.26000
8.37000	513.55000
8.38000	555.01000
8.39000	593.99000
8.40000	607.25000
8.41000	598.11000
8.42000	562.69000
8.43000	519.82000
8.44000	480.03000
8.45000	457.29000
8.46000	442.52000
8.47000	437.98000
8.48000	441.42000
8.49000	459.73000
8.50000	488.70000
8.51000	550.70000
8.52000	652.74000
8.53000	835.85000
8.54000	1085.67000
8.55000	1391.78000
8.56000	1693.18000
8.57000	1960.57000
8.58000	2110.97000
8.59000	2145.18000
8.60000	2050.19000
8.61000	1857.86000
8.62000	1599.04000
8.63000	1339.67000
8.64000	1100.06000
8.65000	911.77000
8.66000	789.29000
8.67000	723.64000
8.68000	707.26000
8.69000	744.76000
8.70000	797.46000
8.71000	850.48000
8.72000	858.85000
8.73000	820.95000
8.74000	742.30000
8.75000	658.00000
8.76000	576.45000
8.77000	513.26000
8.78000	463.85000
8.79000	434.66000
8.80000	409.74000
8.81000	401.11000
8.82000	394.83000
8.83000	387.97000
8.84000	384.49000
8.85000	380.13000
8.86000	377.26000
8.87000	376.69000
8.88000	375.79000
8.89000	378.30000
8.90000	374.90000
8.91000	374.52000
8.92000	372.37000
8.93000	374.16000
8.94000	376.03000
8.95000	375.01000
8.96000	375.51000
8.97000	374.33000
8.98000	372.30000
8.99000	373.92000
9.00000	376.62000
9.01000	376.21000
9.02000	376.08000
9.03000	378.39000
9.04000	375.76000
9.05000	379.09000
9.06000	377.82000
9.07000	380.00000
9.08000	381.41000
9.09000	385.92000
9.10000	385.39000
9.11000	390.98000
9.12000	394.53000
9.13000	402.48000
9.14000	411.70000
9.15000	419.55000
9.16000	421.10000
9.17000	428.52000
9.18000	433.96000
9.19000	439.15000
9.20000	441.96000
9.21000	445.05000
9.22000	437.09000
9.23000	440.19000
9.24000	439.47000
9.25000	445.02000
9.26000	445.96000
9.27000	445.66000
9.28000	443.53000
9.29000	444.20000
9.30000	443.50000
9.31000	441.53000
9.32000	435.19000
9.33000	428.50000
9.34000	420.46000
9.35000	416.83000
9.36000	407.08000
9.37000	406.08000
9.38000	402.84000
9.39000	400.98000
9.40000	396.02000
9.41000	399.64000
9.42000	401.73000
9.43000	400.91000
9.44000	402.91000
9.45000	408.03000
9.46000	406.37000
9.47000	412.87000
9.48000	416.62000
9.49000	430.58000
9.50000	441.81000
9.51000	465.31000
9.52000	495.04000
9.53000	550.63000
9.54000	621.66000
9.55000	715.88000
9.56000	809.48000
9.57000	902.55000
9.58000	967.78000
9.59000	1006.91000
9.60000	1000.94000
9.61000	955.02000
9.62000	871.51000
9.63000	778.18000
9.64000	687.63000
9.65000	618.15000
9.66000	558.24000
9.67000	515.08000
9.68000	483.06000
9.69000	462.62000
9.70000	444.21000
9.71000	438.19000
9.72000	428.94000
9.73000	423.91000
9.74000	421.38000
9.75000	418.17000
9.76000	414.43000
9.77000	415.03000
9.78000	413.79000
9.79000	416.15000
9.80000	412.25000
9.81000	412.71000
9.82000	408.82000
9.83000	413.49000
9.84000	412.59000
9.85000	414.53000
9.86000	415.35000
9.87000	417.23000
9.88000	413.75000
9.89000	419.48000
9.90000	422.79000
9.91000	429.06000
9.92000	430.30000
9.93000	437.27000
9.94000	435.17000
9.95000	442.05000
9.96000	439.51000
9.97000	442.00000
9.98000	438.79000
9.99000	437.29000
10.00000	429.78000
10.01000	431.61000
10.02000	430.33000
10.03000	435.36000
10.04000	435.32000
10.05000	438.67000
10.06000	437.95000
10.07000	440.93000
10.08000	443.67000
10.09000	452.57000
10.10000	456.61000
10.11000	460.67000
10.12000	465.50000
10.13000	477.29000
10.14000	490.15000
10.15000	509.61000
10.16000	530.18000
10.17000	556.41000
10.18000	587.43000
10.19000	634.94000
10.20000	697.36000
10.21000	781.31000
10.22000	893.47000
10.23000	1045.55000
10.24000	1250.00000
10.25000	1552.77000
10.26000	1914.19000
10.27000	2335.32000
10.28000	2660.53000
10.29000	2818.94000
10.30000	2657.65000
10.31000	2333.20000
10.32000	1891.32000
10.33000	1464.91000
10.34000	1116.71000
10.35000	877.16000
10.36000	715.43000
10.37000	622.75000
10.38000	565.02000
10.39000	532.28000
10.40000	507.08000
10.41000	492.09000
10.42000	479.38000
10.43000	472.88000
10.44000	465.45000
10.45000	466.44000
10.46000	457.59000
10.47000	455.64000
10.48000	450.32000
10.49000	448.18000
10.50000	450.83000
10.51000	449.86000
10.52000	450.78000
10.53000	449.18000
10.54000	448.07000
10.55000	449.01000
10.56000	448.87000
10.57000	452.28000
10.58000	449.73000
10.59000	451.12000
10.60000	449.70000
10.61000	452.96000
10.62000	455.93000
10.63000	460.06000
10.64000	464.93000
10.65000	467.01000
10.66000	474.56000
10.67000	484.22000
10.68000	494.00000
10.69000	509.28000
10.70000	519.81000
10.71000	534.61000
10.72000	550.15000
10.73000	578.92000
10.74000	608.95000
10.75000	654.57000
10.76000	706.11000
10.77000	773.38000
10.78000	840.77000
10.79000	922.62000
10.80000	989.62000
10.81000	1022.86000
10.82000	1004.07000
10.83000	950.90000
10.84000	860.11000
10.85000	760.72000
10.86000	669.45000
10.87000	595.91000
10.88000	540.84000
10.89000	511.43000
10.90000	487.89000
10.91000	481.63000
10.92000	473.04000
10.93000	474.84000
10.94000	476.57000
10.95000	478.63000
10.96000	478.93000
10.97000	487.83000
10.98000	496.27000
10.99000	508.86000
11.00000	516.40000
11.01000	520.11000
11.02000	521.02000
11.03000	522.38000
11.04000	517.20000
11.05000	519.02000
11.06000	512.25000
11.07000	511.16000
11.08000	508.07000
11.09000	514.31000
11.10000	518.29000
11.11000	520.09000
11.12000	523.77000
11.13000	526.61000
11.14000	523.81000
11.15000	523.28000
11.16000	524.69000
11.17000	524.35000
11.18000	528.43000
11.19000	526.76000
11.20000	517.00000
11.21000	519.14000
11.22000	509.70000
11.23000	502.60000
11.24000	494.45000
11.25000	488.92000
11.26000	476.15000
11.27000	478.37000
11.28000	475.45000
11.29000	478.73000
11.30000	476.03000
11.31000	476.81000
11.32000	474.37000
11.33000	478.57000
11.34000	480.27000
11.35000	487.39000
11.36000	491.50000
11.37000	495.49000
11.38000	502.21000
11.39000	516.95000
11.40000	529.31000
11.41000	541.66000
11.42000	548.45000
11.43000	558.35000
11.44000	554.98000
11.45000	546.74000
11.46000	540.71000
11.47000	528.04000
11.48000	517.77000
11.49000	508.37000
11.50000	495.48000
11.51000	496.55000
11.52000	496.97000
11.53000	500.03000
11.54000	503.22000
11.55000	511.18000
11.56000	515.02000
11.57000	534.36000
11.58000	552.04000
11.59000	583.82000
11.60000	619.75000
11.61000	675.38000
11.62000	733.46000
11.63000	809.87000
11.64000	873.62000
11.65000	921.43000
11.66000	915.19000
11.67000	865.14000
11.68000	782.03000
11.69000	701.09000
11.70000	634.60000
11.71000	585.65000
11.72000	545.65000
11.73000	524.17000
11.74000	505.12000
11.75000	498.19000
11.76000	496.28000
11.77000	496.50000
11.78000	490.80000
11.79000	488.68000
11.80000	484.07000
11.81000	486.88000
11.82000	488.30000
11.83000	491.23000
11.84000	489.79000
11.85000	489.89000
11.86000	486.31000
11.87000	487.29000
11.88000	487.89000
11.89000	490.65000
11.90000	491.52000
11.91000	491.09000
11.92000	486.11000
11.93000	492.32000
11.94000	490.81000
11.95000	496.63000
11.96000	495.38000
11.97000	496.20000
11.98000	493.38000
11.99000	499.74000
12.00000	500.82000
12.01000	506.45000
12.02000	507.45000
12.03000	509.59000
12.04000	510.06000
12.05000	525.22000
12.06000	533.81000
12.07000	548.02000
12.08000	557.89000
12.09000	580.97000
12.10000	599.90000
12.11000	630.87000
12.12000	657.33000
12.13000	685.30000
12.14000	702.30000
12.15000	710.42000
12.16000	704.36000
12.17000	711.29000
12.18000	711.75000
12.19000	715.10000
12.20000	713.19000
12.21000	710.48000
12.22000	706.03000
12.23000	712.17000
12.24000	720.49000
12.25000	740.81000
12.26000	766.78000
12.27000	796.55000
12.28000	829.67000
12.29000	871.79000
12.30000	901.59000
12.31000	920.36000
12.32000	923.92000
12.33000	915.04000
12.34000	893.73000
12.35000	881.55000
12.36000	867.67000
12.37000	849.35000
12.38000	823.76000
12.39000	792.60000
12.40000	753.01000
12.41000	719.82000
12.42000	678.99000
12.43000	648.95000
12.44000	615.93000
12.45000	588.63000
12.46000	563.91000
12.47000	548.10000
12.48000	537.72000
12.49000	530.03000
12.50000	523.13000
12.51000	519.26000
12.52000	511.02000
12.53000	512.45000
12.54000	509.39000
12.55000	511.83000
12.56000	510.10000
12.57000	509.62000
12.58000	505.38000
12.59000	508.55000
12.60000	509.45000
12.61000	511.26000
12.62000	514.09000
12.63000	515.70000
12.64000	516.38000
12.65000	523.73000
12.66000	532.04000
12.67000	543.91000
12.68000	554.89000
12.69000	568.96000
12.70000	585.41000
12.71000	600.43000
12.72000	612.54000
12.73000	625.80000
12.74000	627.95000
12.75000	634.77000
12.76000	637.44000
12.77000	661.65000
12.78000	677.07000
12.79000	700.81000
12.80000	709.34000
12.81000	716.74000
12.82000	709.93000
12.83000	707.57000
12.84000	703.97000
12.85000	712.71000
12.86000	724.49000
12.87000	731.06000
12.88000	720.31000
12.89000	706.93000
12.90000	674.64000
12.91000	638.97000
12.92000	604.05000
12.93000	580.46000
12.94000	553.69000
12.95000	542.97000
12.96000	534.08000
12.97000	533.35000
12.98000	529.60000
12.99000	531.80000
13.00000	531.01000
13.01000	538.76000
13.02000	544.81000
13.03000	557.95000
13.04000	575.43000
13.05000	596.90000
13.06000	609.12000
13.07000	637.50000
13.08000	665.79000
13.09000	696.25000
13.10000	718.75000
13.11000	733.64000
13.12000	731.77000
13.13000	722.21000
13.14000	700.03000
13.15000	674.57000
13.16000	636.02000
13.17000	605.81000
13.18000	573.95000
13.19000	552.84000
13.20000	535.40000
13.21000	523.25000
13.22000	514.01000
13.23000	506.25000
13.24000	497.57000
13.25000	501.91000
13.26000	500.12000
13.27000	500.82000
13.28000	500.95000
13.29000	497.40000
13.30000	493.24000
13.31000	493.47000
13.32000	491.98000
13.33000	496.20000
13.34000	491.51000
13.35000	493.28000
13.36000	490.28000
13.37000	491.55000
13.38000	490.07000
13.39000	492.57000
13.40000	492.60000
13.41000	492.84000
13.42000	484.90000
13.43000	486.69000
13.44000	485.99000
13.45000	491.15000
13.46000	487.93000
13.47000	486.23000
13.48000	483.04000
13.49000	488.16000
13.50000	486.60000
13.51000	489.17000
13.52000	488.07000
13.53000	491.02000
13.54000	488.49000
13.55000	490.00000
13.56000	494.38000
13.57000	500.68000
13.58000	501.01000
13.59000	507.54000
13.60000	507.00000
13.61000	519.42000
13.62000	532.49000
13.63000	555.52000
13.64000	573.84000
13.65000	604.99000
13.66000	632.57000
13.67000	667.85000
13.68000	697.09000
13.69000	725.47000
13.70000	735.42000
13.71000	728.03000
13.72000	702.49000
13.73000	679.69000
13.74000	644.23000
13.75000	614.32000
13.76000	587.64000
13.77000	565.86000
13.78000	549.84000
13.79000	549.46000
13.80000	542.31000
13.81000	548.85000
13.82000	555.30000
13.83000	563.08000
13.84000	573.55000
13.85000	594.67000
13.86000	620.43000
13.87000	644.37000
13.88000	664.24000
13.89000	681.61000
13.90000	690.25000
13.91000	702.46000
13.92000	707.17000
13.93000	709.05000
13.94000	687.77000
13.95000	661.37000
13.96000	624.15000
13.97000	594.60000
13.98000	563.32000
13.99000	538.95000
14.00000	518.26000
14.01000	508.16000
14.02000	493.76000
14.03000	491.81000
14.04000	484.80000
14.05000	487.41000
14.06000	483.63000
14.07000	483.93000
14.08000	484.98000
14.09000	488.26000
14.10000	484.58000
14.11000	491.00000
14.12000	491.48000
14.13000	487.21000
14.14000	482.50000
14.15000	486.75000
14.16000	486.01000
14.17000	484.32000
14.18000	481.26000
14.19000	480.88000
14.20000	475.76000
14.21000	479.15000
14.22000	484.28000
14.23000	488.57000
14.24000	490.28000
14.25000	490.99000
14.26000	487.50000
14.27000	490.19000
14.28000	490.89000
14.29000	491.07000
14.30000	485.70000
14.31000	482.36000
14.32000	479.35000
14.33000	480.00000
14.34000	479.80000
14.35000	479.14000
14.36000	477.27000
14.37000	474.70000
14.38000	468.12000
14.39000	470.16000
14.40000	468.99000
14.41000	470.21000
14.42000	466.66000
14.43000	465.60000
14.44000	460.23000
14.45000	463.69000
14.46000	458.85000
14.47000	462.69000
14.48000	459.33000
14.49000	459.49000
14.50000	455.44000
14.51000	457.17000
14.52000	454.10000
14.53000	458.22000
14.54000	453.77000
14.55000	453.39000
14.56000	449.33000
14.57000	450.55000
14.58000	448.83000
14.59000	452.66000
14.60000	451.11000
14.61000	452.37000
14.62000	446.15000
14.63000	453.50000
14.64000	452.02000
14.65000	451.13000
14.66000	451.45000
14.67000	451.36000
14.68000	448.95000
14.69000	450.23000
14.70000	451.21000
14.71000	454.89000
14.72000	454.93000
14.73000	457.83000
14.74000	454.27000
14.75000	458.79000
14.76000	463.65000
14.77000	470.89000
14.78000	475.48000
14.79000	477.80000
14.80000	478.02000
14.81000	482.55000
14.82000	483.65000
14.83000	485.32000
14.84000	481.27000
14.85000	477.65000
14.86000	471.19000
14.87000	469.80000
14.88000	463.56000
14.89000	460.30000
14.90000	453.09000
14.91000	451.64000
14.92000	444.04000
14.93000	444.44000
14.94000	442.97000
14.95000	442.28000
14.96000	440.08000
14.97000	438.48000
14.98000	437.27000
14.99000	439.91000
15.00000	437.51000
15.01000	436.79000
15.02000	439.29000
15.03000	437.42000
15.04000	433.49000
15.05000	434.52000
15.06000	435.16000
15.07000	437.48000
15.08000	436.24000
15.09000	435.29000
15.10000	432.51000
15.11000	433.97000
15.12000	435.08000
15.13000	436.51000
15.14000	434.94000
15.15000	435.46000
15.16000	433.11000
15.17000	438.56000
15.18000	440.14000
15.19000	445.54000
15.20000	448.21000
15.21000	453.87000
15.22000	456.65000
15.23000	470.80000
15.24000	475.42000
15.25000	482.27000
15.26000	485.19000
15.27000	480.49000
15.28000	472.92000
15.29000	468.00000
15.30000	459.48000
15.31000	455.35000
15.32000	445.23000
15.33000	444.11000
15.34000	436.04000
15.35000	439.02000
15.36000	436.47000
15.37000	436.65000
15.38000	437.89000
15.39000	438.59000
15.40000	433.26000
15.41000	432.66000
15.42000	434.18000
15.43000	434.84000
15.44000	434.94000
15.45000	435.87000
15.46000	434.41000
15.47000	442.08000
15.48000	439.73000
15.49000	447.47000
15.50000	445.35000
15.51000	449.23000
15.52000	445.32000
15.53000	445.97000
15.54000	449.02000
15.55000	453.02000
15.56000	458.96000
15.57000	460.72000
15.58000	461.87000
15.59000	464.83000
15.60000	462.80000
15.61000	462.76000
15.62000	458.65000
15.63000	456.20000
15.64000	448.41000
15.65000	447.63000
15.66000	448.83000
15.67000	448.66000
15.68000	448.68000
15.69000	453.64000
15.70000	449.35000
15.71000	455.46000
15.72000	451.29000
15.73000	456.31000
15.74000	454.00000
15.75000	454.38000
15.76000	450.52000
15.77000	453.90000
15.78000	453.04000
15.79000	451.44000
15.80000	446.60000
15.81000	444.30000
15.82000	435.27000
15.83000	434.71000
15.84000	435.86000
15.85000	435.01000
15.86000	433.56000
15.87000	438.31000
15.88000	437.32000
15.89000	445.36000
15.90000	451.55000
15.91000	461.01000
15.92000	467.71000
15.93000	475.92000
15.94000	471.35000
15.95000	477.25000
15.96000	467.02000
15.97000	459.76000
15.98000	447.83000
15.99000	437.96000
16.00000	424.36000
16.01000	420.08000
16.02000	415.75000
16.03000	411.80000
16.04000	407.30000
16.05000	406.94000
16.06000	403.82000
16.07000	404.12000
16.08000	402.44000
16.09000	405.38000
16.10000	405.23000
16.11000	407.65000
16.12000	404.40000
16.13000	405.93000
16.14000	406.76000
16.15000	411.74000
16.16000	413.66000
16.17000	418.26000
16.18000	415.80000
16.19000	421.24000
16.20000	426.29000
16.21000	430.06000
16.22000	434.95000
16.23000	438.69000
16.24000	441.12000
16.25000	445.83000
16.26000	449.19000
16.27000	453.89000
16.28000	452.76000
16.29000	453.55000
16.30000	446.79000
16.31000	443.18000
16.32000	435.90000
16.33000	430.90000
16.34000	423.56000
16.35000	417.45000
16.36000	408.52000
16.37000	407.38000
16.38000	406.27000
16.39000	402.89000
16.40000	401.10000
16.41000	398.09000
16.42000	395.86000
16.43000	399.36000
16.44000	402.04000
16.45000	403.57000
16.46000	407.20000
16.47000	407.98000
16.48000	409.84000
16.49000	416.20000
16.50000	416.16000
16.51000	417.02000
16.52000	414.41000
16.53000	406.89000
16.54000	399.22000
16.55000	398.52000
16.56000	393.89000
16.57000	394.52000
16.58000	390.99000
16.59000	391.06000
16.60000	387.97000
16.61000	391.23000
16.62000	391.02000
16.63000	396.40000
16.64000	397.94000
16.65000	398.77000
16.66000	396.67000
16.67000	401.63000
16.68000	401.98000
16.69000	402.53000
16.70000	401.30000
16.71000	398.03000
16.72000	393.53000
16.73000	396.71000
16.74000	398.37000
16.75000	395.46000
16.76000	395.96000
16.77000	395.80000
16.78000	390.98000
16.79000	395.57000
16.80000	393.30000
16.81000	398.08000
16.82000	396.57000
16.83000	397.68000
16.84000	398.44000
16.85000	398.23000
16.86000	397.37000
16.87000	401.30000
16.88000	396.82000
16.89000	395.63000
16.90000	388.73000
16.91000	392.76000
16.92000	390.06000
16.93000	390.73000
16.94000	388.92000
16.95000	389.16000
16.96000	382.75000
16.97000	382.29000
16.98000	378.51000
16.99000	376.32000
17.00000	374.48000
17.01000	370.71000
17.02000	366.13000
17.03000	364.68000
17.04000	362.99000
17.05000	361.21000
17.06000	357.52000
17.07000	356.87000
17.08000	352.25000
17.09000	355.37000
17.10000	352.04000
17.11000	354.92000
17.12000	353.68000
17.13000	351.24000
17.14000	354.01000
17.15000	357.85000
17.16000	356.72000
17.17000	358.36000
17.18000	358.85000
17.19000	359.24000
17.20000	355.22000
17.21000	359.28000
17.22000	358.51000
17.23000	359.48000
17.24000	360.63000
17.25000	359.16000
17.26000	355.81000
17.27000	355.52000
17.28000	355.04000
17.29000	358.29000
17.30000	356.45000
17.31000	355.36000
17.32000	350.48000
17.33000	353.96000
17.34000	352.79000
17.35000	357.52000
17.36000	354.19000
17.37000	356.09000
17.38000	352.35000
17.39000	356.62000
17.40000	357.37000
17.41000	357.75000
17.42000	358.62000
17.43000	361.52000
17.44000	366.04000
17.45000	369.04000
17.46000	370.60000
17.47000	379.43000
17.48000	383.80000
17.49000	386.67000
17.50000	383.41000
17.51000	389.17000
17.52000	388.12000
17.53000	392.70000
17.54000	394.76000
17.55000	398.30000
17.56000	398.56000
17.57000	403.85000
17.58000	404.43000
17.59000	403.03000
17.60000	397.27000
17.61000	389.81000
17.62000	375.94000
17.63000	368.75000
17.64000	359.08000
17.65000	355.72000
17.66000	349.05000
17.67000	341.89000
17.68000	336.98000
17.69000	336.85000
17.70000	334.99000
17.71000	334.87000
17.72000	332.22000
17.73000	330.09000
17.74000	327.08000
17.75000	328.72000
17.76000	327.27000
17.77000	330.79000
17.78000	328.90000
17.79000	328.36000
17.80000	325.27000
17.81000	331.52000
17.82000	331.38000
17.83000	332.47000
17.84000	334.86000
17.85000	335.34000
17.86000	335.85000
17.87000	336.92000
17.88000	335.03000
17.89000	336.31000
17.90000	335.79000
17.91000	329.40000
17.92000	327.24000
17.93000	324.79000
17.94000	322.31000
17.95000	321.34000
17.96000	318.66000
17.97000	315.73000
17.98000	313.10000
17.99000	311.18000
18.00000	310.66000
18.01000	313.27000
18.02000	314.52000
18.03000	311.79000
18.04000	311.23000
18.05000	312.83000
18.06000	313.04000
18.07000	315.98000
18.08000	315.66000
18.09000	313.97000
18.10000	313.36000
18.11000	313.56000
18.12000	315.96000
18.13000	313.78000
18.14000	315.55000
18.15000	315.44000
18.16000	314.14000
18.17000	316.70000
18.18000	318.73000
18.19000	320.85000
18.20000	321.83000
18.21000	322.10000
18.22000	320.07000
18.23000	323.54000
18.24000	321.72000
18.25000	325.82000
18.26000	324.59000
18.27000	326.58000
18.28000	326.93000
18.29000	331.95000
18.30000	334.51000
18.31000	338.12000
18.32000	342.33000
18.33000	344.35000
18.34000	340.51000
18.35000	345.69000
18.36000	345.07000
18.37000	345.12000
18.38000	344.74000
18.39000	341.25000
18.40000	338.47000
18.41000	339.40000
18.42000	335.57000
18.43000	334.97000
18.44000	331.10000
18.45000	332.42000
18.46000	328.09000
18.47000	326.75000
18.48000	324.75000
18.49000	324.60000
18.50000	320.87000
18.51000	317.68000
18.52000	312.12000
18.53000	308.36000
18.54000	303.96000
18.55000	306.14000
18.56000	301.67000
18.57000	299.47000
18.58000	295.76000
18.59000	296.70000
18.60000	296.40000
18.61000	296.19000
18.62000	296.02000
18.63000	297.27000
18.64000	295.60000
18.65000	299.13000
18.66000	300.92000
18.67000	303.93000
18.68000	306.79000
18.69000	309.84000
18.70000	311.04000
18.71000	316.72000
18.72000	319.87000
18.73000	325.20000
18.74000	328.20000
18.75000	333.78000
18.76000	331.06000
18.77000	334.45000
18.78000	331.81000
18.79000	330.59000
18.80000	327.82000
18.81000	320.84000
18.82000	312.25000
18.83000	310.69000
18.84000	306.03000
18.85000	304.10000
18.86000	300.90000
18.87000	299.35000
18.88000	294.29000
18.89000	295.60000
18.90000	295.14000
18.91000	296.66000
18.92000	298.81000
18.93000	297.03000
18.94000	298.41000
18.95000	301.30000
18.96000	305.15000
18.97000	308.14000
18.98000	310.17000
18.99000	314.98000
19.00000	314.54000
19.01000	317.08000
19.02000	315.93000
19.03000	318.75000
19.04000	316.32000
19.05000	315.02000
19.06000	307.74000
19.07000	308.52000
19.08000	302.30000
19.09000	299.07000
19.10000	294.77000
19.11000	290.56000
19.12000	286.10000
19.13000	283.38000
19.14000	279.87000
19.15000	281.80000
19.16000	277.08000
19.17000	277.16000
19.18000	275.46000
19.19000	278.37000
19.20000	277.46000
19.21000	280.01000
19.22000	281.69000
19.23000	280.50000
19.24000	279.27000
19.25000	277.92000
19.26000	280.39000
19.27000	281.19000
19.28000	280.80000
19.29000	279.70000
19.30000	278.33000
19.31000	279.78000
19.32000	277.91000
19.33000	277.44000
19.34000	273.07000
19.35000	273.54000
19.36000	272.20000
19.37000	272.42000
19.38000	271.03000
19.39000	270.72000
19.40000	269.17000
19.41000	269.25000
19.42000	266.61000
19.43000	268.19000
19.44000	268.00000
19.45000	269.19000
19.46000	267.03000
19.47000	267.54000
19.48000	264.28000
19.49000	267.72000
19.50000	268.31000
19.51000	268.97000
19.52000	268.03000
19.53000	269.38000
19.54000	266.45000
19.55000	268.48000
19.56000	270.21000
19.57000	274.04000
19.58000	276.90000
19.59000	277.48000
19.60000	278.31000
19.61000	284.35000
19.62000	284.49000
19.63000	290.79000
19.64000	294.22000
19.65000	297.30000
19.66000	300.43000
19.67000	309.46000
19.68000	317.69000
19.69000	323.06000
19.70000	330.86000
19.71000	333.26000
19.72000	332.46000
19.73000	333.12000
19.74000	328.82000
19.75000	324.68000
19.76000	315.74000
19.77000	308.38000
19.78000	300.25000
19.79000	295.33000
19.80000	291.51000
19.81000	287.15000
19.82000	283.57000
19.83000	279.13000
19.84000	275.66000
19.85000	274.76000
19.86000	274.49000
19.87000	276.16000
19.88000	272.55000
19.89000	273.57000
19.90000	272.27000
19.91000	274.64000
19.92000	275.31000
19.93000	278.56000
19.94000	279.27000
19.95000	280.42000
19.96000	278.45000
19.97000	281.09000
19.98000	282.02000
19.99000	282.37000
20.00000	281.07000
20.01000	282.87000
20.02000	282.43000
20.03000	284.82000
20.04000	285.65000
20.05000	285.09000
20.06000	284.83000
20.07000	286.29000
20.08000	284.05000
20.09000	283.80000
20.10000	285.62000
20.11000	285.57000
20.12000	284.98000
20.13000	286.99000
20.14000	284.46000
20.15000	289.18000
20.16000	292.81000
20.17000	297.49000
20.18000	303.30000
20.19000	307.85000
20.20000	312.99000
20.21000	318.74000
20.22000	321.65000
20.23000	326.19000
20.24000	325.71000
20.25000	322.39000
20.26000	318.04000
20.27000	316.18000
20.28000	311.64000
20.29000	311.06000
20.30000	305.89000
20.31000	301.51000
20.32000	292.61000
20.33000	291.37000
20.34000	290.13000
20.35000	288.46000
20.36000	283.97000
20.37000	282.42000
20.38000	279.93000
20.39000	280.18000
20.40000	277.09000
20.41000	279.42000
20.42000	276.20000
20.43000	278.91000
20.44000	274.18000
20.45000	276.21000
20.46000	276.84000
20.47000	279.39000
20.48000	281.11000
20.49000	281.05000
20.50000	279.78000
20.51000	282.46000
20.52000	281.76000
20.53000	284.20000
20.54000	279.39000
20.55000	275.09000
20.56000	271.66000
20.57000	271.09000
20.58000	270.34000
20.59000	268.77000
20.60000	266.09000
20.61000	266.33000
20.62000	261.95000
20.63000	264.80000
20.64000	265.84000
20.65000	265.92000
20.66000	265.18000
20.67000	266.39000
20.68000	265.15000
20.69000	267.23000
20.70000	268.32000
20.71000	267.76000
20.72000	270.39000
20.73000	271.07000
20.74000	267.29000
20.75000	269.99000
20.76000	269.50000
20.77000	271.04000
20.78000	271.98000
20.79000	272.31000
20.80000	271.67000
20.81000	276.27000
20.82000	279.26000
20.83000	282.82000
20.84000	288.64000
20.85000	292.19000
20.86000	291.91000
20.87000	296.10000
20.88000	298.88000
20.89000	301.58000
20.90000	299.56000
20.91000	298.91000
20.92000	294.46000
20.93000	295.95000
20.94000	293.12000
20.95000	294.71000
20.96000	290.42000
20.97000	290.41000
20.98000	289.16000
20.99000	288.88000
21.00000	288.10000
21.01000	289.49000
21.02000	289.22000
21.03000	292.01000
21.04000	290.89000
21.05000	294.79000
21.06000	295.95000
21.07000	300.10000
21.08000	302.84000
21.09000	301.80000
21.10000	302.76000
21.11000	306.97000
21.12000	306.95000
21.13000	310.52000
21.14000	310.56000
21.15000	309.68000
21.16000	305.78000
21.17000	305.77000
21.18000	306.69000
21.19000	305.73000
21.20000	303.52000
21.21000	306.35000
21.22000	303.09000
21.23000	301.59000
21.24000	300.90000
21.25000	300.90000
21.26000	297.58000
21.27000	293.85000
21.28000	288.45000
21.29000	286.38000
21.30000	282.99000
21.31000	283.02000
21.32000	278.77000
21.33000	277.05000
21.34000	272.47000
21.35000	272.74000
21.36000	270.45000
21.37000	271.34000
21.38000	270.31000
21.39000	268.16000
21.40000	268.05000
21.41000	270.78000
21.42000	270.60000
21.43000	274.76000
21.44000	276.43000
21.45000	275.72000
21.46000	276.37000
21.47000	279.27000
21.48000	280.08000
21.49000	282.07000
21.50000	279.79000
21.51000	280.99000
21.52000	275.17000
21.53000	276.25000
21.54000	276.57000
21.55000	276.50000
21.56000	275.17000
21.57000	274.23000
21.58000	270.66000
21.59000	272.34000
21.60000	269.76000
21.61000	269.61000
21.62000	267.51000
21.63000	267.45000
21.64000	263.40000
21.65000	268.43000
21.66000	267.09000
21.67000	266.01000
21.68000	267.42000
21.69000	265.79000
21.70000	263.29000
21.71000	265.25000
21.72000	266.91000
21.73000	268.35000
21.74000	267.88000
21.75000	268.99000
21.76000	267.07000
21.77000	268.69000
21.78000	268.68000
21.79000	271.57000
21.80000	273.60000
21.81000	275.54000
21.82000	274.66000
21.83000	278.30000
21.84000	282.22000
21.85000	284.27000
21.86000	286.55000
21.87000	288.97000
21.88000	291.05000
21.89000	295.98000
21.90000	296.90000
21.91000	303.51000
21.92000	304.30000
21.93000	308.54000
21.94000	305.10000
21.95000	309.61000
21.96000	306.68000
21.97000	307.04000
21.98000	303.25000
21.99000	302.43000
22.00000	293.76000
22.01000	294.19000
22.02000	291.20000
22.03000	290.78000
22.04000	286.52000
22.05000	285.25000
22.06000	278.55000
22.07000	281.54000
22.08000	277.66000
22.09000	278.51000
22.10000	278.17000
22.11000	279.81000
22.12000	275.18000
22.13000	277.45000
22.14000	276.91000
22.15000	277.35000
22.16000	276.57000
22.17000	274.00000
22.18000	272.64000
22.19000	272.62000
22.20000	271.88000
22.21000	272.04000
22.22000	271.37000
22.23000	268.97000
22.24000	267.61000
22.25000	266.46000
22.26000	265.73000
22.27000	267.24000
22.28000	262.85000
22.29000	263.45000
22.30000	263.31000
22.31000	263.15000
22.32000	263.38000
22.33000	267.03000
22.34000	265.62000
22.35000	265.99000
22.36000	263.09000
22.37000	266.86000
22.38000	267.20000
22.39000	271.77000
22.40000	272.39000
22.41000	274.37000
22.42000	274.41000
22.43000	278.18000
22.44000	279.75000
22.45000	282.85000
22.46000	283.58000
22.47000	283.65000
22.48000	283.56000
22.49000	283.96000
22.50000	283.13000
22.51000	285.92000
22.52000	282.69000
22.53000	281.10000
22.54000	278.67000
22.55000	280.43000
22.56000	278.60000
22.57000	277.27000
22.58000	273.88000
22.59000	271.96000
22.60000	269.71000
22.61000	268.42000
22.62000	266.80000
22.63000	265.65000
22.64000	263.41000
22.65000	262.73000
22.66000	260.02000
22.67000	260.74000
22.68000	260.38000
22.69000	261.52000
22.70000	259.97000
22.71000	259.01000
22.72000	257.54000
22.73000	260.08000
22.74000	260.28000
22.75000	261.24000
22.76000	264.41000
22.77000	265.23000
22.78000	261.97000
22.79000	266.57000
22.80000	269.20000
22.81000	270.66000
22.82000	269.43000
22.83000	271.72000
22.84000	270.48000
22.85000	273.18000
22.86000	273.06000
22.87000	273.60000
22.88000	272.71000
22.89000	277.11000
22.90000	272.29000
22.91000	276.18000
22.92000	277.09000
22.93000	278.56000
22.94000	281.51000
22.95000	281.87000
22.96000	279.02000
22.97000	283.64000
22.98000	284.29000
22.99000	289.06000
23.00000	287.96000
23.01000	291.05000
23.02000	288.18000
23.03000	289.90000
23.04000	289.52000
23.05000	286.22000
23.06000	283.57000
23.07000	281.04000
23.08000	273.49000
23.09000	270.71000
23.10000	268.46000
23.11000	267.68000
23.12000	263.65000
23.13000	261.80000
23.14000	259.50000
23.15000	261.38000
23.16000	260.54000
23.17000	261.91000
23.18000	261.42000
23.19000	261.09000
23.20000	260.13000
23.21000	263.76000
23.22000	264.57000
23.23000	267.97000
23.24000	268.46000
23.25000	269.90000
23.26000	270.45000
23.27000	272.65000
23.28000	275.08000
23.29000	278.95000
23.30000	279.72000
23.31000	279.46000
23.32000	277.52000
23.33000	280.87000
23.34000	281.54000
23.35000	279.20000
23.36000	277.74000
23.37000	278.90000
23.38000	275.01000
23.39000	272.52000
23.40000	271.40000
23.41000	270.07000
23.42000	266.95000
23.43000	266.94000
23.44000	266.89000
23.45000	265.80000
23.46000	266.18000
23.47000	267.33000
23.48000	266.31000
23.49000	267.01000
23.50000	265.42000
23.51000	264.73000
23.52000	264.29000
23.53000	264.77000
23.54000	265.27000
23.55000	265.50000
23.56000	263.30000
23.57000	266.68000
23.58000	267.46000
23.59000	270.95000
23.60000	267.91000
23.61000	267.84000
23.62000	265.58000
23.63000	265.02000
23.64000	264.90000
23.65000	263.93000
23.66000	260.54000
23.67000	261.23000
23.68000	256.47000
23.69000	257.52000
23.70000	256.36000
23.71000	257.50000
23.72000	254.68000
23.73000	254.84000
23.74000	253.59000
23.75000	255.52000
23.76000	254.40000
23.77000	253.94000
23.78000	255.03000
23.79000	256.86000
23.80000	254.42000
23.81000	256.75000
23.82000	257.78000
23.83000	257.78000
23.84000	257.53000
23.85000	257.55000
23.86000	254.62000
23.87000	254.39000
23.88000	254.34000
23.89000	256.75000
23.90000	254.03000
23.91000	251.31000
23.92000	251.29000
23.93000	253.59000
23.94000	253.69000
23.95000	256.21000
23.96000	257.09000
23.97000	258.27000
23.98000	257.12000
23.99000	260.88000
24.00000	265.54000
24.01000	268.21000
24.02000	268.23000
24.03000	267.92000
24.04000	266.29000
24.05000	271.42000
24.06000	269.24000
24.07000	271.14000
24.08000	269.66000
24.09000	267.27000
24.10000	262.34000
24.11000	262.47000
24.12000	259.90000
24.13000	259.44000
24.14000	256.52000
24.15000	256.69000
24.16000	252.47000
24.17000	252.52000
24.18000	250.76000
24.19000	253.89000
24.20000	253.52000
24.21000	252.83000
24.22000	250.89000
24.23000	255.17000
24.24000	253.99000
24.25000	255.97000
24.26000	256.26000
24.27000	256.78000
24.28000	254.79000
24.29000	257.02000
24.30000	255.93000
24.31000	258.72000
24.32000	258.70000
24.33000	258.62000
24.34000	255.70000
24.35000	257.64000
24.36000	255.82000
24.37000	257.80000
24.38000	257.48000
24.39000	258.25000
24.40000	254.93000
24.41000	257.43000
24.42000	260.86000
24.43000	260.91000
24.44000	261.16000
24.45000	260.33000
24.46000	256.62000
24.47000	258.97000
24.48000	257.10000
24.49000	257.16000
24.50000	255.99000
24.51000	256.12000
24.52000	253.17000
24.53000	253.33000
24.54000	251.25000
24.55000	252.11000
24.56000	250.65000
24.57000	250.60000
24.58000	248.90000
24.59000	247.23000
24.60000	248.02000
24.61000	248.87000
24.62000	249.63000
24.63000	249.87000
24.64000	247.91000
24.65000	249.55000
24.66000	251.21000
24.67000	252.55000
24.68000	252.76000
24.69000	254.45000
24.70000	254.73000
24.71000	260.28000
24.72000	260.02000
24.73000	261.59000
24.74000	262.61000
24.75000	263.29000
24.76000	261.73000
24.77000	264.37000
24.78000	265.83000
24.79000	267.26000
24.80000	267.02000
24.81000	266.76000
24.82000	266.30000
24.83000	265.63000
24.84000	264.88000
24.85000	266.84000
24.86000	265.15000
24.87000	265.38000
24.88000	260.70000
24.89000	263.39000
24.90000	262.72000
24.91000	263.80000
24.92000	262.93000
24.93000	261.91000
24.94000	260.94000
24.95000	260.17000
24.96000	259.99000
24.97000	263.51000
24.98000	263.19000
24.99000	263.93000
25.00000	261.17000
25.01000	262.77000
25.02000	264.19000
25.03000	268.52000
25.04000	265.93000
25.05000	267.13000
25.06000	264.47000
25.07000	266.07000
25.08000	265.99000
25.09000	267.94000
25.10000	265.21000
25.11000	260.53000
25.12000	260.04000
25.13000	257.11000
25.14000	255.90000
25.15000	255.01000
25.16000	252.84000
25.17000	251.33000
25.18000	247.42000
25.19000	249.33000
25.20000	248.71000
25.21000	250.49000
25.22000	250.40000
25.23000	249.47000
25.24000	248.80000
25.25000	252.23000
25.26000	249.99000
25.27000	253.59000
25.28000	252.95000
25.29000	253.22000
25.30000	252.69000
25.31000	256.34000
25.32000	256.68000
25.33000	259.53000
25.34000	259.72000
25.35000	262.66000
25.36000	260.66000
25.37000	263.80000
25.38000	264.05000
25.39000	267.16000
25.40000	266.57000
25.41000	266.99000
25.42000	264.97000
25.43000	263.77000
25.44000	263.21000
25.45000	264.07000
25.46000	264.23000
25.47000	261.82000
25.48000	258.45000
25.49000	258.96000
25.50000	260.58000
25.51000	259.97000
25.52000	259.51000
25.53000	259.19000
25.54000	257.34000
25.55000	257.95000
25.56000	256.82000
25.57000	259.26000
25.58000	257.55000
25.59000	257.15000
25.60000	253.50000
25.61000	252.30000
25.62000	253.01000
25.63000	252.11000
25.64000	250.59000
25.65000	248.10000
25.66000	246.36000
25.67000	245.15000
25.68000	244.71000
25.69000	245.82000
25.70000	243.62000
25.71000	243.84000
25.72000	241.51000
25.73000	242.74000
25.74000	242.45000
25.75000	244.62000
25.76000	243.10000
25.77000	246.94000
25.78000	243.80000
25.79000	246.57000
25.80000	247.37000
25.81000	251.07000
25.82000	250.37000
25.83000	250.14000
25.84000	249.13000
25.85000	252.20000
25.86000	256.05000
25.87000	257.95000
25.88000	258.95000
25.89000	260.15000
25.90000	261.97000
25.91000	266.31000
25.92000	267.45000
25.93000	269.34000
25.94000	270.72000
25.95000	270.56000
25.96000	269.06000
25.97000	272.32000
25.98000	272.66000
25.99000	275.45000
26.00000	276.21000
26.01000	277.61000
26.02000	278.14000
26.03000	279.03000
26.04000	279.30000
26.05000	279.07000
26.06000	279.01000
26.07000	278.06000
26.08000	272.56000
26.09000	273.37000
26.10000	271.86000
26.11000	273.28000
26.12000	269.61000
26.13000	267.83000
26.14000	264.35000
26.15000	264.73000
26.16000	265.29000
26.17000	265.54000
26.18000	262.40000
26.19000	262.73000
26.20000	259.81000
26.21000	262.07000
26.22000	259.46000
26.23000	263.02000
26.24000	260.32000
26.25000	261.74000
26.26000	258.58000
26.27000	260.57000
26.28000	260.07000
26.29000	262.32000
26.30000	261.71000
26.31000	263.91000
26.32000	260.07000
26.33000	262.73000
26.34000	262.62000
26.35000	264.39000
26.36000	264.29000
26.37000	262.65000
26.38000	261.83000
26.39000	263.28000
26.40000	265.40000
26.41000	266.40000
26.42000	264.40000
26.43000	266.51000
26.44000	264.38000
26.45000	265.47000
26.46000	263.53000
26.47000	263.54000
26.48000	264.52000
26.49000	262.42000
26.50000	260.71000
26.51000	260.90000
26.52000	260.61000
26.53000	262.18000
26.54000	261.03000
26.55000	260.40000
26.56000	256.01000
26.57000	258.22000
26.58000	258.05000
26.59000	258.88000
26.60000	262.80000
26.61000	264.10000
26.62000	265.10000
26.63000	268.87000
26.64000	272.07000
26.65000	276.96000
26.66000	280.79000
26.67000	281.14000
26.68000	281.38000
26.69000	287.81000
26.70000	288.19000
26.71000	289.70000
26.72000	288.15000
26.73000	287.45000
26.74000	282.51000
26.75000	281.43000
26.76000	279.72000
26.77000	279.73000
26.78000	276.91000
26.79000	272.40000
26.80000	268.26000
26.81000	264.25000
26.82000	260.78000
26.83000	258.31000
26.84000	253.44000
26.85000	250.95000
26.86000	248.76000
26.87000	246.04000
26.88000	245.37000
26.89000	243.09000
26.90000	241.66000
26.91000	237.95000
26.92000	236.32000
26.93000	237.81000
26.94000	239.40000
26.95000	238.22000
26.96000	236.75000
26.97000	236.02000
26.98000	234.90000
26.99000	236.07000
27.00000	236.95000
27.01000	236.03000
27.02000	236.27000
27.03000	236.79000
27.04000	235.20000
27.05000	235.12000
27.06000	237.65000
27.07000	239.44000
27.08000	239.55000
27.09000	239.57000
27.10000	237.34000
27.11000	239.56000
27.12000	236.82000
27.13000	241.76000
27.14000	241.85000
27.15000	242.00000
27.16000	238.61000
27.17000	240.35000
27.18000	239.91000
27.19000	243.97000
27.20000	241.52000
27.21000	241.55000
27.22000	242.49000
27.23000	243.22000
27.24000	242.60000
27.25000	243.16000
27.26000	242.31000
27.27000	242.76000
27.28000	241.42000
27.29000	242.95000
27.30000	243.90000
27.31000	245.25000
27.32000	243.53000
27.33000	244.27000
27.34000	243.42000
27.35000	243.86000
27.36000	245.11000
27.37000	248.29000
27.38000	246.21000
27.39000	245.03000
27.40000	244.51000
27.41000	247.83000
27.42000	246.10000
27.43000	248.77000
27.44000	248.73000
27.45000	248.57000
27.46000	248.33000
27.47000	248.24000
27.48000	247.99000
27.49000	250.70000
27.50000	247.51000
27.51000	248.99000
27.52000	247.50000
27.53000	248.68000
27.54000	248.64000
27.55000	251.68000
27.56000	251.56000
27.57000	249.98000
27.58000	247.73000
27.59000	250.24000
27.60000	250.20000
27.61000	249.22000
27.62000	250.53000
27.63000	248.56000
27.64000	244.13000
27.65000	246.63000
27.66000	246.09000
27.67000	246.45000
27.68000	246.02000
27.69000	244.21000
27.70000	242.12000
27.71000	242.16000
27.72000	242.76000
27.73000	243.36000
27.74000	241.56000
27.75000	239.90000
27.76000	238.35000
27.77000	240.76000
27.78000	238.19000
27.79000	238.52000
27.80000	237.33000
27.81000	239.14000
27.82000	236.13000
27.83000	238.18000
27.84000	236.70000
27.85000	238.30000
27.86000	237.00000
27.87000	238.97000
27.88000	236.17000
27.89000	238.78000
27.90000	238.46000
27.91000	240.37000
27.92000	239.63000
27.93000	241.48000
27.94000	238.17000
27.95000	241.25000
27.96000	241.29000
27.97000	243.23000
27.98000	240.67000
27.99000	241.13000
28.00000	238.77000
28.01000	241.54000
28.02000	240.60000
28.03000	244.33000
28.04000	242.56000
28.05000	243.29000
28.06000	240.98000
28.07000	244.31000
28.08000	243.56000
28.09000	242.60000
28.10000	244.77000
28.11000	244.75000
28.12000	243.45000
28.13000	245.14000
28.14000	244.30000
28.15000	246.97000
28.16000	247.18000
28.17000	248.11000
28.18000	248.18000
28.19000	250.43000
28.20000	251.05000
28.21000	253.32000
28.22000	254.10000
28.23000	256.01000
28.24000	254.01000
28.25000	257.99000
28.26000	256.78000
28.27000	259.15000
28.28000	261.37000
28.29000	260.94000
28.30000	260.85000
28.31000	263.25000
28.32000	262.78000
28.33000	267.12000
28.34000	265.73000
28.35000	266.86000
28.36000	263.68000
28.37000	265.37000
28.38000	265.63000
28.39000	267.04000
28.40000	264.16000
28.41000	267.15000
28.42000	264.87000
28.43000	265.86000
28.44000	267.02000
28.45000	269.82000
28.46000	269.82000
28.47000	270.60000
28.48000	269.85000
28.49000	271.87000
28.50000	273.06000
28.51000	275.82000
28.52000	274.38000
28.53000	275.67000
28.54000	271.45000
28.55000	273.11000
28.56000	273.45000
28.57000	271.81000
28.58000	271.40000
28.59000	270.55000
28.60000	268.49000
28.61000	266.87000
28.62000	269.52000
28.63000	270.58000
28.64000	268.55000
28.65000	269.01000
28.66000	266.65000
28.67000	269.21000
28.68000	267.63000
28.69000	267.99000
28.70000	265.37000
28.71000	264.92000
28.72000	264.21000
28.73000	265.42000
28.74000	263.20000
28.75000	264.01000
28.76000	260.89000
28.77000	257.41000
28.78000	255.93000
28.79000	255.73000
28.80000	255.15000
28.81000	256.02000
28.82000	253.77000
28.83000	254.64000
28.84000	252.04000
28.85000	252.93000
28.86000	251.94000
28.87000	252.36000
28.88000	250.83000
28.89000	251.00000
28.90000	249.80000
28.91000	250.84000
28.92000	250.58000
28.93000	253.08000
28.94000	252.43000
28.95000	252.89000
28.96000	252.62000
28.97000	253.62000
28.98000	255.94000
28.99000	256.32000
29.00000	257.02000
29.01000	258.63000
29.02000	256.35000
29.03000	257.33000
29.04000	255.98000
29.05000	260.48000
29.06000	260.31000
29.07000	257.21000
29.08000	257.20000
29.09000	257.89000
29.10000	258.45000
29.11000	262.39000
29.12000	261.24000
29.13000	263.05000
29.14000	262.73000
29.15000	265.74000
29.16000	267.41000
29.17000	269.02000
29.18000	268.83000
29.19000	269.63000
29.20000	266.92000
29.21000	267.89000
29.22000	267.50000
29.23000	266.06000
29.24000	262.86000
29.25000	261.03000
29.26000	256.22000
29.27000	256.76000
29.28000	255.81000
29.29000	255.11000
29.30000	250.82000
29.31000	251.79000
29.32000	247.83000
29.33000	249.56000
29.34000	250.34000
29.35000	251.75000
29.36000	251.56000
29.37000	251.33000
29.38000	249.33000
29.39000	251.93000
29.40000	251.45000
29.41000	253.40000
29.42000	254.49000
29.43000	252.37000
29.44000	251.38000
29.45000	255.13000
29.46000	255.17000
29.47000	255.32000
29.48000	255.71000
29.49000	254.79000
29.50000	252.80000
29.51000	255.62000
29.52000	254.07000
29.53000	253.49000
29.54000	252.45000
29.55000	250.06000
29.56000	247.33000
29.57000	250.69000
29.58000	244.88000
29.59000	247.37000
29.60000	245.31000
29.61000	246.06000
29.62000	243.89000
29.63000	244.05000
29.64000	245.11000
29.65000	247.03000
29.66000	247.18000
29.67000	246.38000
29.68000	246.34000
29.69000	246.94000
29.70000	246.33000
29.71000	248.93000
29.72000	248.20000
29.73000	249.28000
29.74000	247.03000
29.75000	249.49000
29.76000	248.88000
29.77000	251.50000
29.78000	251.74000
29.79000	252.10000
29.80000	251.24000
29.81000	250.30000
29.82000	251.04000
29.83000	251.99000
29.84000	251.38000
29.85000	252.46000
29.86000	249.50000
29.87000	251.07000
29.88000	250.50000
29.89000	252.06000
29.90000	251.95000
29.91000	251.33000
29.92000	249.57000
29.93000	252.21000
29.94000	253.45000
29.95000	252.11000
29.96000	252.46000
29.97000	253.48000
29.98000	252.82000
29.99000	253.39000
30.00000	253.69000
30.01000	255.77000
30.02000	256.70000
30.03000	255.66000
30.04000	253.53000
30.05000	254.89000
30.06000	253.17000
30.07000	256.12000
30.08000	255.84000
30.09000	254.67000
30.10000	251.35000
30.11000	250.87000
30.12000	251.50000
30.13000	251.49000
30.14000	250.93000
30.15000	249.81000
30.16000	247.56000
30.17000	248.60000
30.18000	245.32000
30.19000	245.30000
30.20000	243.49000
30.21000	244.39000
30.22000	241.49000
30.23000	244.22000
30.24000	242.49000
30.25000	242.71000
30.26000	241.51000
30.27000	243.24000
30.28000	243.19000
30.29000	242.20000
30.30000	244.07000
30.31000	244.20000
30.32000	243.42000
30.33000	243.89000
30.34000	241.04000
30.35000	242.67000
30.36000	244.12000
30.37000	244.54000
30.38000	243.65000
30.39000	244.05000
30.40000	240.90000
30.41000	242.67000
30.42000	243.07000
30.43000	243.85000
30.44000	242.07000
30.45000	244.03000
30.46000	242.01000
30.47000	244.83000
30.48000	244.67000
30.49000	246.98000
30.50000	246.73000
30.51000	247.58000
30.52000	244.23000
30.53000	249.38000
30.54000	247.81000
30.55000	249.95000
30.56000	248.20000
30.57000	250.46000
30.58000	245.36000
30.59000	247.56000
30.60000	246.02000
30.61000	248.56000
30.62000	246.30000
30.63000	246.98000
30.64000	245.13000
30.65000	247.26000
30.66000	246.50000
30.67000	248.85000
30.68000	247.77000
30.69000	248.09000
30.70000	246.28000
30.71000	248.29000
30.72000	248.72000
30.73000	251.12000
30.74000	252.97000
30.75000	249.68000
30.76000	250.27000
30.77000	253.94000
30.78000	252.99000
30.79000	256.02000
30.80000	254.14000
30.81000	255.21000
30.82000	253.43000
30.83000	255.20000
30.84000	254.28000
30.85000	255.01000
30.86000	251.66000
30.87000	253.68000
30.88000	252.17000
30.89000	253.45000
30.90000	252.39000
30.91000	253.83000
30.92000	252.48000
30.93000	253.12000
30.94000	250.89000
30.95000	252.84000
30.96000	251.62000
30.97000	253.48000
30.98000	252.04000
30.99000	253.92000
31.00000	250.93000
31.01000	255.20000
31.02000	253.16000
31.03000	254.00000
31.04000	256.23000
31.05000	253.87000
31.06000	253.33000
31.07000	253.91000
31.08000	255.09000
31.09000	255.84000
31.10000	255.93000
31.11000	254.36000
31.12000	252.76000
31.13000	254.53000
31.14000	253.48000
31.15000	253.15000
31.16000	251.21000
31.17000	250.23000
31.18000	247.56000
31.19000	248.38000
31.20000	246.66000
31.21000	245.95000
31.22000	245.19000
31.23000	245.65000
31.24000	243.86000
31.25000	244.40000
31.26000	243.71000
31.27000	242.60000
31.28000	242.30000
31.29000	244.71000
31.30000	241.00000
31.31000	241.82000
31.32000	241.10000
31.33000	243.72000
31.34000	243.17000
31.35000	243.71000
31.36000	242.02000
31.37000	242.30000
31.38000	241.03000
31.39000	244.82000
31.40000	245.13000
31.41000	243.61000
31.42000	242.59000
31.43000	244.16000
31.44000	243.83000
31.45000	247.10000
31.46000	244.48000
31.47000	246.55000
31.48000	243.43000
31.49000	244.81000
31.50000	246.83000
31.51000	245.90000
31.52000	245.70000
31.53000	244.92000
31.54000	242.07000
31.55000	243.44000
31.56000	242.30000
31.57000	242.96000
31.58000	243.08000
31.59000	241.21000
31.60000	239.20000
31.61000	239.75000
31.62000	240.04000
31.63000	239.13000
31.64000	239.55000
31.65000	240.65000
31.66000	238.76000
31.67000	239.50000
31.68000	241.16000
31.69000	241.72000
31.70000	239.36000
31.71000	238.77000
31.72000	238.67000
31.73000	240.51000
31.74000	239.69000
31.75000	239.81000
31.76000	239.65000
31.77000	240.23000
31.78000	237.64000
31.79000	236.96000
31.80000	235.95000
31.81000	238.70000
31.82000	236.98000
31.83000	237.00000
31.84000	237.11000
31.85000	236.20000
31.86000	236.76000
31.87000	236.65000
31.88000	234.32000
31.89000	236.83000
31.90000	234.08000
31.91000	235.12000
31.92000	235.67000
31.93000	236.47000
31.94000	234.48000
31.95000	234.41000
31.96000	232.52000
31.97000	233.56000
31.98000	234.45000
31.99000	237.12000
32.00000	236.78000
32.01000	235.03000
32.02000	233.62000
32.03000	235.72000
32.04000	235.57000
32.05000	236.47000
32.06000	236.27000
32.07000	237.00000
32.08000	233.90000
32.09000	236.11000
32.10000	236.43000
32.11000	236.23000
32.12000	234.84000
32.13000	237.60000
32.14000	235.89000
32.15000	237.85000
32.16000	236.91000
32.17000	238.55000
32.18000	238.98000
32.19000	236.71000
32.20000	234.30000
32.21000	236.43000
32.22000	235.63000
32.23000	237.15000
32.24000	235.55000
32.25000	234.94000
32.26000	235.66000
32.27000	235.53000
32.28000	234.76000
32.29000	237.44000
32.30000	237.45000
32.31000	237.00000
32.32000	233.13000
32.33000	235.12000
32.34000	236.04000
32.35000	236.81000
32.36000	235.94000
32.37000	237.16000
32.38000	234.15000
32.39000	236.00000
32.40000	237.21000
32.41000	239.92000
32.42000	238.01000
32.43000	239.61000
32.44000	237.23000
32.45000	237.59000
32.46000	238.83000
32.47000	239.51000
32.48000	240.16000
32.49000	240.47000
32.50000	239.19000
32.51000	242.63000
32.52000	243.17000
32.53000	245.10000
32.54000	242.87000
32.55000	245.27000
32.56000	242.51000
32.57000	244.96000
32.58000	246.24000
32.59000	248.19000
32.60000	247.03000
32.61000	248.59000
32.62000	247.50000
32.63000	248.61000
32.64000	247.94000
32.65000	249.30000
32.66000	249.15000
32.67000	249.14000
32.68000	245.56000
32.69000	248.03000
32.70000	249.09000
32.71000	247.34000
32.72000	248.70000
32.73000	248.90000
32.74000	246.99000
32.75000	247.05000
32.76000	245.88000
32.77000	247.32000
32.78000	245.21000
32.79000	244.60000
32.80000	242.30000
32.81000	246.18000
32.82000	245.64000
32.83000	245.54000
32.84000	243.61000
32.85000	245.26000
32.86000	244.05000
32.87000	243.36000
32.88000	244.16000
32.89000	244.26000
32.90000	244.48000
32.91000	242.37000
32.92000	239.37000
32.93000	241.65000
32.94000	241.47000
32.95000	243.85000
32.96000	242.34000
32.97000	243.12000
32.98000	240.84000
32.99000	242.32000
33.00000	240.30000
33.01000	242.05000
33.02000	240.14000
33.03000	240.82000
33.04000	236.84000
33.05000	237.32000
33.06000	236.14000
33.07000	237.63000
33.08000	236.64000
33.09000	235.26000
33.10000	233.98000
33.11000	234.13000
33.12000	235.20000
33.13000	233.07000
33.14000	234.19000
33.15000	235.10000
33.16000	232.92000
33.17000	235.00000
33.18000	232.55000
33.19000	233.67000
33.20000	235.94000
33.21000	233.40000
33.22000	234.44000
33.23000	233.13000
33.24000	234.31000
33.25000	233.11000
33.26000	232.32000
33.27000	233.51000
33.28000	230.33000
33.29000	233.11000
33.30000	232.10000
33.31000	232.22000
33.32000	234.30000
33.33000	233.73000
33.34000	231.61000
33.35000	234.13000
33.36000	234.37000
33.37000	234.44000
33.38000	234.05000
33.39000	235.34000
33.40000	231.99000
33.41000	233.40000
33.42000	234.03000
33.43000	235.60000
33.44000	234.14000
33.45000	233.95000
33.46000	230.08000
33.47000	232.14000
33.48000	233.38000
33.49000	233.81000
33.50000	233.48000
33.51000	233.96000
33.52000	233.15000
33.53000	233.58000
33.54000	235.00000
33.55000	235.07000
33.56000	236.20000
33.57000	234.55000
33.58000	233.84000
33.59000	236.74000
33.60000	236.42000
33.61000	237.29000
33.62000	236.62000
33.63000	236.11000
33.64000	234.60000
33.65000	232.98000
33.66000	234.85000
33.67000	235.36000
33.68000	234.55000
33.69000	234.21000
33.70000	233.27000
33.71000	232.78000
33.72000	233.97000
33.73000	234.32000
33.74000	231.77000
33.75000	232.85000
33.76000	231.61000
33.77000	231.95000
33.78000	233.41000
33.79000	233.90000
33.80000	232.27000
33.81000	233.45000
33.82000	231.97000
33.83000	233.70000
33.84000	233.23000
33.85000	234.50000
33.86000	233.52000
33.87000	233.55000
33.88000	231.02000
33.89000	232.62000
33.90000	233.88000
33.91000	234.54000
33.92000	233.37000
33.93000	233.11000
33.94000	232.49000
33.95000	233.78000
33.96000	233.80000
33.97000	235.71000
33.98000	232.96000
33.99000	234.61000
34.00000	232.33000
34.01000	232.89000
34.02000	233.50000
34.03000	236.43000
34.04000	235.33000
34.05000	234.69000
34.06000	232.82000
34.07000	234.23000
34.08000	233.13000
34.09000	234.99000
34.10000	234.69000
34.11000	234.40000
34.12000	230.58000
34.13000	233.35000
34.14000	233.97000
34.15000	236.06000
34.16000	236.17000
34.17000	233.47000
34.18000	231.40000
34.19000	233.27000
34.20000	235.92000
34.21000	235.47000
34.22000	236.23000
34.23000	235.94000
34.24000	233.64000
34.25000	233.97000
34.26000	234.05000
34.27000	234.13000
34.28000	234.46000
34.29000	232.63000
34.30000	230.34000
34.31000	233.07000
34.32000	232.97000
34.33000	232.77000
34.34000	231.82000
34.35000	231.94000
34.36000	228.28000
34.37000	228.59000
34.38000	229.68000
34.39000	228.73000
34.40000	227.69000
34.41000	227.24000
34.42000	225.46000
34.43000	225.09000
34.44000	223.75000
34.45000	225.22000
34.46000	223.57000
34.47000	224.25000
34.48000	220.77000
34.49000	221.80000
34.50000	221.12000
34.51000	221.01000
34.52000	220.00000
34.53000	221.51000
34.54000	219.37000
34.55000	219.41000
34.56000	220.41000
34.57000	220.47000
34.58000	221.74000
34.59000	220.91000
34.60000	220.35000
34.61000	220.21000
34.62000	218.63000
34.63000	220.80000
34.64000	219.76000
34.65000	218.18000
34.66000	218.52000
34.67000	220.14000
34.68000	218.56000
34.69000	218.88000
34.70000	220.67000
34.71000	220.63000
34.72000	218.13000
34.73000	222.16000
34.74000	221.08000
34.75000	222.25000
34.76000	220.35000
34.77000	220.46000
34.78000	216.44000
34.79000	219.68000
34.80000	220.67000
34.81000	220.14000
34.82000	220.33000
34.83000	220.87000
34.84000	218.97000
34.85000	219.80000
34.86000	221.94000
34.87000	221.21000
34.88000	220.53000
34.89000	219.02000
34.90000	218.26000
34.91000	219.94000
34.92000	218.95000
34.93000	221.53000
34.94000	221.75000
34.95000	221.39000
34.96000	219.96000
34.97000	220.67000
34.98000	220.53000
34.99000	222.06000
35.00000	221.16000
35.01000	222.47000
35.02000	221.09000
35.03000	221.29000
35.04000	221.43000
35.05000	223.84000
35.06000	221.46000
35.07000	221.13000
35.08000	220.22000
35.09000	222.79000
35.10000	221.88000
35.11000	222.48000
35.12000	221.83000
35.13000	222.27000
35.14000	219.58000
35.15000	220.53000
35.16000	220.33000
35.17000	222.75000
35.18000	223.45000
35.19000	221.86000
35.20000	219.50000
35.21000	220.91000
35.22000	219.65000
35.23000	220.86000
35.24000	219.33000
35.25000	221.22000
35.26000	217.89000
35.27000	217.77000
35.28000	218.19000
35.29000	218.72000
35.30000	219.95000
35.31000	218.15000
35.32000	218.40000
35.33000	218.16000
35.34000	218.36000
35.35000	217.96000
35.36000	217.47000
35.37000	217.99000
35.38000	215.49000
35.39000	217.20000
35.40000	218.15000
35.41000	218.30000
35.42000	216.95000
35.43000	216.27000
35.44000	216.50000
35.45000	217.25000
35.46000	216.75000
35.47000	217.00000
35.48000	219.03000
35.49000	219.61000
35.50000	217.59000
35.51000	218.64000
35.52000	219.18000
35.53000	217.98000
35.54000	218.81000
35.55000	218.62000
35.56000	217.40000
35.57000	219.88000
35.58000	219.66000
35.59000	221.25000
35.60000	221.97000
35.61000	222.33000
35.62000	219.95000
35.63000	220.89000
35.64000	221.91000
35.65000	222.68000
35.66000	221.83000
35.67000	222.52000
35.68000	220.06000
35.69000	221.11000
35.70000	220.81000
35.71000	221.19000
35.72000	220.27000
35.73000	219.36000
35.74000	217.78000
35.75000	217.79000
35.76000	217.26000
35.77000	217.78000
35.78000	218.44000
35.79000	217.29000
35.80000	214.31000
35.81000	215.31000
35.82000	215.87000
35.83000	216.45000
35.84000	215.63000
35.85000	215.57000
35.86000	214.48000
35.87000	214.75000
35.88000	214.51000
35.89000	215.98000
35.90000	215.82000
35.91000	213.57000
35.92000	212.68000
35.93000	214.16000
35.94000	215.31000
35.95000	216.08000
35.96000	214.95000
35.97000	216.65000
35.98000	215.40000
35.99000	216.19000
36.00000	215.10000
36.01000	217.47000
36.02000	215.71000
36.03000	217.09000
36.04000	213.82000
36.05000	215.72000
36.06000	216.98000
36.07000	217.99000
36.08000	217.96000
36.09000	217.68000
36.10000	214.30000
36.11000	216.77000
36.12000	217.38000
36.13000	218.91000
36.14000	217.81000
36.15000	219.22000
36.16000	216.69000
36.17000	217.62000
36.18000	214.88000
36.19000	218.14000
36.20000	217.06000
36.21000	218.68000
36.22000	214.42000
36.23000	217.05000
36.24000	217.42000
36.25000	218.31000
36.26000	217.30000
36.27000	215.70000
36.28000	213.49000
36.29000	215.42000
36.30000	214.22000
36.31000	214.76000
36.32000	214.75000
36.33000	214.97000
36.34000	213.15000
36.35000	215.66000
36.36000	216.91000
36.37000	215.97000
36.38000	217.01000
36.39000	216.75000
36.40000	213.39000
36.41000	213.61000
36.42000	213.34000
36.43000	215.92000
36.44000	215.16000
36.45000	216.90000
36.46000	213.35000
36.47000	216.32000
36.48000	215.27000
36.49000	216.02000
36.50000	216.17000
36.51000	216.43000
36.52000	213.33000
36.53000	215.02000
36.54000	216.54000
36.55000	217.80000
36.56000	216.15000
36.57000	215.35000
36.58000	215.17000
36.59000	217.36000
36.60000	214.81000
36.61000	216.74000
36.62000	215.51000
36.63000	215.88000
36.64000	213.47000
36.65000	215.89000
36.66000	215.54000
36.67000	215.42000
36.68000	215.43000
36.69000	215.50000
36.70000	214.75000
36.71000	216.68000
36.72000	215.04000
36.73000	217.18000
36.74000	217.66000
36.75000	216.45000
36.76000	214.97000
36.77000	214.98000
36.78000	215.22000
36.79000	215.69000
36.80000	215.65000
36.81000	216.61000
36.82000	212.20000
36.83000	211.90000
36.84000	211.83000
36.85000	214.98000
36.86000	212.21000
36.87000	213.09000
36.88000	211.90000
36.89000	212.95000
36.90000	212.58000
36.91000	214.42000
36.92000	213.63000
36.93000	214.42000
36.94000	208.85000
36.95000	212.23000
36.96000	211.29000
36.97000	212.82000
36.98000	212.38000
36.99000	211.70000
37.00000	208.60000
37.01000	210.11000
37.02000	212.07000
37.03000	212.36000
37.04000	212.18000
37.05000	210.72000
37.06000	211.98000
37.07000	210.45000
37.08000	209.06000
37.09000	210.76000
37.10000	211.07000
37.11000	211.80000
37.12000	209.87000
37.13000	210.41000
37.14000	210.51000
37.15000	211.33000
37.16000	211.72000
37.17000	210.73000
37.18000	211.47000
37.19000	211.54000
37.20000	210.29000
37.21000	210.79000
37.22000	210.68000
37.23000	210.79000
37.24000	208.92000
37.25000	211.79000
37.26000	210.07000
37.27000	211.77000
37.28000	212.38000
37.29000	213.16000
37.30000	211.08000
37.31000	211.91000
37.32000	212.39000
37.33000	213.32000
37.34000	210.90000
37.35000	212.58000
37.36000	210.09000
37.37000	211.72000
37.38000	211.19000
37.39000	213.72000
37.40000	212.56000
37.41000	211.97000
37.42000	210.71000
37.43000	211.64000
37.44000	211.73000
37.45000	210.90000
37.46000	210.75000
37.47000	210.32000
37.48000	208.45000
37.49000	208.81000
37.50000	207.43000
37.51000	209.44000
37.52000	208.85000
37.53000	208.45000
37.54000	207.03000
37.55000	207.79000
37.56000	206.00000
37.57000	207.86000
37.58000	206.27000
37.59000	206.97000
37.60000	205.70000
37.61000	208.91000
37.62000	207.27000
37.63000	208.79000
37.64000	207.15000
37.65000	205.59000
37.66000	205.37000
37.67000	207.94000
37.68000	205.86000
37.69000	206.95000
37.70000	206.52000
37.71000	208.73000
37.72000	205.52000
37.73000	207.54000
37.74000	206.87000
37.75000	207.06000
37.76000	208.07000
37.77000	208.78000
37.78000	206.61000
37.79000	209.05000
37.80000	208.55000
37.81000	208.14000
37.82000	208.27000
37.83000	208.44000
37.84000	208.47000
37.85000	209.44000
37.86000	208.51000
37.87000	209.14000
37.88000	207.85000
37.89000	209.42000
37.90000	206.48000
37.91000	208.06000
37.92000	206.07000
37.93000	206.04000
37.94000	206.52000
37.95000	207.24000
37.96000	206.09000
37.97000	205.84000
37.98000	206.80000
37.99000	208.61000
38.00000	206.93000
38.01000	207.30000
38.02000	204.12000
38.03000	205.64000
38.04000	206.53000
38.05000	207.21000
38.06000	205.91000
38.07000	205.82000
38.08000	204.89000
38.09000	205.49000
38.10000	205.00000
38.11000	204.85000
38.12000	205.89000
38.13000	206.02000
38.14000	204.70000
38.15000	204.85000
38.16000	205.51000
38.17000	205.95000
38.18000	203.67000
38.19000	206.41000
38.20000	202.63000
38.21000	204.16000
38.22000	205.96000
38.23000	205.43000
38.24000	203.79000
38.25000	203.17000
38.26000	203.09000
38.27000	204.29000
38.28000	203.64000
38.29000	205.41000
38.30000	203.59000
38.31000	204.62000
38.32000	204.00000
38.33000	204.06000
38.34000	203.35000
38.35000	204.23000
38.36000	203.90000
38.37000	205.14000
38.38000	201.51000
38.39000	202.17000
38.40000	203.24000
38.41000	204.98000
38.42000	204.12000
38.43000	202.48000
38.44000	202.24000
38.45000	202.55000
38.46000	201.78000
38.47000	203.31000
38.48000	202.30000
38.49000	203.73000
38.50000	201.48000
38.51000	202.57000
38.52000	202.66000
38.53000	205.61000
38.54000	204.04000
38.55000	203.95000
38.56000	201.32000
38.57000	202.70000
38.58000	203.64000
38.59000	204.59000
38.60000	204.77000
38.61000	203.78000
38.62000	202.55000
38.63000	203.49000
38.64000	203.50000
38.65000	202.91000
38.66000	203.52000
38.67000	203.85000
38.68000	201.56000
38.69000	202.00000
38.70000	203.16000
38.71000	204.13000
38.72000	202.99000
38.73000	201.75000
38.74000	200.94000
38.75000	201.51000
38.76000	202.96000
38.77000	203.92000
38.78000	202.00000
38.79000	201.65000
38.80000	199.99000
38.81000	202.04000
38.82000	201.91000
38.83000	201.83000
38.84000	202.71000
38.85000	202.43000
38.86000	200.59000
38.87000	198.17000
38.88000	199.80000
38.89000	201.80000
38.90000	201.72000
38.91000	203.34000
38.92000	202.15000
38.93000	202.72000
38.94000	203.11000
38.95000	205.50000
38.96000	203.98000
38.97000	204.69000
38.98000	202.88000
38.99000	204.38000
39.00000	203.62000
39.01000	204.68000
39.02000	204.57000
39.03000	204.75000
39.04000	202.31000
39.05000	204.44000
39.06000	202.73000
39.07000	203.72000
39.08000	203.92000
39.09000	203.86000
39.10000	200.94000
39.11000	203.25000
39.12000	202.00000
39.13000	203.47000
39.14000	201.76000
39.15000	202.10000
39.16000	201.30000
39.17000	200.85000
39.18000	201.95000
39.19000	203.12000
39.20000	202.77000
39.21000	200.92000
39.22000	199.57000
39.23000	203.04000
39.24000	200.66000
39.25000	202.86000
39.26000	201.10000
39.27000	201.72000
39.28000	199.11000
39.29000	201.45000
39.30000	200.95000
39.31000	202.66000
39.32000	202.86000
39.33000	200.91000
39.34000	199.13000
39.35000	201.69000
39.36000	200.40000
39.37000	203.22000
39.38000	202.02000
39.39000	201.35000
39.40000	200.22000
39.41000	202.59000
39.42000	201.23000
39.43000	202.36000
39.44000	201.77000
39.45000	202.03000
39.46000	200.85000
39.47000	199.81000
39.48000	201.58000
39.49000	203.27000
39.50000	199.91000
39.51000	200.53000
39.52000	197.94000
39.53000	201.47000
39.54000	200.50000
39.55000	201.20000
39.56000	199.00000
39.57000	198.70000
39.58000	197.49000
39.59000	200.05000
39.60000	197.58000
39.61000	198.43000
39.62000	197.56000
39.63000	197.94000
39.64000	196.40000
39.65000	197.13000
39.66000	196.83000
39.67000	197.53000
39.68000	197.16000
39.69000	196.60000
39.70000	194.02000
39.71000	194.48000
39.72000	194.81000
39.73000	195.59000
39.74000	194.82000
39.75000	196.27000
39.76000	192.72000
39.77000	195.48000
39.78000	195.38000
39.79000	196.39000
39.80000	197.61000
39.81000	195.17000
39.82000	195.23000
39.83000	195.79000
39.84000	194.41000
39.85000	195.81000
39.86000	194.63000
39.87000	196.68000
39.88000	192.82000
39.89000	195.26000
39.90000	195.84000
39.91000	197.74000
39.92000	197.58000
39.93000	197.25000
39.94000	194.00000
39.95000	195.40000
39.96000	193.83000
39.97000	194.16000
39.98000	193.60000
39.99000	194.55000
40.00000	193.74000
40.01000	195.10000
40.02000	194.14000
40.03000	193.96000
40.04000	195.47000
40.05000	193.28000
40.06000	193.55000
40.07000	192.01000
40.08000	194.21000
40.09000	194.28000
40.10000	193.42000
40.11000	193.87000
40.12000	191.57000
40.13000	194.61000
40.14000	192.18000
40.15000	194.74000
40.16000	193.38000
40.17000	193.64000
40.18000	192.13000
40.19000	193.35000
40.20000	193.39000
40.21000	193.69000
40.22000	193.63000
40.23000	193.55000
40.24000	192.27000
40.25000	192.91000
40.26000	193.53000
40.27000	194.56000
40.28000	192.75000
40.29000	193.26000
40.30000	191.67000
40.31000	192.07000
40.32000	191.09000
40.33000	194.48000
40.34000	191.06000
40.35000	192.54000
40.36000	190.88000
40.37000	190.57000
40.38000	191.67000
40.39000	192.36000
40.40000	192.49000
40.41000	191.67000
40.42000	190.40000
40.43000	190.69000
40.44000	191.65000
40.45000	192.82000
40.46000	191.59000
40.47000	191.84000
40.48000	189.92000
40.49000	191.57000
40.50000	189.80000
40.51000	192.56000
40.52000	191.22000
40.53000	192.01000
40.54000	188.94000
40.55000	190.55000
40.56000	190.64000
40.57000	191.61000
40.58000	189.95000
40.59000	191.25000
40.60000	188.50000
40.61000	189.51000
40.62000	190.01000
40.63000	191.81000
40.64000	192.87000
40.65000	193.85000
40.66000	190.32000
40.67000	189.30000
40.68000	191.24000
40.69000	192.32000
40.70000	188.77000
40.71000	189.83000
40.72000	189.15000
40.73000	189.31000
40.74000	189.03000
40.75000	191.20000
40.76000	190.30000
40.77000	190.61000
40.78000	187.89000
40.79000	191.15000
40.80000	190.94000
40.81000	190.71000
40.82000	189.54000
40.83000	190.14000
40.84000	189.06000
40.85000	189.51000
40.86000	188.46000
40.87000	189.68000
40.88000	189.12000
40.89000	188.59000
40.90000	186.94000
40.91000	188.51000
40.92000	188.42000
40.93000	189.40000
40.94000	189.27000
40.95000	188.59000
40.96000	187.66000
40.97000	189.23000
40.98000	188.46000
40.99000	189.43000
41.00000	188.44000
41.01000	188.36000
41.02000	187.15000
41.03000	188.77000
41.04000	187.77000
41.05000	187.98000
41.06000	189.98000
41.07000	188.92000
41.08000	187.36000
41.09000	187.99000
41.10000	187.69000
41.11000	188.60000
41.12000	188.83000
41.13000	187.24000
41.14000	185.82000
41.15000	185.75000
41.16000	187.42000
41.17000	187.80000
41.18000	188.39000
41.19000	186.78000
41.20000	186.81000
41.21000	186.16000
41.22000	185.70000
41.23000	185.83000
41.24000	185.95000
41.25000	185.68000
41.26000	183.68000
41.27000	185.32000
41.28000	185.11000
41.29000	184.33000
41.30000	185.15000
41.31000	186.53000
41.32000	181.52000
41.33000	184.65000
41.34000	183.00000
41.35000	185.51000
41.36000	184.51000
41.37000	183.00000
41.38000	182.29000
41.39000	184.54000
41.40000	182.46000
41.41000	182.30000
41.42000	183.94000
41.43000	183.56000
41.44000	182.59000
41.45000	182.28000
41.46000	183.89000
41.47000	183.39000
41.48000	184.37000
41.49000	183.60000
41.50000	182.17000
41.51000	183.19000
41.52000	182.18000
41.53000	183.91000
41.54000	182.11000
41.55000	182.65000
41.56000	181.00000
41.57000	182.63000
41.58000	181.93000
41.59000	182.41000
41.60000	181.19000
41.61000	181.90000
41.62000	179.88000
41.63000	181.07000
41.64000	181.50000
41.65000	182.63000
41.66000	181.16000
41.67000	181.74000
41.68000	179.68000
41.69000	180.26000
41.70000	180.30000
41.71000	180.54000
41.72000	179.39000
41.73000	178.61000
41.74000	177.50000
41.75000	178.76000
41.76000	179.90000
41.77000	180.64000
41.78000	178.41000
41.79000	178.95000
41.80000	176.58000
41.81000	178.33000
41.82000	177.99000
41.83000	178.62000
41.84000	177.71000
41.85000	176.85000
41.86000	175.48000
41.87000	174.64000
41.88000	175.08000
41.89000	174.71000
41.90000	174.92000
41.91000	175.35000
41.92000	174.42000
41.93000	174.79000
41.94000	174.18000
41.95000	176.13000
41.96000	173.60000
41.97000	173.75000
41.98000	172.52000
41.99000	174.78000
42.00000	174.24000
42.01000	174.99000
42.02000	174.73000
42.03000	174.25000
42.04000	171.57000
42.05000	172.85000
42.06000	173.86000
42.07000	173.51000
42.08000	173.99000
42.09000	174.43000
42.10000	173.18000
42.11000	172.62000
42.12000	173.08000
42.13000	172.89000
42.14000	173.75000
42.15000	172.83000
42.16000	171.85000
42.17000	172.33000
42.18000	173.02000
42.19000	173.72000
42.20000	174.21000
42.21000	173.43000
42.22000	172.43000
42.23000	173.33000
42.24000	173.30000
42.25000	174.08000
42.26000	172.50000
42.27000	172.58000
42.28000	171.32000
42.29000	172.97000
42.30000	170.87000
42.31000	173.26000
42.32000	173.80000
42.33000	172.00000
42.34000	170.21000
42.35000	171.65000
42.36000	172.79000
42.37000	172.91000
42.38000	174.05000
42.39000	172.41000
42.40000	170.78000
42.41000	172.40000
42.42000	172.62000
42.43000	173.67000
42.44000	172.92000
42.45000	172.60000
42.46000	171.86000
42.47000	173.75000
42.48000	174.86000
42.49000	176.42000
42.50000	174.61000
42.51000	174.97000
42.52000	173.42000
42.53000	174.18000
42.54000	173.06000
42.55000	173.71000
42.56000	172.88000
42.57000	175.28000
42.58000	173.03000
42.59000	172.78000
42.60000	171.89000
42.61000	175.30000
42.62000	173.86000
42.63000	173.22000
42.64000	171.66000
42.65000	173.66000
42.66000	172.83000
42.67000	173.96000
42.68000	172.51000
42.69000	172.33000
42.70000	171.41000
42.71000	171.05000
42.72000	172.22000
42.73000	171.32000
42.74000	171.70000
42.75000	169.91000
42.76000	169.17000
42.77000	170.45000
42.78000	170.84000
42.79000	171.94000
42.80000	169.75000
42.81000	170.22000
42.82000	168.88000
42.83000	169.60000
42.84000	169.94000
42.85000	170.54000
42.86000	170.49000
42.87000	169.87000
42.88000	168.56000
42.89000	168.77000
42.90000	169.20000
42.91000	169.69000
42.92000	168.96000
42.93000	169.78000
42.94000	168.93000
42.95000	168.44000
42.96000	168.30000
42.97000	169.02000
42.98000	169.97000
42.99000	168.35000
43.00000	168.18000
43.01000	167.50000
43.02000	167.94000
43.03000	167.93000
43.04000	169.00000
43.05000	168.73000
43.06000	167.83000
43.07000	168.55000
43.08000	168.89000
43.09000	168.79000
43.10000	169.30000
43.11000	168.61000
43.12000	166.72000
43.13000	168.66000
43.14000	168.56000
43.15000	168.92000
43.16000	168.87000
43.17000	168.42000
43.18000	166.45000
43.19000	168.40000
43.20000	166.48000
43.21000	168.61000
43.22000	167.12000
43.23000	168.84000
43.24000	165.63000
43.25000	167.12000
43.26000	166.86000
43.27000	167.05000
43.28000	166.66000
43.29000	167.56000
43.30000	164.62000
43.31000	166.24000
43.32000	165.26000
43.33000	164.79000
43.34000	166.01000
43.35000	164.66000
43.36000	164.69000
43.37000	165.36000
43.38000	164.54000
43.39000	166.17000
43.40000	163.96000
43.41000	164.93000
43.42000	163.23000
43.43000	163.70000
43.44000	165.24000
43.45000	165.12000
43.46000	164.93000
43.47000	164.95000
43.48000	165.17000
43.49000	164.59000
43.50000	164.16000
43.51000	165.42000
43.52000	165.68000
43.53000	165.37000
43.54000	162.54000
43.55000	163.81000
43.56000	163.77000
43.57000	165.04000
43.58000	163.09000
43.59000	163.13000
43.60000	163.81000
43.61000	163.31000
43.62000	162.68000
43.63000	165.41000
43.64000	163.10000
43.65000	162.60000
43.66000	162.63000
43.67000	164.22000
43.68000	162.75000
43.69000	164.61000
43.70000	162.58000
43.71000	164.04000
43.72000	162.59000
43.73000	163.74000
43.74000	163.77000
43.75000	164.30000
43.76000	163.10000
43.77000	163.47000
43.78000	161.50000
43.79000	161.83000
43.80000	161.66000
43.81000	164.37000
43.82000	163.29000
43.83000	165.05000
43.84000	162.90000
43.85000	162.38000
43.86000	163.51000
43.87000	162.65000
43.88000	163.13000
43.89000	163.07000
43.90000	161.32000
43.91000	161.96000
43.92000	162.65000
43.93000	164.22000
43.94000	163.34000
43.95000	164.36000
43.96000	161.72000
43.97000	163.24000
43.98000	163.72000
43.99000	164.86000
44.00000	162.89000
44.01000	163.85000
44.02000	162.69000
44.03000	163.22000
44.04000	163.27000
44.05000	163.57000
44.06000	163.65000
44.07000	163.45000
44.08000	161.72000
44.09000	162.77000
44.10000	163.11000
44.11000	163.15000
44.12000	161.59000
44.13000	164.87000
44.14000	161.94000
44.15000	164.77000
44.16000	162.84000
44.17000	164.52000
44.18000	163.65000
44.19000	163.62000
44.20000	162.56000
44.21000	164.17000
44.22000	163.06000
44.23000	163.05000
44.24000	163.59000
44.25000	162.69000
44.26000	161.47000
44.27000	163.45000
44.28000	163.37000
44.29000	162.64000
44.30000	162.99000
44.31000	164.22000
44.32000	161.16000
44.33000	162.11000
44.34000	162.53000
44.35000	162.44000
44.36000	163.24000
44.37000	163.55000
44.38000	161.45000
44.39000	162.56000
44.40000	162.62000
44.41000	162.57000
44.42000	162.75000
44.43000	163.64000
44.44000	161.06000
44.45000	162.45000
44.46000	162.08000
44.47000	161.11000
44.48000	162.65000
44.49000	163.06000
44.50000	161.29000
44.51000	161.73000
44.52000	161.54000
44.53000	163.04000
44.54000	162.09000
44.55000	161.51000
44.56000	160.26000
44.57000	161.01000
44.58000	160.96000
44.59000	162.65000
44.60000	162.62000
44.61000	161.09000
44.62000	160.39000
44.63000	161.85000
44.64000	162.00000
44.65000	161.79000
44.66000	161.47000
44.67000	161.53000
44.68000	160.44000
44.69000	160.65000
44.70000	161.04000
44.71000	161.99000
44.72000	160.60000
44.73000	161.94000
44.74000	159.80000
44.75000	160.13000
44.76000	161.06000
44.77000	161.06000
44.78000	161.21000
44.79000	160.79000
44.80000	159.14000
44.81000	159.87000
44.82000	160.60000
44.83000	161.00000
44.84000	160.94000
44.85000	161.89000
44.86000	159.91000
44.87000	159.57000
44.88000	161.23000
44.89000	161.97000
44.90000	160.83000
44.91000	161.23000
44.92000	157.69000
44.93000	161.57000
44.94000	160.34000
44.95000	160.44000
44.96000	161.66000
44.97000	161.97000
44.98000	160.12000
44.99000	161.67000
45.00000	161.55000
45.01000	162.09000
45.02000	161.36000
45.03000	160.94000
45.04000	161.08000
45.05000	162.31000
45.06000	162.92000
45.07000	161.83000
45.08000	162.61000
45.09000	163.56000
45.10000	160.39000
45.11000	160.61000
45.12000	162.34000
45.13000	163.75000
45.14000	163.79000
45.15000	162.30000
45.16000	162.96000
45.17000	162.01000
45.18000	162.80000
45.19000	163.93000
45.20000	162.51000
45.21000	162.25000
45.22000	161.98000
45.23000	162.82000
45.24000	162.16000
45.25000	163.04000
45.26000	164.13000
45.27000	164.82000
45.28000	162.94000
45.29000	163.72000
45.30000	163.16000
45.31000	163.63000
45.32000	163.10000
45.33000	163.82000
45.34000	162.37000
45.35000	163.01000
45.36000	161.94000
45.37000	163.93000
45.38000	162.87000
45.39000	163.36000
45.40000	162.08000
45.41000	163.79000
45.42000	164.87000
45.43000	164.47000
45.44000	162.66000
45.45000	163.38000
45.46000	161.72000
45.47000	161.26000
45.48000	162.47000
45.49000	161.69000
45.50000	161.60000
45.51000	161.24000
45.52000	160.32000
45.53000	162.73000
45.54000	161.03000
45.55000	161.23000
45.56000	162.25000
45.57000	159.97000
45.58000	160.34000
45.59000	161.18000
45.60000	160.71000
45.61000	161.27000
45.62000	160.55000
45.63000	160.40000
45.64000	159.48000
45.65000	160.02000
45.66000	159.53000
45.67000	160.59000
45.68000	160.04000
45.69000	161.98000
45.70000	160.37000
45.71000	160.48000
45.72000	159.62000
45.73000	159.85000
45.74000	159.89000
45.75000	160.67000
45.76000	158.55000
45.77000	160.02000
45.78000	158.99000
45.79000	161.78000
45.80000	159.92000
45.81000	159.76000
45.82000	159.05000
45.83000	160.27000
45.84000	160.47000
45.85000	162.39000
45.86000	160.70000
45.87000	161.84000
45.88000	159.00000
45.89000	159.69000
45.90000	159.50000
45.91000	159.79000
45.92000	159.75000
45.93000	160.84000
45.94000	159.21000
45.95000	161.16000
45.96000	158.95000
45.97000	160.63000
45.98000	162.01000
45.99000	161.74000
46.00000	160.20000
46.01000	159.92000
46.02000	161.06000
46.03000	159.41000
46.04000	161.17000
46.05000	160.09000
46.06000	159.40000
46.07000	159.01000
46.08000	160.08000
46.09000	161.04000
46.10000	160.69000
46.11000	159.64000
46.12000	158.63000
46.13000	158.18000
46.14000	158.52000
46.15000	158.41000
46.16000	157.90000
46.17000	159.18000
46.18000	157.29000
46.19000	157.91000
46.20000	158.22000
46.21000	158.14000
46.22000	158.14000
46.23000	157.52000
46.24000	156.26000
46.25000	156.44000
46.26000	156.47000
46.27000	158.04000
46.28000	156.13000
46.29000	158.15000
46.30000	156.91000
46.31000	158.00000
46.32000	156.20000
46.33000	156.87000
46.34000	157.17000
46.35000	157.15000
46.36000	155.06000
46.37000	156.96000
46.38000	157.84000
46.39000	156.57000
46.40000	156.70000
46.41000	156.65000
46.42000	155.81000
46.43000	157.01000
46.44000	156.36000
46.45000	157.17000
46.46000	156.19000
46.47000	157.02000
46.48000	153.70000
46.49000	155.68000
46.50000	157.20000
46.51000	157.22000
46.52000	156.56000
46.53000	155.34000
46.54000	156.84000
46.55000	156.97000
46.56000	155.88000
46.57000	157.88000
46.58000	157.21000
46.59000	157.44000
46.60000	154.06000
46.61000	157.11000
46.62000	154.97000
46.63000	155.19000
46.64000	154.24000
46.65000	156.05000
46.66000	153.30000
46.67000	155.11000
46.68000	153.67000
46.69000	155.38000
46.70000	155.30000
46.71000	155.55000
46.72000	153.95000
46.73000	155.94000
46.74000	154.51000
46.75000	155.45000
46.76000	155.22000
46.77000	157.33000
46.78000	155.01000
46.79000	155.39000
46.80000	154.23000
46.81000	155.51000
46.82000	155.58000
46.83000	156.13000
46.84000	155.08000
46.85000	155.29000
46.86000	155.35000
46.87000	154.69000
46.88000	155.05000
46.89000	155.25000
46.90000	154.77000
46.91000	155.76000
46.92000	155.37000
46.93000	155.81000
46.94000	155.23000
46.95000	157.03000
46.96000	153.95000
46.97000	155.20000
46.98000	154.69000
46.99000	156.49000
47.00000	155.71000
47.01000	155.57000
47.02000	154.42000
47.03000	156.15000
47.04000	155.30000
47.05000	156.26000
47.06000	155.76000
47.07000	156.10000
47.08000	153.69000
47.09000	155.01000
47.10000	154.22000
47.11000	156.86000
47.12000	155.88000
47.13000	156.07000
47.14000	154.45000
47.15000	155.38000
47.16000	155.05000
47.17000	156.82000
47.18000	154.63000
47.19000	155.09000
47.20000	153.29000
47.21000	154.80000
47.22000	154.92000
47.23000	155.05000
47.24000	155.32000
47.25000	154.60000
47.26000	152.63000
47.27000	153.88000
47.28000	155.15000
47.29000	153.90000
47.30000	153.16000
47.31000	154.15000
47.32000	152.64000
47.33000	153.27000
47.34000	153.85000
47.35000	154.40000
47.36000	153.98000
47.37000	153.38000
47.38000	152.93000
47.39000	153.84000
47.40000	152.11000
47.41000	153.75000
47.42000	153.13000
47.43000	153.25000
47.44000	151.99000
47.45000	153.54000
47.46000	154.82000
47.47000	153.92000
47.48000	153.53000
47.49000	154.50000
47.50000	153.59000
47.51000	155.91000
47.52000	154.44000
47.53000	155.20000
47.54000	155.44000
47.55000	154.28000
47.56000	152.99000
47.57000	154.04000
47.58000	154.79000
47.59000	155.28000
47.60000	155.43000
47.61000	153.61000
47.62000	155.08000
47.63000	155.38000
47.64000	154.29000
47.65000	155.30000
47.66000	155.53000
47.67000	155.83000
47.68000	152.96000
47.69000	154.10000
47.70000	154.35000
47.71000	154.97000
47.72000	155.59000
47.73000	154.77000
47.74000	154.49000
47.75000	154.47000
47.76000	154.04000
47.77000	154.96000
47.78000	154.08000
47.79000	154.24000
47.80000	153.09000
47.81000	155.36000
47.82000	155.27000
47.83000	155.22000
47.84000	153.07000
47.85000	154.48000
47.86000	151.56000
47.87000	153.14000
47.88000	152.68000
47.89000	153.81000
47.90000	153.58000
47.91000	153.80000
47.92000	152.33000
47.93000	154.44000
47.94000	153.09000
47.95000	153.65000
47.96000	152.88000
47.97000	153.21000
47.98000	151.43000
47.99000	153.12000
48.00000	151.63000
48.01000	153.33000
48.02000	151.60000
48.03000	154.09000
48.04000	153.09000
48.05000	152.64000
48.06000	153.50000
48.07000	153.38000
48.08000	151.84000
48.09000	152.22000
48.10000	151.92000
48.11000	152.64000
48.12000	151.03000
48.13000	153.19000
48.14000	152.31000
48.15000	151.64000
48.16000	149.88000
48.17000	151.74000
48.18000	152.38000
48.19000	152.40000
48.20000	152.45000
48.21000	151.42000
48.22000	151.54000
48.23000	150.78000
48.24000	151.25000
48.25000	152.48000
48.26000	150.66000
48.27000	150.79000
48.28000	150.75000
48.29000	152.99000
48.30000	151.98000
48.31000	152.99000
48.32000	152.32000
48.33000	152.35000
48.34000	150.38000
48.35000	151.05000
48.36000	150.23000
48.37000	152.12000
48.38000	150.66000
48.39000	151.80000
48.40000	149.65000
48.41000	150.74000
48.42000	149.34000
48.43000	150.85000
48.44000	149.51000
48.45000	150.07000
48.46000	148.55000
48.47000	150.57000
48.48000	150.03000
48.49000	150.82000
48.50000	150.09000
48.51000	150.23000
48.52000	149.32000
48.53000	149.53000
48.54000	150.05000
48.55000	151.31000
48.56000	151.58000
48.57000	149.61000
48.58000	149.36000
48.59000	149.59000
48.60000	149.51000
48.61000	149.96000
48.62000	150.83000
48.63000	150.19000
48.64000	148.69000
48.65000	148.29000
48.66000	148.79000
48.67000	149.95000
48.68000	150.04000
48.69000	149.65000
48.70000	148.84000
48.71000	149.92000
48.72000	149.27000
48.73000	150.69000
48.74000	150.18000
48.75000	149.80000
48.76000	147.68000
48.77000	148.23000
48.78000	149.34000
48.79000	150.00000
48.80000	149.50000
48.81000	150.76000
48.82000	149.16000
48.83000	150.32000
48.84000	149.06000
48.85000	150.20000
48.86000	149.90000
48.87000	150.41000
48.88000	148.80000
48.89000	149.73000
48.90000	149.16000
48.91000	150.52000
48.92000	149.87000
48.93000	151.34000
48.94000	149.11000
48.95000	149.37000
48.96000	147.70000
48.97000	149.79000
48.98000	150.24000
48.99000	149.80000
49.00000	146.82000
49.01000	149.17000
49.02000	148.57000
49.03000	150.21000
49.04000	150.30000
49.05000	149.13000
49.06000	147.59000
49.07000	148.36000
49.08000	149.48000
49.09000	149.57000
49.10000	148.13000
49.11000	149.33000
49.12000	147.62000
49.13000	148.81000
49.14000	149.08000
49.15000	149.35000
49.16000	147.82000
49.17000	148.24000
49.18000	147.97000
49.19000	147.37000
49.20000	149.17000
49.21000	149.15000
49.22000	149.53000
49.23000	149.22000
49.24000	146.18000
49.25000	148.59000
49.26000	148.88000
49.27000	150.14000
49.28000	150.37000
49.29000	150.02000
49.30000	148.73000
49.31000	148.86000
49.32000	148.22000
49.33000	148.94000
49.34000	149.28000
49.35000	149.10000
49.36000	147.60000
49.37000	149.25000
49.38000	148.69000
49.39000	148.61000
49.40000	148.38000
49.41000	149.43000
49.42000	147.94000
49.43000	147.01000
49.44000	148.96000
49.45000	149.81000
49.46000	148.17000
49.47000	148.95000
49.48000	147.18000
49.49000	149.10000
49.50000	148.66000
49.51000	148.59000
49.52000	148.57000
49.53000	148.68000
49.54000	146.82000
49.55000	147.36000
49.56000	147.87000
49.57000	149.87000
49.58000	147.98000
49.59000	147.77000
49.60000	147.55000
49.61000	148.93000
49.62000	149.00000
49.63000	150.32000
49.64000	147.36000
49.65000	148.76000
49.66000	147.13000
49.67000	148.14000
49.68000	148.81000
49.69000	148.67000
49.70000	147.60000
49.71000	149.15000
49.72000	146.80000
49.73000	148.89000
49.74000	147.62000
49.75000	148.69000
49.76000	147.64000
49.77000	147.32000
49.78000	145.57000
49.79000	147.83000
49.80000	146.42000
49.81000	147.37000
49.82000	148.21000
49.83000	148.36000
49.84000	147.18000
49.85000	147.01000
49.86000	149.07000
49.87000	148.37000
49.88000	148.56000
49.89000	148.83000
49.90000	146.47000
49.91000	148.12000
49.92000	149.47000
49.93000	149.54000
49.94000	147.52000
49.95000	149.64000
49.96000	146.56000
49.97000	148.41000
49.98000	148.30000
49.99000	148.73000
50.00000	147.60000
