8.00000	1679.00000
8.02200	1699.00000
8.04400	1646.00000
8.06600	1571.00000
8.08800	1612.00000
8.11000	1511.00000
8.13200	1547.00000
8.15400	1591.00000
8.17600	1485.00000
8.19800	1570.00000
8.22000	1443.00000
8.24200	1468.00000
8.26400	1454.00000
8.28600	1473.00000
8.30800	1430.00000
8.33000	1481.00000
8.35200	1429.00000
8.37400	1412.00000
8.39600	1414.00000
8.41800	1384.00000
8.44000	1343.00000
8.46200	1359.00000
8.48400	1360.00000
8.50600	1400.00000
8.52800	1313.00000
8.55000	1343.00000
8.57200	1266.00000
8.59400	1268.00000
8.61600	1246.00000
8.63800	1208.00000
8.66000	1187.00000
8.68200	1254.00000
8.70400	1227.00000
8.72600	1203.00000
8.74800	1292.00000
8.77000	1271.00000
8.79200	1233.00000
8.81400	1278.00000
8.83600	1248.00000
8.85800	1173.00000
8.88000	1254.00000
8.90200	1228.00000
8.92400	1260.00000
8.94600	1230.00000
8.96800	1150.00000
8.99000	1150.00000
9.01200	1167.00000
9.03400	1207.00000
9.05600	1233.00000
9.07800	1217.00000
9.10000	1127.00000
9.12200	1219.00000
9.14400	1212.00000
9.16600	1209.00000
9.18800	1210.00000
9.21000	1170.00000
9.23200	1225.00000
9.25400	1146.00000
9.27600	1155.00000
9.29800	1189.00000
9.32000	1193.00000
9.34200	1165.00000
9.36400	1125.00000
9.38600	1218.00000
9.40800	1122.00000
9.43000	1176.00000
9.45200	1149.00000
9.47400	1140.00000
9.49600	1162.00000
9.51800	1148.00000
9.54000	1193.00000
9.56200	1121.00000
9.58400	1125.00000
9.60600	1106.00000
9.62800	1132.00000
9.65000	1184.00000
9.67200	1139.00000
9.69400	1155.00000
9.71600	1187.00000
9.73800	1196.00000
9.76000	1174.00000
9.78200	1179.00000
9.80400	1163.00000
9.82600	1116.00000
9.84800	1126.00000
9.87000	1069.00000
9.89200	1130.00000
9.91400	1114.00000
9.93600	1183.00000
9.95800	1148.00000
9.98000	1104.00000
10.00200	1161.00000
10.02400	1162.00000
10.04600	1150.00000
10.06800	1109.00000
10.09000	1142.00000
10.11200	1159.00000
10.13400	1149.00000
10.15600	1049.00000
10.17800	1099.00000
10.20000	1098.00000
10.22200	1067.00000
10.24400	1109.00000
10.26600	1149.00000
10.28800	1235.00000
10.31000	1164.00000
10.33200	1189.00000
10.35400	1194.00000
10.37600	1143.00000
10.39800	1169.00000
10.42000	1205.00000
10.44200	1157.00000
10.46400	1190.00000
10.48600	1169.00000
10.50800	1207.00000
10.53000	1231.00000
10.55200	1271.00000
10.57400	1340.00000
10.59600	1400.00000
10.61800	1552.00000
10.64000	1769.00000
10.66200	2147.00000
10.68400	2615.00000
10.70600	3437.00000
10.72800	4295.00000
10.75000	5001.00000
10.77200	5576.00000
10.79400	6616.00000
10.81600	6571.00000
10.83800	5310.00000
10.86000	3262.00000
10.88200	1897.00000
10.90400	1358.00000
10.92600	1180.00000
10.94800	1067.00000
10.97000	1082.00000
10.99200	1037.00000
11.01400	983.00000
11.03600	1013.00000
11.05800	962.00000
11.08000	996.00000
11.10200	1019.00000
11.12400	966.00000
11.14600	996.00000
11.16800	1009.00000
11.19000	997.00000
11.21200	957.00000
11.23400	939.00000
11.25600	961.00000
11.27800	919.00000
11.30000	980.00000
11.32200	935.00000
11.34400	953.00000
11.36600	894.00000
11.38800	942.00000
11.41000	912.00000
11.43200	960.00000
11.45400	913.00000
11.47600	914.00000
11.49800	906.00000
11.52000	879.00000
11.54200	942.00000
11.56400	934.00000
11.58600	895.00000
11.60800	908.00000
11.63000	886.00000
11.65200	905.00000
11.67400	891.00000
11.69600	863.00000
11.71800	879.00000
11.74000	926.00000
11.76200	852.00000
11.78400	856.00000
11.80600	877.00000
11.82800	849.00000
11.85000	910.00000
11.87200	899.00000
11.89400	846.00000
11.91600	847.00000
11.93800	854.00000
11.96000	823.00000
11.98200	832.00000
12.00400	885.00000
12.02600	879.00000
12.04800	852.00000
12.07000	863.00000
12.09200	870.00000
12.11400	886.00000
12.13600	862.00000
12.15800	854.00000
12.18000	838.00000
12.20200	808.00000
12.22400	846.00000
12.24600	861.00000
12.26800	845.00000
12.29000	847.00000
12.31200	831.00000
12.33400	883.00000
12.35600	809.00000
12.37800	861.00000
12.40000	826.00000
12.42200	812.00000
12.44400	810.00000
12.46600	829.00000
12.48800	774.00000
12.51000	845.00000
12.53200	818.00000
12.55400	840.00000
12.57600	823.00000
12.59800	790.00000
12.62000	817.00000
12.64200	775.00000
12.66400	767.00000
12.68600	830.00000
12.70800	780.00000
12.73000	744.00000
12.75200	764.00000
12.77400	818.00000
12.79600	832.00000
12.81800	772.00000
12.84000	837.00000
12.86200	768.00000
12.88400	816.00000
12.90600	823.00000
12.92800	825.00000
12.95000	847.00000
12.97200	787.00000
12.99400	788.00000
13.01600	770.00000
13.03800	809.00000
13.06000	764.00000
13.08200	785.00000
13.10400	784.00000
13.12600	757.00000
13.14800	819.00000
13.17000	737.00000
13.19200	811.00000
13.21400	782.00000
13.23600	795.00000
13.25800	782.00000
13.28000	750.00000
13.30200	718.00000
13.32400	761.00000
13.34600	758.00000
13.36800	813.00000
13.39000	797.00000
13.41200	778.00000
13.43400	750.00000
13.45600	757.00000
13.47800	697.00000
13.50000	721.00000
13.52200	776.00000
13.54400	723.00000
13.56600	761.00000
13.58800	757.00000
13.61000	783.00000
13.63200	758.00000
13.65400	768.00000
13.67600	728.00000
13.69800	722.00000
13.72000	754.00000
13.74200	726.00000
13.76400	698.00000
13.78600	760.00000
13.80800	723.00000
13.83000	740.00000
13.85200	760.00000
13.87400	716.00000
13.89600	683.00000
13.91800	747.00000
13.94000	752.00000
13.96200	713.00000
13.98400	731.00000
14.00600	723.00000
14.02800	730.00000
14.05000	760.00000
14.07200	749.00000
14.09400	719.00000
14.11600	725.00000
14.13800	713.00000
14.16000	731.00000
14.18200	735.00000
14.20400	724.00000
14.22600	704.00000
14.24800	693.00000
14.27000	684.00000
14.29200	693.00000
14.31400	728.00000
14.33600	695.00000
14.35800	727.00000
14.38000	676.00000
14.40200	684.00000
14.42400	665.00000
14.44600	706.00000
14.46800	687.00000
14.49000	710.00000
14.51200	679.00000
14.53400	697.00000
14.55600	700.00000
14.57800	661.00000
14.60000	666.00000
14.62200	650.00000
14.64400	685.00000
14.66600	699.00000
14.68800	681.00000
14.71000	691.00000
14.73200	646.00000
14.75400	743.00000
14.77600	689.00000
14.79800	710.00000
14.82000	675.00000
14.84200	723.00000
14.86400	735.00000
14.88600	669.00000
14.90800	694.00000
14.93000	713.00000
14.95200	670.00000
14.97400	650.00000
14.99600	688.00000
15.01800	677.00000
15.04000	721.00000
15.06200	686.00000
15.08400	702.00000
15.10600	668.00000
15.12800	661.00000
15.15000	646.00000
15.17200	652.00000
15.19400	645.00000
15.21600	631.00000
15.23800	647.00000
15.26000	653.00000
15.28200	691.00000
15.30400	688.00000
15.32600	699.00000
15.34800	675.00000
15.37000	625.00000
15.39200	668.00000
15.41400	647.00000
15.43600	642.00000
15.45800	702.00000
15.48000	685.00000
15.50200	683.00000
15.52400	657.00000
15.54600	637.00000
15.56800	657.00000
15.59000	665.00000
15.61200	644.00000
15.63400	700.00000
15.65600	675.00000
15.67800	610.00000
15.70000	684.00000
15.72200	652.00000
15.74400	641.00000
15.76600	651.00000
15.78800	646.00000
15.81000	653.00000
15.83200	607.00000
15.85400	665.00000
15.87600	670.00000
15.89800	671.00000
15.92000	682.00000
15.94200	724.00000
15.96400	677.00000
15.98600	640.00000
16.00800	587.00000
16.03000	645.00000
16.05200	600.00000
16.07400	639.00000
16.09600	663.00000
16.11800	602.00000
16.14000	635.00000
16.16200	624.00000
16.18400	676.00000
16.20600	684.00000
16.22800	694.00000
16.25000	615.00000
16.27200	649.00000
16.29400	663.00000
16.31600	630.00000
16.33800	620.00000
16.36000	623.00000
16.38200	626.00000
16.40400	621.00000
16.42600	638.00000
16.44800	639.00000
16.47000	626.00000
16.49200	629.00000
16.51400	592.00000
16.53600	656.00000
16.55800	644.00000
16.58000	592.00000
16.60200	603.00000
16.62400	610.00000
16.64600	629.00000
16.66800	602.00000
16.69000	643.00000
16.71200	624.00000
16.73400	632.00000
16.75600	607.00000
16.77800	632.00000
16.80000	602.00000
16.82200	635.00000
16.84400	614.00000
16.86600	652.00000
16.88800	648.00000
16.91000	624.00000
16.93200	614.00000
16.95400	614.00000
16.97600	674.00000
16.99800	604.00000
17.02000	609.00000
17.04200	618.00000
17.06400	655.00000
17.08600	628.00000
17.10800	607.00000
17.13000	580.00000
17.15200	656.00000
17.17400	588.00000
17.19600	644.00000
17.21800	596.00000
17.24000	645.00000
17.26200	638.00000
17.28400	593.00000
17.30600	615.00000
17.32800	645.00000
17.35000	657.00000
17.37200	626.00000
17.39400	609.00000
17.41600	602.00000
17.43800	621.00000
17.46000	612.00000
17.48200	635.00000
17.50400	609.00000
17.52600	583.00000
17.54800	629.00000
17.57000	644.00000
17.59200	601.00000
17.61400	652.00000
17.63600	587.00000
17.65800	605.00000
17.68000	598.00000
17.70200	615.00000
17.72400	609.00000
17.74600	565.00000
17.76800	601.00000
17.79000	612.00000
17.81200	635.00000
17.83400	635.00000
17.85600	609.00000
17.87800	573.00000
17.90000	606.00000
17.92200	673.00000
17.94400	628.00000
17.96600	634.00000
17.98800	588.00000
18.01000	603.00000
18.03200	620.00000
18.05400	647.00000
18.07600	625.00000
18.09800	621.00000
18.12000	631.00000
18.14200	566.00000
18.16400	621.00000
18.18600	589.00000
18.20800	636.00000
18.23000	611.00000
18.25200	642.00000
18.27400	651.00000
18.29600	713.00000
18.31800	648.00000
18.34000	676.00000
18.36200	672.00000
18.38400	690.00000
18.40600	603.00000
18.42800	608.00000
18.45000	634.00000
18.47200	666.00000
18.49400	673.00000
18.51600	584.00000
18.53800	607.00000
18.56000	562.00000
18.58200	632.00000
18.60400	629.00000
18.62600	660.00000
18.64800	596.00000
18.67000	629.00000
18.69200	616.00000
18.71400	650.00000
18.73600	594.00000
18.75800	587.00000
18.78000	592.00000
18.80200	615.00000
18.82400	580.00000
18.84600	576.00000
18.86800	602.00000
18.89000	590.00000
18.91200	646.00000
18.93400	579.00000
18.95600	625.00000
18.97800	576.00000
19.00000	634.00000
19.02200	603.00000
19.04400	571.00000
19.06600	589.00000
19.08800	611.00000
19.11000	576.00000
19.13200	606.00000
19.15400	593.00000
19.17600	578.00000
19.19800	621.00000
19.22000	630.00000
19.24200	561.00000
19.26400	625.00000
19.28600	636.00000
19.30800	561.00000
19.33000	595.00000
19.35200	616.00000
19.37400	615.00000
19.39600	585.00000
19.41800	619.00000
19.44000	608.00000
19.46200	640.00000
19.48400	701.00000
19.50600	698.00000
19.52800	659.00000
19.55000	716.00000
19.57200	690.00000
19.59400	721.00000
19.61600	663.00000
19.63800	641.00000
19.66000	635.00000
19.68200	624.00000
19.70400	637.00000
19.72600	673.00000
19.74800	591.00000
19.77000	613.00000
19.79200	640.00000
19.81400	611.00000
19.83600	560.00000
19.85800	624.00000
19.88000	629.00000
19.90200	602.00000
19.92400	632.00000
19.94600	545.00000
19.96800	583.00000
19.99000	628.00000
20.01200	593.00000
20.03400	586.00000
20.05600	646.00000
20.07800	601.00000
20.10000	622.00000
20.12200	637.00000
20.14400	653.00000
20.16600	608.00000
20.18800	665.00000
20.21000	615.00000
20.23200	599.00000
20.25400	636.00000
20.27600	602.00000
20.29800	577.00000
20.32000	596.00000
20.34200	571.00000
20.36400	628.00000
20.38600	598.00000
20.40800	571.00000
20.43000	606.00000
20.45200	627.00000
20.47400	602.00000
20.49600	606.00000
20.51800	595.00000
20.54000	611.00000
20.56200	636.00000
20.58400	567.00000
20.60600	655.00000
20.62800	640.00000
20.65000	590.00000
20.67200	650.00000
20.69400	680.00000
20.71600	657.00000
20.73800	673.00000
20.76000	663.00000
20.78200	647.00000
20.80400	711.00000
20.82600	678.00000
20.84800	654.00000
20.87000	623.00000
20.89200	654.00000
20.91400	640.00000
20.93600	629.00000
20.95800	769.00000
20.98000	698.00000
21.00200	735.00000
21.02400	719.00000
21.04600	736.00000
21.06800	702.00000
21.09000	738.00000
21.11200	677.00000
21.13400	717.00000
21.15600	700.00000
21.17800	684.00000
21.20000	660.00000
21.22200	668.00000
21.24400	651.00000
21.26600	650.00000
21.28800	607.00000
21.31000	634.00000
21.33200	654.00000
21.35400	661.00000
21.37600	670.00000
21.39800	649.00000
21.42000	671.00000
21.44200	658.00000
21.46400	668.00000
21.48600	694.00000
21.50800	752.00000
21.53000	764.00000
21.55200	864.00000
21.57400	970.00000
21.59600	1227.00000
21.61800	1584.00000
21.64000	1781.00000
21.66200	2105.00000
21.68400	2248.00000
21.70600	2290.00000
21.72800	2077.00000
21.75000	1646.00000
21.77200	1260.00000
21.79400	1012.00000
21.81600	859.00000
21.83800	705.00000
21.86000	685.00000
21.88200	663.00000
21.90400	692.00000
21.92600	675.00000
21.94800	653.00000
21.97000	661.00000
21.99200	695.00000
22.01400	653.00000
22.03600	716.00000
22.05800	670.00000
22.08000	701.00000
22.10200	660.00000
22.12400	676.00000
22.14600	701.00000
22.16800	662.00000
22.19000	626.00000
22.21200	689.00000
22.23400	670.00000
22.25600	735.00000
22.27800	729.00000
22.30000	749.00000
22.32200	669.00000
22.34400	698.00000
22.36600	690.00000
22.38800	714.00000
22.41000	682.00000
22.43200	734.00000
22.45400	735.00000
22.47600	732.00000
22.49800	712.00000
22.52000	679.00000
22.54200	690.00000
22.56400	697.00000
22.58600	741.00000
22.60800	733.00000
22.63000	707.00000
22.65200	757.00000
22.67400	712.00000
22.69600	700.00000
22.71800	738.00000
22.74000	793.00000
22.76200	778.00000
22.78400	742.00000
22.80600	773.00000
22.82800	839.00000
22.85000	920.00000
22.87200	1029.00000
22.89400	1221.00000
22.91600	1549.00000
22.93800	2325.00000
22.96000	3213.00000
22.98200	4438.00000
23.00400	5832.00000
23.02600	6703.00000
23.04800	6874.00000
23.07000	6203.00000
23.09200	4895.00000
23.11400	3359.00000
23.13600	2344.00000
23.15800	1497.00000
23.18000	1018.00000
23.20200	847.00000
23.22400	760.00000
23.24600	715.00000
23.26800	721.00000
23.29000	678.00000
23.31200	648.00000
23.33400	733.00000
23.35600	699.00000
23.37800	644.00000
23.40000	634.00000
23.42200	661.00000
23.44400	631.00000
23.46600	682.00000
23.48800	668.00000
23.51000	644.00000
23.53200	631.00000
23.55400	675.00000
23.57600	635.00000
23.59800	673.00000
23.62000	647.00000
23.64200	655.00000
23.66400	705.00000
23.68600	787.00000
23.70800	733.00000
23.73000	762.00000
23.75200	814.00000
23.77400	784.00000
23.79600	785.00000
23.81800	782.00000
23.84000	719.00000
23.86200	723.00000
23.88400	741.00000
23.90600	804.00000
23.92800	753.00000
23.95000	816.00000
23.97200	805.00000
23.99400	842.00000
24.01600	771.00000
24.03800	836.00000
24.06000	727.00000
24.08200	774.00000
24.10400	759.00000
24.12600	698.00000
24.14800	635.00000
24.17000	600.00000
24.19200	635.00000
24.21400	646.00000
24.23600	654.00000
24.25800	592.00000
24.28000	662.00000
24.30200	620.00000
24.32400	618.00000
24.34600	617.00000
24.36800	645.00000
24.39000	621.00000
24.41200	689.00000
24.43400	686.00000
24.45600	649.00000
24.47800	630.00000
24.50000	633.00000
24.52200	692.00000
24.54400	689.00000
24.56600	708.00000
24.58800	677.00000
24.61000	722.00000
24.63200	714.00000
24.65400	736.00000
24.67600	689.00000
24.69800	679.00000
24.72000	627.00000
24.74200	649.00000
24.76400	664.00000
24.78600	686.00000
24.80800	708.00000
24.83000	651.00000
24.85200	643.00000
24.87400	693.00000
24.89600	686.00000
24.91800	636.00000
24.94000	660.00000
24.96200	732.00000
24.98400	629.00000
25.00600	696.00000
25.02800	703.00000
25.05000	667.00000
25.07200	715.00000
25.09400	709.00000
25.11600	722.00000
25.13800	742.00000
25.16000	710.00000
25.18200	702.00000
25.20400	715.00000
25.22600	755.00000
25.24800	734.00000
25.27000	672.00000
25.29200	687.00000
25.31400	743.00000
25.33600	696.00000
25.35800	731.00000
25.38000	742.00000
25.40200	749.00000
25.42400	754.00000
25.44600	779.00000
25.46800	765.00000
25.49000	776.00000
25.51200	777.00000
25.53400	790.00000
25.55600	793.00000
25.57800	835.00000
25.60000	771.00000
25.62200	775.00000
25.64400	766.00000
25.66600	843.00000
25.68800	813.00000
25.71000	804.00000
25.73200	770.00000
25.75400	847.00000
25.77600	859.00000
25.79800	848.00000
25.82000	827.00000
25.84200	820.00000
25.86400	887.00000
25.88600	820.00000
25.90800	852.00000
25.93000	900.00000
25.95200	943.00000
25.97400	800.00000
25.99600	829.00000
26.01800	918.00000
26.04000	914.00000
26.06200	944.00000
26.08400	979.00000
26.10600	982.00000
26.12800	1117.00000
26.15000	1279.00000
26.17200	1550.00000
26.19400	1986.00000
26.21600	2799.00000
26.23800	4566.00000
26.26000	7132.00000
26.28200	10304.00000
26.30400	13364.00000
26.32600	15825.00000
26.34800	16881.00000
26.37000	15837.00000
26.39200	13269.00000
26.41400	9980.00000
26.43600	6745.00000
26.45800	4546.00000
26.48000	2800.00000
26.50200	1613.00000
26.52400	1152.00000
26.54600	965.00000
26.56800	870.00000
26.59000	871.00000
26.61200	840.00000
26.63400	793.00000
26.65600	820.00000
26.67800	735.00000
26.70000	793.00000
26.72200	725.00000
26.74400	767.00000
26.76600	778.00000
26.78800	720.00000
26.81000	752.00000
26.83200	762.00000
26.85400	751.00000
26.87600	748.00000
26.89800	733.00000
26.92000	738.00000
26.94200	702.00000
26.96400	751.00000
26.98600	732.00000
27.00800	707.00000
27.03000	762.00000
27.05200	712.00000
27.07400	669.00000
27.09600	773.00000
27.11800	736.00000
27.14000	724.00000
27.16200	692.00000
27.18400	712.00000
27.20600	717.00000
27.22800	705.00000
27.25000	756.00000
27.27200	739.00000
27.29400	781.00000
27.31600	785.00000
27.33800	911.00000
27.36000	1166.00000
27.38200	1569.00000
27.40400	2068.00000
27.42600	2739.00000
27.44800	3370.00000
27.47000	3662.00000
27.49200	3676.00000
27.51400	3197.00000
27.53600	2603.00000
27.55800	1957.00000
27.58000	1498.00000
27.60200	1081.00000
27.62400	849.00000
27.64600	753.00000
27.66800	739.00000
27.69000	599.00000
27.71200	663.00000
27.73400	651.00000
27.75600	603.00000
27.77800	630.00000
27.80000	669.00000
27.82200	613.00000
27.84400	615.00000
27.86600	624.00000
27.88800	674.00000
27.91000	628.00000
27.93200	581.00000
27.95400	585.00000
27.97600	599.00000
27.99800	621.00000
28.02000	658.00000
28.04200	606.00000
28.06400	615.00000
28.08600	599.00000
28.10800	679.00000
28.13000	659.00000
28.15200	744.00000
28.17400	813.00000
28.19600	1060.00000
28.21800	1324.00000
28.24000	1609.00000
28.26200	1829.00000
28.28400	1917.00000
28.30600	1838.00000
28.32800	1637.00000
28.35000	1322.00000
28.37200	1149.00000
28.39400	973.00000
28.41600	746.00000
28.43800	720.00000
28.46000	631.00000
28.48200	620.00000
28.50400	601.00000
28.52600	621.00000
28.54800	592.00000
28.57000	611.00000
28.59200	630.00000
28.61400	643.00000
28.63600	573.00000
28.65800	617.00000
28.68000	599.00000
28.70200	608.00000
28.72400	599.00000
28.74600	620.00000
28.76800	616.00000
28.79000	601.00000
28.81200	584.00000
28.83400	580.00000
28.85600	661.00000
28.87800	595.00000
28.90000	633.00000
28.92200	620.00000
28.94400	631.00000
28.96600	628.00000
28.98800	604.00000
29.01000	597.00000
29.03200	598.00000
29.05400	597.00000
29.07600	596.00000
29.09800	601.00000
29.12000	603.00000
29.14200	613.00000
29.16400	620.00000
29.18600	610.00000
29.20800	577.00000
29.23000	636.00000
29.25200	606.00000
29.27400	671.00000
29.29600	651.00000
29.31800	713.00000
29.34000	612.00000
29.36200	628.00000
29.38400	641.00000
29.40600	603.00000
29.42800	649.00000
29.45000	658.00000
29.47200	694.00000
29.49400	686.00000
29.51600	704.00000
29.53800	722.00000
29.56000	722.00000
29.58200	733.00000
29.60400	794.00000
29.62600	907.00000
29.64800	1071.00000
29.67000	1435.00000
29.69200	2148.00000
29.71400	3275.00000
29.73600	4704.00000
29.75800	5882.00000
29.78000	6806.00000
29.80200	6977.00000
29.82400	6442.00000
29.84600	5222.00000
29.86800	3714.00000
29.89000	2808.00000
29.91200	2085.00000
29.93400	1358.00000
29.95600	963.00000
29.97800	646.00000
30.00000	658.00000
30.02200	676.00000
30.04400	642.00000
30.06600	604.00000
30.08800	607.00000
30.11000	594.00000
30.13200	593.00000
30.15400	598.00000
30.17600	611.00000
30.19800	621.00000
30.22000	649.00000
30.24200	737.00000
30.26400	830.00000
30.28600	1007.00000
30.30800	1057.00000
30.33000	1140.00000
30.35200	1240.00000
30.37400	1198.00000
30.39600	1137.00000
30.41800	913.00000
30.44000	803.00000
30.46200	774.00000
30.48400	673.00000
30.50600	596.00000
30.52800	562.00000
30.55000	601.00000
30.57200	559.00000
30.59400	566.00000
30.61600	534.00000
30.63800	585.00000
30.66000	547.00000
30.68200	607.00000
30.70400	556.00000
30.72600	577.00000
30.74800	571.00000
30.77000	542.00000
30.79200	569.00000
30.81400	561.00000
30.83600	545.00000
30.85800	526.00000
30.88000	566.00000
30.90200	510.00000
30.92400	511.00000
30.94600	531.00000
30.96800	470.00000
30.99000	498.00000
31.01200	494.00000
31.03400	503.00000
31.05600	545.00000
31.07800	498.00000
31.10000	494.00000
31.12200	445.00000
31.14400	572.00000
31.16600	508.00000
31.18800	493.00000
31.21000	478.00000
31.23200	501.00000
31.25400	494.00000
31.27600	505.00000
31.29800	518.00000
31.32000	505.00000
31.34200	514.00000
31.36400	514.00000
31.38600	510.00000
31.40800	505.00000
31.43000	489.00000
31.45200	461.00000
31.47400	517.00000
31.49600	545.00000
31.51800	538.00000
31.54000	512.00000
31.56200	572.00000
31.58400	554.00000
31.60600	549.00000
31.62800	601.00000
31.65000	658.00000
31.67200	776.00000
31.69400	892.00000
31.71600	1111.00000
31.73800	1170.00000
31.76000	1241.00000
31.78200	1336.00000
31.80400	1240.00000
31.82600	1067.00000
31.84800	851.00000
31.87000	799.00000
31.89200	719.00000
31.91400	625.00000
31.93600	573.00000
31.95800	584.00000
31.98000	561.00000
32.00200	608.00000
32.02400	628.00000
32.04600	672.00000
32.06800	644.00000
32.09000	647.00000
32.11200	578.00000
32.13400	560.00000
32.15600	494.00000
32.17800	499.00000
32.20000	482.00000
32.22200	484.00000
32.24400	462.00000
32.26600	517.00000
32.28800	492.00000
32.31000	486.00000
32.33200	455.00000
32.35400	511.00000
32.37600	478.00000
32.39800	506.00000
32.42000	477.00000
32.44200	464.00000
32.46400	496.00000
32.48600	496.00000
32.50800	485.00000
32.53000	540.00000
32.55200	528.00000
32.57400	599.00000
32.59600	693.00000
32.61800	996.00000
32.64000	1160.00000
32.66200	1427.00000
32.68400	1651.00000
32.70600	1863.00000
32.72800	1998.00000
32.75000	1936.00000
32.77200	1799.00000
32.79400	1490.00000
32.81600	1136.00000
32.83800	960.00000
32.86000	848.00000
32.88200	672.00000
32.90400	587.00000
32.92600	539.00000
32.94800	484.00000
32.97000	491.00000
32.99200	477.00000
33.01400	435.00000
33.03600	462.00000
33.05800	471.00000
33.08000	455.00000
33.10200	453.00000
33.12400	465.00000
33.14600	466.00000
33.16800	464.00000
33.19000	488.00000
33.21200	482.00000
33.23400	440.00000
33.25600	525.00000
33.27800	476.00000
33.30000	473.00000
33.32200	495.00000
33.34400	477.00000
33.36600	475.00000
33.38800	487.00000
33.41000	435.00000
33.43200	471.00000
33.45400	504.00000
33.47600	513.00000
33.49800	513.00000
33.52000	444.00000
33.54200	514.00000
33.56400	501.00000
33.58600	508.00000
33.60800	489.00000
33.63000	525.00000
33.65200	535.00000
33.67400	538.00000
33.69600	544.00000
33.71800	589.00000
33.74000	632.00000
33.76200	723.00000
33.78400	959.00000
33.80600	1416.00000
33.82800	2134.00000
33.85000	2905.00000
33.87200	3447.00000
33.89400	3704.00000
33.91600	3792.00000
33.93800	3693.00000
33.96000	3179.00000
33.98200	2306.00000
34.00400	1833.00000
34.02600	1534.00000
34.04800	1104.00000
34.07000	778.00000
34.09200	642.00000
34.11400	514.00000
34.13600	498.00000
34.15800	498.00000
34.18000	482.00000
34.20200	474.00000
34.22400	481.00000
34.24600	459.00000
34.26800	454.00000
34.29000	464.00000
34.31200	417.00000
34.33400	472.00000
34.35600	454.00000
34.37800	436.00000
34.40000	457.00000
34.42200	416.00000
34.44400	423.00000
34.46600	423.00000
34.48800	413.00000
34.51000	441.00000
34.53200	422.00000
34.55400	388.00000
34.57600	414.00000
34.59800	438.00000
34.62000	430.00000
34.64200	394.00000
34.66400	399.00000
34.68600	410.00000
34.70800	436.00000
34.73000	344.00000
34.75200	403.00000
34.77400	423.00000
34.79600	395.00000
34.81800	359.00000
34.84000	376.00000
34.86200	388.00000
34.88400	404.00000
34.90600	348.00000
34.92800	358.00000
34.95000	362.00000
34.97200	364.00000
34.99400	373.00000
35.01600	387.00000
35.03800	357.00000
35.06000	382.00000
35.08200	388.00000
35.10400	335.00000
35.12600	377.00000
35.14800	395.00000
35.17000	367.00000
35.19200	373.00000
35.21400	408.00000
35.23600	384.00000
35.25800	396.00000
35.28000	359.00000
35.30200	371.00000
35.32400	355.00000
35.34600	360.00000
35.36800	363.00000
35.39000	376.00000
35.41200	352.00000
35.43400	404.00000
35.45600	394.00000
35.47800	391.00000
35.50000	384.00000
35.52200	379.00000
35.54400	357.00000
35.56600	358.00000
35.58800	389.00000
35.61000	338.00000
35.63200	373.00000
35.65400	381.00000
35.67600	361.00000
35.69800	362.00000
35.72000	347.00000
35.74200	370.00000
35.76400	377.00000
35.78600	354.00000
35.80800	367.00000
35.83000	367.00000
35.85200	382.00000
35.87400	382.00000
35.89600	361.00000
35.91800	356.00000
35.94000	411.00000
35.96200	373.00000
35.98400	403.00000
36.00600	401.00000
36.02800	345.00000
36.05000	402.00000
36.07200	407.00000
36.09400	381.00000
36.11600	366.00000
36.13800	357.00000
36.16000	377.00000
36.18200	392.00000
36.20400	370.00000
36.22600	362.00000
36.24800	361.00000
36.27000	374.00000
36.29200	381.00000
36.31400	339.00000
36.33600	368.00000
36.35800	382.00000
36.38000	378.00000
36.40200	375.00000
36.42400	385.00000
36.44600	393.00000
36.46800	347.00000
36.49000	370.00000
36.51200	349.00000
36.53400	378.00000
36.55600	373.00000
36.57800	348.00000
36.60000	327.00000
36.62200	371.00000
36.64400	357.00000
36.66600	370.00000
36.68800	383.00000
36.71000	369.00000
36.73200	389.00000
36.75400	364.00000
36.77600	384.00000
36.79800	375.00000
36.82000	391.00000
36.84200	391.00000
36.86400	413.00000
36.88600	431.00000
36.90800	428.00000
36.93000	412.00000
36.95200	411.00000
36.97400	455.00000
36.99600	505.00000
37.01800	568.00000
37.04000	778.00000
37.06200	996.00000
37.08400	1311.00000
37.10600	1728.00000
37.12800	1949.00000
37.15000	2081.00000
37.17200	1942.00000
37.19400	1848.00000
37.21600	1691.00000
37.23800	1373.00000
37.26000	1097.00000
37.28200	902.00000
37.30400	772.00000
37.32600	612.00000
37.34800	512.00000
37.37000	476.00000
37.39200	381.00000
37.41400	370.00000
37.43600	397.00000
37.45800	376.00000
37.48000	446.00000
37.50200	373.00000
37.52400	426.00000
37.54600	417.00000
37.56800	398.00000
37.59000	380.00000
37.61200	406.00000
37.63400	359.00000
37.65600	414.00000
37.67800	391.00000
37.70000	402.00000
37.72200	386.00000
37.74400	412.00000
37.76600	433.00000
37.78800	409.00000
37.81000	471.00000
37.83200	521.00000
37.85400	605.00000
37.87600	826.00000
37.89800	1232.00000
37.92000	1683.00000
37.94200	1891.00000
37.96400	2244.00000
37.98600	2340.00000
38.00800	2215.00000
38.03000	1983.00000
38.05200	1600.00000
38.07400	1319.00000
38.09600	1021.00000
38.11800	878.00000
38.14000	713.00000
38.16200	539.00000
38.18400	440.00000
38.20600	393.00000
38.22800	348.00000
38.25000	367.00000
38.27200	354.00000
38.29400	375.00000
38.31600	349.00000
38.33800	398.00000
38.36000	370.00000
38.38200	349.00000
38.40400	353.00000
38.42600	371.00000
38.44800	361.00000
38.47000	339.00000
38.49200	345.00000
38.51400	328.00000
38.53600	322.00000
38.55800	337.00000
38.58000	330.00000
38.60200	335.00000
38.62400	348.00000
38.64600	302.00000
38.66800	299.00000
38.69000	350.00000
38.71200	347.00000
38.73400	296.00000
38.75600	315.00000
38.77800	317.00000
38.80000	315.00000
38.82200	336.00000
38.84400	313.00000
38.86600	296.00000
38.88800	355.00000
38.91000	334.00000
38.93200	312.00000
38.95400	313.00000
38.97600	327.00000
38.99800	345.00000
39.02000	326.00000
39.04200	291.00000
39.06400	310.00000
39.08600	362.00000
39.10800	317.00000
39.13000	316.00000
39.15200	339.00000
39.17400	345.00000
39.19600	342.00000
39.21800	342.00000
39.24000	324.00000
39.26200	336.00000
39.28400	329.00000
39.30600	287.00000
39.32800	304.00000
39.35000	352.00000
39.37200	328.00000
39.39400	322.00000
39.41600	305.00000
39.43800	315.00000
39.46000	350.00000
39.48200	345.00000
39.50400	305.00000
39.52600	323.00000
39.54800	318.00000
39.57000	338.00000
39.59200	351.00000
39.61400	307.00000
39.63600	351.00000
39.65800	340.00000
39.68000	320.00000
39.70200	313.00000
39.72400	342.00000
39.74600	275.00000
39.76800	312.00000
39.79000	331.00000
39.81200	317.00000
39.83400	310.00000
39.85600	334.00000
39.87800	303.00000
39.90000	328.00000
39.92200	276.00000
39.94400	314.00000
39.96600	302.00000
39.98800	330.00000
40.01000	309.00000
40.03200	290.00000
40.05400	290.00000
40.07600	298.00000
40.09800	323.00000
40.12000	299.00000
40.14200	274.00000
40.16400	293.00000
40.18600	291.00000
40.20800	297.00000
40.23000	307.00000
40.25200	301.00000
40.27400	358.00000
40.29600	307.00000
40.31800	345.00000
40.34000	330.00000
40.36200	344.00000
40.38400	391.00000
40.40600	411.00000
40.42800	429.00000
40.45000	475.00000
40.47200	439.00000
40.49400	459.00000
40.51600	441.00000
40.53800	424.00000
40.56000	382.00000
40.58200	386.00000
40.60400	379.00000
40.62600	366.00000
40.64800	371.00000
40.67000	319.00000
40.69200	312.00000
40.71400	293.00000
40.73600	314.00000
40.75800	335.00000
40.78000	310.00000
40.80200	332.00000
40.82400	340.00000
40.84600	301.00000
40.86800	319.00000
40.89000	316.00000
40.91200	326.00000
40.93400	315.00000
40.95600	295.00000
40.97800	324.00000
41.00000	324.00000
41.02200	330.00000
41.04400	332.00000
41.06600	323.00000
41.08800	346.00000
41.11000	328.00000
41.13200	320.00000
41.15400	320.00000
41.17600	319.00000
41.19800	311.00000
41.22000	336.00000
41.24200	322.00000
41.26400	330.00000
41.28600	346.00000
41.30800	360.00000
41.33000	342.00000
41.35200	381.00000
41.37400	345.00000
41.39600	427.00000
41.41800	516.00000
41.44000	641.00000
41.46200	815.00000
41.48400	890.00000
41.50600	919.00000
41.52800	983.00000
41.55000	1051.00000
41.57200	944.00000
41.59400	848.00000
41.61600	713.00000
41.63800	631.00000
41.66000	578.00000
41.68200	528.00000
41.70400	469.00000
41.72600	365.00000
41.74800	393.00000
41.77000	332.00000
41.79200	361.00000
41.81400	354.00000
41.83600	371.00000
41.85800	369.00000
41.88000	357.00000
41.90200	416.00000
41.92400	492.00000
41.94600	581.00000
41.96800	545.00000
41.99000	571.00000
42.01200	622.00000
42.03400	608.00000
42.05600	564.00000
42.07800	537.00000
42.10000	478.00000
42.12200	468.00000
42.14400	438.00000
42.16600	359.00000
42.18800	368.00000
42.21000	395.00000
42.23200	347.00000
42.25400	342.00000
42.27600	375.00000
42.29800	395.00000
42.32000	403.00000
42.34200	407.00000
42.36400	457.00000
42.38600	449.00000
42.40800	566.00000
42.43000	730.00000
42.45200	1022.00000
42.47400	1325.00000
42.49600	1578.00000
42.51800	1753.00000
42.54000	1847.00000
42.56200	1903.00000
42.58400	1921.00000
42.60600	1770.00000
42.62800	1450.00000
42.65000	1143.00000
42.67200	957.00000
42.69400	953.00000
42.71600	718.00000
42.73800	549.00000
42.76000	452.00000
42.78200	401.00000
42.80400	382.00000
42.82600	376.00000
42.84800	330.00000
42.87000	362.00000
42.89200	362.00000
42.91400	376.00000
42.93600	405.00000
42.95800	487.00000
42.98000	575.00000
43.00200	567.00000
43.02400	544.00000
43.04600	570.00000
43.06800	605.00000
43.09000	541.00000
43.11200	508.00000
43.13400	454.00000
43.15600	453.00000
43.17800	500.00000
43.20000	512.00000
43.22200	533.00000
43.24400	612.00000
43.26600	611.00000
43.28800	609.00000
43.31000	608.00000
43.33200	625.00000
43.35400	528.00000
43.37600	491.00000
43.39800	461.00000
43.42000	467.00000
43.44200	457.00000
43.46400	369.00000
43.48600	348.00000
43.50800	321.00000
43.53000	327.00000
43.55200	317.00000
43.57400	329.00000
43.59600	317.00000
43.61800	297.00000
43.64000	339.00000
43.66200	309.00000
43.68400	310.00000
43.70600	306.00000
43.72800	297.00000
43.75000	319.00000
43.77200	304.00000
43.79400	325.00000
43.81600	320.00000
43.83800	286.00000
43.86000	295.00000
43.88200	284.00000
43.90400	319.00000
43.92600	310.00000
43.94800	338.00000
43.97000	310.00000
43.99200	384.00000
44.01400	409.00000
44.03600	499.00000
44.05800	492.00000
44.08000	538.00000
44.10200	586.00000
44.12400	644.00000
44.14600	717.00000
44.16800	805.00000
44.19000	707.00000
44.21200	719.00000
44.23400	708.00000
44.25600	647.00000
44.27800	582.00000
44.30000	506.00000
44.32200	456.00000
44.34400	445.00000
44.36600	428.00000
44.38800	368.00000
44.41000	336.00000
44.43200	345.00000
44.45400	310.00000
44.47600	299.00000
44.49800	297.00000
44.52000	319.00000
44.54200	321.00000
44.56400	350.00000
44.58600	345.00000
44.60800	318.00000
44.63000	359.00000
44.65200	414.00000
44.67400	543.00000
44.69600	622.00000
44.71800	745.00000
44.74000	971.00000
44.76200	1121.00000
44.78400	1223.00000
44.80600	1282.00000
44.82800	1301.00000
44.85000	1241.00000
44.87200	1222.00000
44.89400	1021.00000
44.91600	814.00000
44.93800	682.00000
44.96000	720.00000
44.98200	578.00000
45.00400	491.00000
45.02600	449.00000
45.04800	343.00000
45.07000	311.00000
45.09200	296.00000
45.11400	304.00000
45.13600	315.00000
45.15800	273.00000
45.18000	297.00000
45.20200	252.00000
45.22400	287.00000
45.24600	297.00000
45.26800	289.00000
45.29000	281.00000
45.31200	309.00000
45.33400	273.00000
45.35600	287.00000
45.37800	283.00000
45.40000	297.00000
45.42200	290.00000
45.44400	291.00000
45.46600	263.00000
45.48800	293.00000
45.51000	299.00000
45.53200	303.00000
45.55400	278.00000
45.57600	279.00000
45.59800	308.00000
45.62000	264.00000
45.64200	296.00000
45.66400	276.00000
45.68600	309.00000
45.70800	268.00000
45.73000	279.00000
45.75200	273.00000
45.77400	280.00000
45.79600	280.00000
45.81800	286.00000
45.84000	277.00000
45.86200	240.00000
45.88400	258.00000
45.90600	254.00000
45.92800	256.00000
45.95000	295.00000
45.97200	265.00000
45.99400	248.00000
46.01600	277.00000
46.03800	261.00000
46.06000	271.00000
46.08200	293.00000
46.10400	250.00000
46.12600	275.00000
46.14800	238.00000
46.17000	310.00000
46.19200	283.00000
46.21400	260.00000
46.23600	263.00000
46.25800	273.00000
46.28000	263.00000
46.30200	252.00000
46.32400	311.00000
46.34600	281.00000
46.36800	296.00000
46.39000	283.00000
46.41200	287.00000
46.43400	275.00000
46.45600	289.00000
46.47800	286.00000
46.50000	253.00000
46.52200	273.00000
46.54400	280.00000
46.56600	265.00000
46.58800	262.00000
46.61000	262.00000
46.63200	303.00000
46.65400	341.00000
46.67600	375.00000
46.69800	393.00000
46.72000	392.00000
46.74200	461.00000
46.76400	456.00000
46.78600	457.00000
46.80800	483.00000
46.83000	433.00000
46.85200	420.00000
46.87400	366.00000
46.89600	354.00000
46.91800	341.00000
46.94000	359.00000
46.96200	341.00000
46.98400	288.00000
47.00600	317.00000
47.02800	277.00000
47.05000	293.00000
47.07200	316.00000
47.09400	270.00000
47.11600	262.00000
47.13800	240.00000
47.16000	274.00000
47.18200	291.00000
47.20400	277.00000
47.22600	264.00000
47.24800	278.00000
47.27000	309.00000
47.29200	285.00000
47.31400	239.00000
47.33600	282.00000
47.35800	256.00000
47.38000	298.00000
47.40200	298.00000
47.42400	271.00000
47.44600	272.00000
47.46800	251.00000
47.49000	282.00000
47.51200	285.00000
47.53400	268.00000
47.55600	250.00000
47.57800	268.00000
47.60000	231.00000
47.62200	267.00000
47.64400	277.00000
47.66600	286.00000
47.68800	260.00000
47.71000	280.00000
47.73200	264.00000
47.75400	246.00000
47.77600	250.00000
47.79800	268.00000
47.82000	243.00000
47.84200	283.00000
47.86400	273.00000
47.88600	296.00000
47.90800	286.00000
47.93000	290.00000
47.95200	287.00000
47.97400	305.00000
47.99600	254.00000
48.01800	273.00000
48.04000	285.00000
48.06200	313.00000
48.08400	291.00000
48.10600	300.00000
48.12800	293.00000
48.15000	307.00000
48.17200	326.00000
48.19400	403.00000
48.21600	548.00000
48.23800	681.00000
48.26000	728.00000
48.28200	758.00000
48.30400	740.00000
48.32600	890.00000
48.34800	935.00000
48.37000	869.00000
48.39200	784.00000
48.41400	641.00000
48.43600	558.00000
48.45800	538.00000
48.48000	505.00000
48.50200	517.00000
48.52400	401.00000
48.54600	354.00000
48.56800	303.00000
48.59000	305.00000
48.61200	290.00000
48.63400	317.00000
48.65600	302.00000
48.67800	310.00000
48.70000	271.00000
48.72200	284.00000
48.74400	283.00000
48.76600	270.00000
48.78800	289.00000
48.81000	283.00000
48.83200	298.00000
48.85400	269.00000
48.87600	248.00000
48.89800	298.00000
48.92000	268.00000
48.94200	266.00000
48.96400	259.00000
48.98600	262.00000
49.00800	264.00000
49.03000	255.00000
49.05200	277.00000
49.07400	283.00000
49.09600	275.00000
49.11800	288.00000
49.14000	268.00000
49.16200	263.00000
49.18400	259.00000
49.20600	283.00000
49.22800	256.00000
49.25000	268.00000
49.27200	276.00000
49.29400	292.00000
49.31600	292.00000
49.33800	253.00000
49.36000	250.00000
49.38200	254.00000
49.40400	279.00000
49.42600	243.00000
49.44800	296.00000
49.47000	280.00000
49.49200	262.00000
49.51400	302.00000
49.53600	252.00000
49.55800	298.00000
49.58000	308.00000
49.60200	324.00000
49.62400	317.00000
49.64600	296.00000
49.66800	301.00000
49.69000	308.00000
49.71200	331.00000
49.73400	348.00000
49.75600	330.00000
49.77800	333.00000
49.80000	375.00000
49.82200	384.00000
49.84400	411.00000
49.86600	417.00000
49.88800	447.00000
49.91000	478.00000
49.93200	538.00000
49.95400	553.00000
49.97600	621.00000
49.99800	627.00000
50.02000	603.00000
50.04200	640.00000
50.06400	606.00000
50.08600	536.00000
50.10800	446.00000
50.13000	472.00000
50.15200	429.00000
50.17400	431.00000
50.19600	394.00000
50.21800	371.00000
50.24000	349.00000
50.26200	334.00000
50.28400	340.00000
50.30600	330.00000
50.32800	318.00000
50.35000	331.00000
50.37200	322.00000
50.39400	352.00000
50.41600	346.00000
50.43800	346.00000
50.46000	323.00000
50.48200	349.00000
50.50400	323.00000
50.52600	334.00000
50.54800	328.00000
50.57000	352.00000
50.59200	324.00000
50.61400	353.00000
50.63600	418.00000
50.65800	501.00000
50.68000	670.00000
50.70200	897.00000
50.72400	1028.00000
50.74600	1112.00000
50.76800	1209.00000
50.79000	1269.00000
50.81200	1356.00000
50.83400	1344.00000
50.85600	1142.00000
50.87800	926.00000
50.90000	802.00000
50.92200	786.00000
50.94400	763.00000
50.96600	725.00000
50.98800	568.00000
51.01000	531.00000
51.03200	374.00000
51.05400	411.00000
51.07600	348.00000
51.09800	317.00000
51.12000	355.00000
51.14200	350.00000
51.16400	313.00000
51.18600	274.00000
51.20800	304.00000
51.23000	292.00000
51.25200	315.00000
51.27400	291.00000
51.29600	313.00000
51.31800	337.00000
51.34000	352.00000
51.36200	363.00000
51.38400	319.00000
51.40600	406.00000
51.42800	456.00000
51.45000	474.00000
51.47200	481.00000
51.49400	415.00000
51.51600	365.00000
51.53800	351.00000
51.56000	369.00000
51.58200	322.00000
51.60400	320.00000
51.62600	281.00000
51.64800	325.00000
51.67000	279.00000
51.69200	285.00000
51.71400	266.00000
51.73600	269.00000
51.75800	282.00000
51.78000	295.00000
51.80200	274.00000
51.82400	272.00000
51.84600	269.00000
51.86800	266.00000
51.89000	274.00000
51.91200	236.00000
51.93400	248.00000
51.95600	284.00000
51.97800	282.00000
52.00000	245.00000
52.02200	298.00000
52.04400	275.00000
52.06600	276.00000
52.08800	285.00000
52.11000	277.00000
52.13200	295.00000
52.15400	302.00000
52.17600	318.00000
52.19800	320.00000
52.22000	333.00000
52.24200	338.00000
52.26400	397.00000
52.28600	464.00000
52.30800	428.00000
52.33000	455.00000
52.35200	475.00000
52.37400	449.00000
52.39600	388.00000
52.41800	347.00000
52.44000	343.00000
52.46200	389.00000
52.48400	367.00000
52.50600	370.00000
52.52800	322.00000
52.55000	295.00000
52.57200	289.00000
52.59400	300.00000
52.61600	292.00000
52.63800	300.00000
52.66000	311.00000
52.68200	332.00000
52.70400	361.00000
52.72600	401.00000
52.74800	436.00000
52.77000	403.00000
52.79200	425.00000
52.81400	449.00000
52.83600	437.00000
52.85800	433.00000
52.88000	395.00000
52.90200	363.00000
52.92400	352.00000
52.94600	340.00000
52.96800	318.00000
52.99000	348.00000
53.01200	300.00000
53.03400	262.00000
53.05600	313.00000
53.07800	291.00000
53.10000	286.00000
53.12200	273.00000
53.14400	252.00000
53.16600	260.00000
53.18800	267.00000
53.21000	267.00000
53.23200	263.00000
53.25400	222.00000
53.27600	286.00000
53.29800	263.00000
53.32000	274.00000
53.34200	274.00000
53.36400	245.00000
53.38600	259.00000
53.40800	283.00000
53.43000	270.00000
53.45200	243.00000
53.47400	269.00000
53.49600	272.00000
53.51800	257.00000
53.54000	256.00000
53.56200	292.00000
53.58400	280.00000
53.60600	285.00000
53.62800	263.00000
53.65000	276.00000
53.67200	257.00000
53.69400	269.00000
53.71600	253.00000
53.73800	303.00000
53.76000	268.00000
53.78200	264.00000
53.80400	263.00000
53.82600	297.00000
53.84800	270.00000
53.87000	305.00000
53.89200	262.00000
53.91400	264.00000
53.93600	277.00000
53.95800	332.00000
53.98000	307.00000
54.00200	303.00000
54.02400	372.00000
54.04600	423.00000
54.06800	468.00000
54.09000	515.00000
54.11200	581.00000
54.13400	598.00000
54.15600	653.00000
54.17800	706.00000
54.20000	719.00000
54.22200	660.00000
54.24400	690.00000
54.26600	655.00000
54.28800	580.00000
54.31000	553.00000
54.33200	483.00000
54.35400	460.00000
54.37600	435.00000
54.39800	383.00000
54.42000	366.00000
54.44200	332.00000
54.46400	322.00000
54.48600	284.00000
54.50800	289.00000
54.53000	298.00000
54.55200	302.00000
54.57400	278.00000
54.59600	282.00000
54.61800	278.00000
54.64000	259.00000
54.66200	278.00000
54.68400	243.00000
54.70600	220.00000
54.72800	280.00000
54.75000	279.00000
54.77200	265.00000
54.79400	300.00000
54.81600	296.00000
54.83800	255.00000
54.86000	233.00000
54.88200	268.00000
54.90400	285.00000
54.92600	285.00000
54.94800	259.00000
54.97000	274.00000
54.99200	274.00000
55.01400	273.00000
55.03600	257.00000
55.05800	271.00000
55.08000	256.00000
55.10200	269.00000
55.12400	280.00000
55.14600	276.00000
55.16800	269.00000
55.19000	261.00000
55.21200	279.00000
55.23400	258.00000
55.25600	279.00000
55.27800	308.00000
55.30000	310.00000
55.32200	297.00000
55.34400	256.00000
55.36600	301.00000
55.38800	320.00000
55.41000	368.00000
55.43200	414.00000
55.45400	472.00000
55.47600	464.00000
55.49800	525.00000
55.52000	558.00000
55.54200	554.00000
55.56400	592.00000
55.58600	538.00000
55.60800	468.00000
55.63000	431.00000
55.65200	391.00000
55.67400	422.00000
55.69600	425.00000
55.71800	361.00000
55.74000	356.00000
55.76200	346.00000
55.78400	297.00000
55.80600	267.00000
55.82800	273.00000
55.85000	272.00000
55.87200	259.00000
55.89400	233.00000
55.91600	292.00000
55.93800	264.00000
55.96000	264.00000
55.98200	276.00000
56.00400	290.00000
56.02600	294.00000
56.04800	263.00000
56.07000	276.00000
56.09200	253.00000
56.11400	293.00000
56.13600	289.00000
56.15800	301.00000
56.18000	253.00000
56.20200	284.00000
56.22400	265.00000
56.24600	300.00000
56.26800	301.00000
56.29000	337.00000
56.31200	289.00000
56.33400	284.00000
56.35600	324.00000
56.37800	355.00000
56.40000	444.00000
56.42200	501.00000
56.44400	572.00000
56.46600	711.00000
56.48800	708.00000
56.51000	794.00000
56.53200	855.00000
56.55400	821.00000
56.57600	876.00000
56.59800	685.00000
56.62000	559.00000
56.64200	554.00000
56.66400	530.00000
56.68600	563.00000
56.70800	543.00000
56.73000	469.00000
56.75200	436.00000
56.77400	352.00000
56.79600	338.00000
56.81800	322.00000
56.84000	302.00000
56.86200	310.00000
56.88400	270.00000
56.90600	275.00000
56.92800	259.00000
56.95000	278.00000
56.97200	272.00000
56.99400	277.00000
57.01600	256.00000
57.03800	265.00000
57.06000	280.00000
57.08200	255.00000
57.10400	278.00000
57.12600	258.00000
57.14800	290.00000
57.17000	275.00000
57.19200	252.00000
57.21400	281.00000
57.23600	285.00000
57.25800	260.00000
57.28000	266.00000
57.30200	292.00000
57.32400	267.00000
57.34600	269.00000
57.36800	287.00000
57.39000	289.00000
57.41200	280.00000
57.43400	271.00000
57.45600	260.00000
57.47800	259.00000
57.50000	283.00000
57.52200	259.00000
57.54400	294.00000
57.56600	284.00000
57.58800	278.00000
57.61000	224.00000
57.63200	293.00000
57.65400	282.00000
57.67600	278.00000
57.69800	299.00000
57.72000	288.00000
57.74200	240.00000
57.76400	276.00000
57.78600	246.00000
57.80800	250.00000
57.83000	270.00000
57.85200	262.00000
57.87400	277.00000
57.89600	247.00000
57.91800	268.00000
57.94000	262.00000
57.96200	298.00000
57.98400	285.00000
58.00600	269.00000
58.02800	305.00000
58.05000	268.00000
58.07200	299.00000
58.09400	285.00000
58.11600	346.00000
58.13800	361.00000
58.16000	395.00000
58.18200	387.00000
58.20400	441.00000
58.22600	480.00000
58.24800	475.00000
58.27000	522.00000
58.29200	504.00000
58.31400	504.00000
58.33600	471.00000
58.35800	456.00000
58.38000	443.00000
58.40200	440.00000
58.42400	443.00000
58.44600	474.00000
58.46800	450.00000
58.49000	362.00000
58.51200	373.00000
58.53400	363.00000
58.55600	329.00000
58.57800	352.00000
58.60000	288.00000
58.62200	313.00000
58.64400	288.00000
58.66600	280.00000
58.68800	305.00000
58.71000	279.00000
58.73200	290.00000
58.75400	256.00000
58.77600	268.00000
58.79800	285.00000
58.82000	266.00000
58.84200	236.00000
58.86400	260.00000
58.88600	286.00000
58.90800	248.00000
58.93000	274.00000
58.95200	273.00000
58.97400	278.00000
58.99600	295.00000
59.01800	285.00000
59.04000	252.00000
59.06200	257.00000
59.08400	290.00000
59.10600	295.00000
59.12800	299.00000
59.15000	313.00000
59.17200	337.00000
59.19400	392.00000
59.21600	430.00000
59.23800	447.00000
59.26000	477.00000
59.28200	523.00000
59.30400	508.00000
59.32600	539.00000
59.34800	458.00000
59.37000	474.00000
59.39200	365.00000
59.41400	395.00000
59.43600	395.00000
59.45800	366.00000
59.48000	356.00000
59.50200	362.00000
59.52400	330.00000
59.54600	329.00000
59.56800	289.00000
59.59000	290.00000
59.61200	284.00000
59.63400	280.00000
59.65600	296.00000
59.67800	298.00000
59.70000	329.00000
59.72200	251.00000
59.74400	281.00000
59.76600	261.00000
59.78800	284.00000
59.81000	276.00000
59.83200	278.00000
59.85400	276.00000
59.87600	260.00000
59.89800	274.00000
59.92000	290.00000
59.94200	270.00000
59.96400	259.00000
59.98600	257.00000
60.00800	250.00000
60.03000	279.00000
60.05200	245.00000
60.07400	279.00000
60.09600	259.00000
60.11800	297.00000
60.14000	255.00000
60.16200	265.00000
60.18400	276.00000
60.20600	290.00000
60.22800	286.00000
60.25000	285.00000
60.27200	277.00000
60.29400	285.00000
60.31600	280.00000
60.33800	274.00000
60.36000	257.00000
60.38200	228.00000
60.40400	293.00000
60.42600	262.00000
60.44800	283.00000
60.47000	301.00000
60.49200	359.00000
60.51400	382.00000
60.53600	411.00000
60.55800	438.00000
60.58000	523.00000
60.60200	501.00000
60.62400	579.00000
60.64600	597.00000
60.66800	587.00000
60.69000	632.00000
60.71200	616.00000
60.73400	501.00000
60.75600	461.00000
60.77800	398.00000
60.80000	425.00000
60.82200	408.00000
60.84400	427.00000
60.86600	387.00000
60.88800	396.00000
60.91000	331.00000
60.93200	318.00000
60.95400	291.00000
60.97600	302.00000
60.99800	276.00000
61.02000	289.00000
61.04200	257.00000
61.06400	283.00000
61.08600	265.00000
61.10800	263.00000
61.13000	305.00000
61.15200	288.00000
61.17400	293.00000
61.19600	302.00000
61.21800	276.00000
61.24000	280.00000
61.26200	285.00000
61.28400	312.00000
61.30600	281.00000
61.32800	272.00000
61.35000	320.00000
61.37200	314.00000
61.39400	289.00000
61.41600	313.00000
61.43800	315.00000
61.46000	333.00000
61.48200	365.00000
61.50400	360.00000
61.52600	346.00000
61.54800	324.00000
61.57000	304.00000
61.59200	301.00000
61.61400	377.00000
61.63600	364.00000
61.65800	433.00000
61.68000	459.00000
61.70200	570.00000
61.72400	653.00000
61.74600	668.00000
61.76800	783.00000
61.79000	788.00000
61.81200	772.00000
61.83400	835.00000
61.85600	787.00000
61.87800	678.00000
61.90000	599.00000
61.92200	598.00000
61.94400	533.00000
61.96600	481.00000
61.98800	510.00000
62.01000	397.00000
62.03200	444.00000
62.05400	401.00000
62.07600	346.00000
62.09800	326.00000
62.12000	289.00000
62.14200	270.00000
62.16400	299.00000
62.18600	269.00000
62.20800	289.00000
62.23000	277.00000
62.25200	307.00000
62.27400	304.00000
62.29600	302.00000
62.31800	300.00000
62.34000	269.00000
62.36200	292.00000
62.38400	296.00000
62.40600	314.00000
62.42800	277.00000
62.45000	275.00000
62.47200	280.00000
62.49400	306.00000
62.51600	286.00000
62.53800	293.00000
62.56000	259.00000
62.58200	254.00000
62.60400	252.00000
62.62600	280.00000
62.64800	272.00000
62.67000	256.00000
62.69200	279.00000
62.71400	254.00000
62.73600	258.00000
62.75800	285.00000
62.78000	275.00000
62.80200	261.00000
62.82400	280.00000
62.84600	247.00000
62.86800	287.00000
62.89000	287.00000
62.91200	291.00000
62.93400	326.00000
62.95600	298.00000
62.97800	323.00000
63.00000	349.00000
63.02200	304.00000
63.04400	325.00000
63.06600	268.00000
63.08800	317.00000
63.11000	316.00000
63.13200	305.00000
63.15400	305.00000
63.17600	284.00000
63.19800	282.00000
63.22000	334.00000
63.24200	336.00000
63.26400	344.00000
63.28600	360.00000
63.30800	322.00000
63.33000	331.00000
63.35200	400.00000
63.37400	368.00000
63.39600	379.00000
63.41800	356.00000
63.44000	391.00000
63.46200	413.00000
63.48400	392.00000
63.50600	388.00000
63.52800	436.00000
63.55000	377.00000
63.57200	353.00000
63.59400	319.00000
63.61600	335.00000
63.63800	302.00000
63.66000	323.00000
63.68200	313.00000
63.70400	305.00000
63.72600	291.00000
63.74800	292.00000
63.77000	294.00000
63.79200	258.00000
63.81400	270.00000
63.83600	277.00000
63.85800	265.00000
63.88000	247.00000
63.90200	240.00000
63.92400	266.00000
63.94600	241.00000
63.96800	280.00000
63.99000	249.00000
64.01200	253.00000
64.03400	282.00000
64.05600	238.00000
64.07800	271.00000
64.10000	261.00000
64.12200	241.00000
64.14400	232.00000
64.16600	249.00000
64.18800	244.00000
64.21000	247.00000
64.23200	255.00000
64.25400	285.00000
64.27600	291.00000
64.29800	236.00000
64.32000	244.00000
64.34200	242.00000
64.36400	273.00000
64.38600	235.00000
64.40800	255.00000
64.43000	263.00000
64.45200	245.00000
64.47400	261.00000
64.49600	242.00000
64.51800	257.00000
64.54000	269.00000
64.56200	265.00000
64.58400	250.00000
64.60600	248.00000
64.62800	239.00000
64.65000	263.00000
64.67200	274.00000
64.69400	230.00000
64.71600	293.00000
64.73800	268.00000
64.76000	233.00000
64.78200	236.00000
64.80400	275.00000
64.82600	251.00000
64.84800	223.00000
64.87000	248.00000
64.89200	248.00000
64.91400	211.00000
64.93600	246.00000
64.95800	273.00000
64.98000	274.00000
65.00200	273.00000
65.02400	290.00000
65.04600	296.00000
65.06800	283.00000
65.09000	304.00000
65.11200	339.00000
65.13400	356.00000
65.15600	374.00000
65.17800	362.00000
65.20000	408.00000
65.22200	380.00000
65.24400	397.00000
65.26600	378.00000
65.28800	421.00000
65.31000	407.00000
65.33200	350.00000
65.35400	368.00000
65.37600	335.00000
65.39800	290.00000
65.42000	306.00000
65.44200	263.00000
65.46400	293.00000
65.48600	303.00000
65.50800	284.00000
65.53000	271.00000
65.55200	283.00000
65.57400	256.00000
65.59600	244.00000
65.61800	272.00000
65.64000	248.00000
65.66200	275.00000
65.68400	223.00000
65.70600	260.00000
65.72800	246.00000
65.75000	267.00000
65.77200	238.00000
65.79400	255.00000
65.81600	274.00000
65.83800	256.00000
65.86000	254.00000
65.88200	254.00000
65.90400	261.00000
65.92600	258.00000
65.94800	264.00000
65.97000	267.00000
65.99200	284.00000
66.01400	285.00000
66.03600	315.00000
66.05800	323.00000
66.08000	318.00000
66.10200	328.00000
66.12400	369.00000
66.14600	337.00000
66.16800	354.00000
66.19000	310.00000
66.21200	275.00000
66.23400	277.00000
66.25600	324.00000
66.27800	300.00000
66.30000	314.00000
66.32200	301.00000
66.34400	323.00000
66.36600	305.00000
66.38800	292.00000
66.41000	303.00000
66.43200	281.00000
66.45400	284.00000
66.47600	261.00000
66.49800	234.00000
66.52000	251.00000
66.54200	257.00000
66.56400	268.00000
66.58600	270.00000
66.60800	250.00000
66.63000	253.00000
66.65200	285.00000
66.67400	263.00000
66.69600	252.00000
66.71800	291.00000
66.74000	266.00000
66.76200	306.00000
66.78400	309.00000
66.80600	352.00000
66.82800	388.00000
66.85000	461.00000
66.87200	463.00000
66.89400	479.00000
66.91600	513.00000
66.93800	497.00000
66.96000	512.00000
66.98200	405.00000
67.00400	401.00000
67.02600	365.00000
67.04800	377.00000
67.07000	355.00000
67.09200	327.00000
67.11400	372.00000
67.13600	341.00000
67.15800	313.00000
67.18000	348.00000
67.20200	295.00000
67.22400	319.00000
67.24600	259.00000
67.26800	287.00000
67.29000	307.00000
67.31200	319.00000
67.33400	357.00000
67.35600	362.00000
67.37800	346.00000
67.40000	341.00000
67.42200	330.00000
67.44400	320.00000
67.46600	317.00000
67.48800	326.00000
67.51000	310.00000
67.53200	347.00000
67.55400	324.00000
67.57600	326.00000
67.59800	330.00000
67.62000	296.00000
67.64200	294.00000
67.66400	299.00000
67.68600	245.00000
67.70800	262.00000
67.73000	277.00000
67.75200	233.00000
67.77400	281.00000
67.79600	266.00000
67.81800	211.00000
67.84000	235.00000
67.86200	242.00000
67.88400	266.00000
67.90600	232.00000
67.92800	246.00000
67.95000	256.00000
67.97200	250.00000
67.99400	216.00000
68.01600	238.00000
68.03800	245.00000
68.06000	241.00000
68.08200	230.00000
68.10400	248.00000
68.12600	244.00000
68.14800	205.00000
68.17000	246.00000
68.19200	215.00000
68.21400	249.00000
68.23600	247.00000
68.25800	259.00000
68.28000	254.00000
68.30200	272.00000
68.32400	243.00000
68.34600	237.00000
68.36800	212.00000
68.39000	231.00000
68.41200	253.00000
68.43400	230.00000
68.45600	206.00000
68.47800	231.00000
68.50000	285.00000
68.52200	243.00000
68.54400	244.00000
68.56600	238.00000
68.58800	249.00000
68.61000	248.00000
68.63200	248.00000
68.65400	237.00000
68.67600	242.00000
68.69800	232.00000
68.72000	244.00000
68.74200	248.00000
68.76400	252.00000
68.78600	234.00000
68.80800	223.00000
68.83000	233.00000
68.85200	253.00000
68.87400	209.00000
68.89600	232.00000
68.91800	229.00000
68.94000	227.00000
68.96200	210.00000
68.98400	241.00000
69.00600	226.00000
69.02800	241.00000
69.05000	240.00000
69.07200	245.00000
69.09400	220.00000
69.11600	223.00000
69.13800	223.00000
69.16000	296.00000
69.18200	255.00000
69.20400	255.00000
69.22600	234.00000
69.24800	288.00000
69.27000	279.00000
69.29200	291.00000
69.31400	288.00000
69.33600	298.00000
69.35800	318.00000
69.38000	318.00000
69.40200	259.00000
69.42400	262.00000
69.44600	283.00000
69.46800	242.00000
69.49000	282.00000
69.51200	267.00000
69.53400	275.00000
69.55600	289.00000
69.57800	290.00000
69.60000	267.00000
69.62200	282.00000
69.64400	288.00000
69.66600	298.00000
69.68800	288.00000
69.71000	273.00000
69.73200	284.00000
69.75400	314.00000
69.77600	330.00000
69.79800	322.00000
69.82000	304.00000
69.84200	331.00000
69.86400	279.00000
69.88600	280.00000
69.90800	257.00000
69.93000	250.00000
69.95200	308.00000
69.97400	305.00000
69.99600	302.00000
70.01800	298.00000
70.04000	259.00000
70.06200	303.00000
70.08400	294.00000
70.10600	337.00000
70.12800	305.00000
70.15000	279.00000
70.17200	291.00000
70.19400	272.00000
70.21600	291.00000
70.23800	243.00000
70.26000	260.00000
70.28200	281.00000
70.30400	271.00000
70.32600	276.00000
70.34800	287.00000
70.37000	316.00000
70.39200	317.00000
70.41400	334.00000
70.43600	313.00000
70.45800	335.00000
70.48000	339.00000
70.50200	316.00000
70.52400	279.00000
70.54600	281.00000
70.56800	274.00000
70.59000	324.00000
70.61200	328.00000
70.63400	311.00000
70.65600	339.00000
70.67800	332.00000
70.70000	322.00000
70.72200	330.00000
70.74400	347.00000
70.76600	322.00000
70.78800	317.00000
70.81000	283.00000
70.83200	287.00000
70.85400	257.00000
70.87600	256.00000
70.89800	235.00000
70.92000	284.00000
70.94200	257.00000
70.96400	259.00000
70.98600	250.00000
71.00800	233.00000
71.03000	257.00000
71.05200	214.00000
71.07400	217.00000
71.09600	242.00000
71.11800	229.00000
71.14000	249.00000
71.16200	235.00000
71.18400	231.00000
71.20600	247.00000
71.22800	271.00000
71.25000	212.00000
71.27200	215.00000
71.29400	263.00000
71.31600	225.00000
71.33800	260.00000
71.36000	253.00000
71.38200	240.00000
71.40400	216.00000
71.42600	240.00000
71.44800	257.00000
71.47000	244.00000
71.49200	247.00000
71.51400	230.00000
71.53600	268.00000
71.55800	253.00000
71.58000	245.00000
71.60200	265.00000
71.62400	271.00000
71.64600	310.00000
71.66800	338.00000
71.69000	323.00000
71.71200	318.00000
71.73400	325.00000
71.75600	342.00000
71.77800	362.00000
71.80000	302.00000
71.82200	318.00000
71.84400	262.00000
71.86600	257.00000
71.88800	255.00000
71.91000	255.00000
71.93200	242.00000
71.95400	261.00000
71.97600	288.00000
71.99800	250.00000
72.02000	240.00000
72.04200	243.00000
72.06400	234.00000
72.08600	227.00000
72.10800	255.00000
72.13000	259.00000
72.15200	254.00000
72.17400	234.00000
72.19600	252.00000
72.21800	229.00000
72.24000	243.00000
72.26200	232.00000
72.28400	245.00000
72.30600	231.00000
72.32800	232.00000
72.35000	203.00000
72.37200	216.00000
72.39400	223.00000
72.41600	243.00000
72.43800	221.00000
72.46000	247.00000
72.48200	255.00000
72.50400	216.00000
72.52600	230.00000
72.54800	229.00000
72.57000	205.00000
72.59200	233.00000
72.61400	251.00000
72.63600	214.00000
72.65800	225.00000
72.68000	231.00000
72.70200	219.00000
72.72400	202.00000
72.74600	229.00000
72.76800	236.00000
72.79000	244.00000
72.81200	217.00000
72.83400	240.00000
72.85600	218.00000
72.87800	228.00000
72.90000	232.00000
72.92200	238.00000
72.94400	247.00000
72.96600	233.00000
72.98800	209.00000
73.01000	218.00000
73.03200	255.00000
73.05400	212.00000
73.07600	219.00000
73.09800	260.00000
73.12000	265.00000
73.14200	265.00000
73.16400	303.00000
73.18600	321.00000
73.20800	335.00000
73.23000	342.00000
73.25200	383.00000
73.27400	389.00000
73.29600	407.00000
73.31800	394.00000
73.34000	386.00000
73.36200	324.00000
73.38400	285.00000
73.40600	310.00000
73.42800	326.00000
73.45000	295.00000
73.47200	325.00000
73.49400	345.00000
73.51600	308.00000
73.53800	300.00000
73.56000	282.00000
73.58200	282.00000
73.60400	262.00000
73.62600	294.00000
73.64800	241.00000
73.67000	223.00000
73.69200	241.00000
73.71400	241.00000
73.73600	258.00000
73.75800	207.00000
73.78000	240.00000
73.80200	231.00000
73.82400	211.00000
73.84600	216.00000
73.86800	218.00000
73.89000	243.00000
73.91200	238.00000
73.93400	226.00000
73.95600	246.00000
73.97800	262.00000
74.00000	227.00000
74.02200	229.00000
74.04400	238.00000
74.06600	240.00000
74.08800	242.00000
74.11000	235.00000
74.13200	245.00000
74.15400	241.00000
74.17600	254.00000
74.19800	234.00000
74.22000	231.00000
74.24200	246.00000
74.26400	274.00000
74.28600	251.00000
74.30800	240.00000
74.33000	279.00000
74.35200	297.00000
74.37400	340.00000
74.39600	299.00000
74.41800	336.00000
74.44000	320.00000
74.46200	272.00000
74.48400	259.00000
74.50600	258.00000
74.52800	269.00000
74.55000	249.00000
74.57200	257.00000
74.59400	286.00000
74.61600	304.00000
74.63800	271.00000
74.66000	269.00000
74.68200	254.00000
74.70400	267.00000
74.72600	265.00000
74.74800	257.00000
74.77000	299.00000
74.79200	300.00000
74.81400	270.00000
74.83600	281.00000
74.85800	267.00000
74.88000	228.00000
74.90200	225.00000
74.92400	244.00000
74.94600	243.00000
74.96800	250.00000
74.99000	242.00000
75.01200	253.00000
75.03400	259.00000
75.05600	254.00000
75.07800	275.00000
75.10000	222.00000
75.12200	244.00000
75.14400	233.00000
75.16600	235.00000
75.18800	233.00000
75.21000	264.00000
75.23200	292.00000
75.25400	287.00000
75.27600	318.00000
75.29800	333.00000
75.32000	335.00000
75.34200	367.00000
75.36400	371.00000
75.38600	373.00000
75.40800	360.00000
75.43000	301.00000
75.45200	312.00000
75.47400	289.00000
75.49600	294.00000
75.51800	329.00000
75.54000	311.00000
75.56200	327.00000
75.58400	343.00000
75.60600	384.00000
75.62800	383.00000
75.65000	381.00000
75.67200	335.00000
75.69400	273.00000
75.71600	296.00000
75.73800	266.00000
75.76000	246.00000
75.78200	250.00000
75.80400	272.00000
75.82600	241.00000
75.84800	287.00000
75.87000	251.00000
75.89200	269.00000
75.91400	233.00000
75.93600	226.00000
75.95800	269.00000
75.98000	234.00000
76.00200	240.00000
76.02400	241.00000
76.04600	241.00000
76.06800	251.00000
76.09000	216.00000
76.11200	249.00000
76.13400	236.00000
76.15600	234.00000
76.17800	197.00000
76.20000	237.00000
76.22200	218.00000
76.24400	220.00000
76.26600	229.00000
76.28800	207.00000
76.31000	232.00000
76.33200	265.00000
76.35400	226.00000
76.37600	246.00000
76.39800	200.00000
76.42000	232.00000
76.44200	238.00000
76.46400	232.00000
76.48600	243.00000
76.50800	277.00000
76.53000	244.00000
76.55200	264.00000
76.57400	236.00000
76.59600	236.00000
76.61800	240.00000
76.64000	231.00000
76.66200	224.00000
76.68400	241.00000
76.70600	247.00000
76.72800	245.00000
76.75000	242.00000
76.77200	252.00000
76.79400	289.00000
76.81600	285.00000
76.83800	307.00000
76.86000	327.00000
76.88200	294.00000
76.90400	331.00000
76.92600	309.00000
76.94800	350.00000
76.97000	296.00000
76.99200	273.00000
77.01400	280.00000
77.03600	258.00000
77.05800	304.00000
77.08000	265.00000
77.10200	253.00000
77.12400	235.00000
77.14600	264.00000
77.16800	241.00000
77.19000	267.00000
77.21200	268.00000
77.23400	257.00000
77.25600	216.00000
77.27800	210.00000
77.30000	211.00000
77.32200	218.00000
77.34400	236.00000
77.36600	188.00000
77.38800	234.00000
77.41000	251.00000
77.43200	213.00000
77.45400	223.00000
77.47600	267.00000
77.49800	211.00000
77.52000	234.00000
77.54200	228.00000
77.56400	260.00000
77.58600	254.00000
77.60800	231.00000
77.63000	210.00000
77.65200	231.00000
77.67400	221.00000
77.69600	213.00000
77.71800	269.00000
77.74000	226.00000
77.76200	215.00000
77.78400	234.00000
77.80600	217.00000
77.82800	246.00000
77.85000	263.00000
77.87200	201.00000
77.89400	248.00000
77.91600	231.00000
77.93800	200.00000
77.96000	189.00000
77.98200	213.00000
78.00400	208.00000
78.02600	211.00000
78.04800	231.00000
78.07000	213.00000
78.09200	194.00000
78.11400	225.00000
78.13600	231.00000
78.15800	263.00000
78.18000	238.00000
78.20200	244.00000
78.22400	267.00000
78.24600	240.00000
78.26800	256.00000
78.29000	266.00000
78.31200	293.00000
78.33400	323.00000
78.35600	282.00000
78.37800	281.00000
78.40000	260.00000
78.42200	250.00000
78.44400	245.00000
78.46600	259.00000
78.48800	256.00000
78.51000	270.00000
78.53200	244.00000
78.55400	277.00000
78.57600	253.00000
78.59800	255.00000
78.62000	224.00000
78.64200	236.00000
78.66400	248.00000
78.68600	228.00000
78.70800	219.00000
78.73000	206.00000
78.75200	220.00000
78.77400	205.00000
78.79600	246.00000
78.81800	206.00000
78.84000	223.00000
78.86200	208.00000
78.88400	217.00000
78.90600	212.00000
78.92800	250.00000
78.95000	276.00000
78.97200	262.00000
78.99400	267.00000
79.01600	267.00000
79.03800	298.00000
79.06000	312.00000
79.08200	298.00000
79.10400	327.00000
79.12600	301.00000
79.14800	270.00000
79.17000	253.00000
79.19200	256.00000
79.21400	236.00000
79.23600	244.00000
79.25800	263.00000
79.28000	268.00000
79.30200	281.00000
79.32400	256.00000
79.34600	343.00000
79.36800	250.00000
79.39000	252.00000
79.41200	247.00000
79.43400	295.00000
79.45600	249.00000
79.47800	249.00000
79.50000	294.00000
79.52200	237.00000
79.54400	223.00000
79.56600	246.00000
79.58800	260.00000
79.61000	245.00000
79.63200	214.00000
79.65400	233.00000
79.67600	248.00000
79.69800	232.00000
79.72000	221.00000
79.74200	213.00000
79.76400	207.00000
79.78600	205.00000
79.80800	226.00000
79.83000	236.00000
79.85200	187.00000
79.87400	206.00000
79.89600	220.00000
79.91800	217.00000
79.94000	235.00000
79.96200	221.00000
79.98400	220.00000
80.00600	236.00000
80.02800	203.00000
80.05000	199.00000
80.07200	227.00000
80.09400	217.00000
80.11600	189.00000
80.13800	214.00000
80.16000	222.00000
80.18200	206.00000
80.20400	233.00000
80.22600	221.00000
80.24800	215.00000
80.27000	205.00000
80.29200	221.00000
80.31400	230.00000
80.33600	209.00000
80.35800	217.00000
80.38000	190.00000
80.40200	217.00000
80.42400	215.00000
80.44600	198.00000
80.46800	242.00000
80.49000	205.00000
80.51200	223.00000
80.53400	208.00000
80.55600	218.00000
80.57800	211.00000
80.60000	196.00000
80.62200	193.00000
80.64400	215.00000
80.66600	214.00000
80.68800	247.00000
80.71000	214.00000
80.73200	225.00000
80.75400	218.00000
80.77600	218.00000
80.79800	235.00000
80.82000	208.00000
80.84200	229.00000
80.86400	223.00000
80.88600	236.00000
80.90800	241.00000
80.93000	270.00000
80.95200	247.00000
80.97400	222.00000
80.99600	264.00000
81.01800	269.00000
81.04000	273.00000
81.06200	317.00000
81.08400	312.00000
81.10600	331.00000
81.12800	331.00000
81.15000	313.00000
81.17200	306.00000
81.19400	308.00000
81.21600	305.00000
81.23800	308.00000
81.26000	288.00000
81.28200	271.00000
81.30400	280.00000
81.32600	300.00000
81.34800	246.00000
81.37000	288.00000
81.39200	247.00000
81.41400	244.00000
81.43600	284.00000
81.45800	249.00000
81.48000	235.00000
81.50200	253.00000
81.52400	255.00000
81.54600	206.00000
81.56800	231.00000
81.59000	234.00000
81.61200	223.00000
81.63400	190.00000
81.65600	212.00000
81.67800	222.00000
81.70000	245.00000
81.72200	225.00000
81.74400	226.00000
81.76600	212.00000
81.78800	242.00000
81.81000	268.00000
81.83200	234.00000
81.85400	216.00000
81.87600	269.00000
81.89800	296.00000
81.92000	241.00000
81.94200	250.00000
81.96400	211.00000
81.98600	241.00000
82.00800	230.00000
82.03000	230.00000
82.05200	243.00000
82.07400	249.00000
82.09600	263.00000
82.11800	253.00000
82.14000	252.00000
82.16200	277.00000
82.18400	275.00000
82.20600	221.00000
82.22800	236.00000
82.25000	231.00000
82.27200	233.00000
82.29400	250.00000
82.31600	221.00000
82.33800	235.00000
82.36000	216.00000
82.38200	234.00000
82.40400	227.00000
82.42600	220.00000
82.44800	235.00000
82.47000	217.00000
82.49200	219.00000
82.51400	204.00000
82.53600	215.00000
82.55800	226.00000
82.58000	208.00000
82.60200	225.00000
82.62400	209.00000
82.64600	212.00000
82.66800	197.00000
82.69000	213.00000
82.71200	211.00000
82.73400	210.00000
82.75600	208.00000
82.77800	207.00000
82.80000	232.00000
82.82200	214.00000
82.84400	220.00000
82.86600	232.00000
82.88800	206.00000
82.91000	194.00000
82.93200	216.00000
82.95400	225.00000
82.97600	220.00000
82.99800	248.00000
83.02000	225.00000
83.04200	207.00000
83.06400	231.00000
83.08600	232.00000
83.10800	214.00000
83.13000	224.00000
83.15200	216.00000
83.17400	215.00000
83.19600	232.00000
83.21800	216.00000
83.24000	225.00000
83.26200	214.00000
83.28400	266.00000
83.30600	253.00000
83.32800	276.00000
83.35000	272.00000
83.37200	305.00000
83.39400	310.00000
83.41600	342.00000
83.43800	311.00000
83.46000	295.00000
83.48200	292.00000
83.50400	248.00000
83.52600	257.00000
83.54800	251.00000
83.57000	235.00000
83.59200	253.00000
83.61400	252.00000
83.63600	240.00000
83.65800	256.00000
83.68000	277.00000
83.70200	264.00000
83.72400	252.00000
83.74600	261.00000
83.76800	289.00000
83.79000	251.00000
83.81200	236.00000
83.83400	236.00000
83.85600	273.00000
83.87800	266.00000
83.90000	302.00000
83.92200	292.00000
83.94400	302.00000
83.96600	325.00000
83.98800	354.00000
84.01000	383.00000
84.03200	389.00000
84.05400	330.00000
84.07600	293.00000
84.09800	280.00000
84.12000	271.00000
84.14200	257.00000
84.16400	258.00000
84.18600	237.00000
84.20800	270.00000
84.23000	255.00000
84.25200	260.00000
84.27400	250.00000
84.29600	272.00000
84.31800	252.00000
84.34000	254.00000
84.36200	223.00000
84.38400	219.00000
84.40600	208.00000
84.42800	230.00000
84.45000	232.00000
84.47200	236.00000
84.49400	226.00000
84.51600	232.00000
84.53800	254.00000
84.56000	248.00000
84.58200	192.00000
84.60400	209.00000
84.62600	237.00000
84.64800	228.00000
84.67000	186.00000
84.69200	248.00000
84.71400	201.00000
84.73600	216.00000
84.75800	235.00000
84.78000	208.00000
84.80200	239.00000
84.82400	237.00000
84.84600	214.00000
84.86800	210.00000
84.89000	213.00000
84.91200	183.00000
84.93400	246.00000
84.95600	230.00000
84.97800	202.00000
85.00000	200.00000
85.02200	201.00000
85.04400	200.00000
85.06600	218.00000
85.08800	194.00000
85.11000	210.00000
85.13200	195.00000
85.15400	213.00000
85.17600	195.00000
85.19800	235.00000
85.22000	208.00000
85.24200	218.00000
85.26400	219.00000
85.28600	212.00000
85.30800	229.00000
85.33000	231.00000
85.35200	228.00000
85.37400	253.00000
85.39600	219.00000
85.41800	228.00000
85.44000	228.00000
85.46200	272.00000
85.48400	235.00000
85.50600	220.00000
85.52800	246.00000
85.55000	226.00000
85.57200	208.00000
85.59400	229.00000
85.61600	229.00000
85.63800	242.00000
85.66000	241.00000
85.68200	271.00000
85.70400	223.00000
85.72600	264.00000
85.74800	242.00000
85.77000	208.00000
85.79200	236.00000
85.81400	224.00000
85.83600	177.00000
85.85800	199.00000
85.88000	239.00000
85.90200	200.00000
85.92400	202.00000
85.94600	213.00000
85.96800	236.00000
85.99000	221.00000
86.01200	256.00000
86.03400	211.00000
86.05600	204.00000
86.07800	235.00000
86.10000	240.00000
86.12200	218.00000
86.14400	259.00000
86.16600	270.00000
86.18800	268.00000
86.21000	259.00000
86.23200	226.00000
86.25400	226.00000
86.27600	230.00000
86.29800	215.00000
86.32000	228.00000
86.34200	214.00000
86.36400	223.00000
86.38600	212.00000
86.40800	215.00000
86.43000	215.00000
86.45200	227.00000
86.47400	251.00000
86.49600	237.00000
86.51800	222.00000
86.54000	227.00000
86.56200	206.00000
86.58400	214.00000
86.60600	203.00000
86.62800	213.00000
86.65000	206.00000
86.67200	197.00000
86.69400	190.00000
86.71600	229.00000
86.73800	239.00000
86.76000	227.00000
86.78200	228.00000
86.80400	252.00000
86.82600	224.00000
86.84800	235.00000
86.87000	217.00000
86.89200	233.00000
86.91400	211.00000
86.93600	209.00000
86.95800	220.00000
86.98000	221.00000
87.00200	239.00000
87.02400	217.00000
87.04600	240.00000
87.06800	231.00000
87.09000	231.00000
87.11200	248.00000
87.13400	224.00000
87.15600	252.00000
87.17800	265.00000
87.20000	245.00000
87.22200	257.00000
87.24400	233.00000
87.26600	248.00000
87.28800	231.00000
87.31000	223.00000
87.33200	223.00000
87.35400	215.00000
87.37600	214.00000
87.39800	229.00000
87.42000	234.00000
87.44200	212.00000
87.46400	234.00000
87.48600	227.00000
87.50800	208.00000
87.53000	219.00000
87.55200	225.00000
87.57400	205.00000
87.59600	217.00000
87.61800	200.00000
87.64000	205.00000
87.66200	209.00000
87.68400	239.00000
87.70600	241.00000
87.72800	264.00000
87.75000	244.00000
87.77200	282.00000
87.79400	278.00000
87.81600	272.00000
87.83800	259.00000
87.86000	260.00000
87.88200	256.00000
87.90400	239.00000
87.92600	239.00000
87.94800	219.00000
87.97000	227.00000
87.99200	234.00000
88.01400	230.00000
88.03600	243.00000
88.05800	246.00000
88.08000	241.00000
88.10200	224.00000
88.12400	198.00000
88.14600	237.00000
88.16800	206.00000
88.19000	242.00000
88.21200	227.00000
88.23400	191.00000
88.25600	213.00000
88.27800	199.00000
88.30000	224.00000
88.32200	217.00000
88.34400	219.00000
88.36600	230.00000
88.38800	239.00000
88.41000	229.00000
88.43200	231.00000
88.45400	201.00000
88.47600	252.00000
88.49800	225.00000
88.52000	200.00000
88.54200	218.00000
88.56400	210.00000
88.58600	219.00000
88.60800	195.00000
88.63000	215.00000
88.65200	200.00000
88.67400	212.00000
88.69600	208.00000
88.71800	210.00000
88.74000	210.00000
88.76200	195.00000
88.78400	234.00000
88.80600	210.00000
88.82800	221.00000
88.85000	204.00000
88.87200	216.00000
88.89400	222.00000
88.91600	222.00000
88.93800	228.00000
88.96000	198.00000
88.98200	231.00000
89.00400	223.00000
89.02600	258.00000
89.04800	224.00000
89.07000	195.00000
89.09200	234.00000
89.11400	232.00000
89.13600	264.00000
89.15800	239.00000
89.18000	247.00000
89.20200	226.00000
89.22400	248.00000
89.24600	214.00000
89.26800	216.00000
89.29000	240.00000
89.31200	255.00000
89.33400	256.00000
89.35600	259.00000
89.37800	264.00000
89.40000	274.00000
89.42200	223.00000
89.44400	243.00000
89.46600	261.00000
89.48800	250.00000
89.51000	248.00000
89.53200	251.00000
89.55400	232.00000
89.57600	230.00000
89.59800	279.00000
89.62000	277.00000
89.64200	283.00000
89.66400	260.00000
89.68600	265.00000
89.70800	314.00000
89.73000	298.00000
89.75200	301.00000
89.77400	284.00000
89.79600	281.00000
89.81800	237.00000
89.84000	234.00000
89.86200	238.00000
89.88400	222.00000
89.90600	220.00000
89.92800	260.00000
89.95000	241.00000
89.97200	254.00000
89.99400	268.00000
