7.00000	106.36000
7.01000	112.69000
7.02000	124.99000
7.03000	127.27000
7.04000	119.53000
7.05000	117.76000
7.06000	127.98000
7.07000	116.17000
7.08000	106.34000
7.09000	108.48000
7.10000	101.61000
7.11000	105.72000
7.12000	118.81000
7.13000	116.88000
7.14000	117.93000
7.15000	116.97000
7.16000	111.98000
7.17000	119.98000
7.18000	121.97000
7.19000	118.93000
7.20000	121.88000
7.21000	113.82000
7.22000	110.74000
7.23000	119.64000
7.24000	129.53000
7.25000	124.41000
7.26000	123.27000
7.27000	126.12000
7.28000	128.96000
7.29000	137.78000
7.30000	126.59000
7.31000	109.39000
7.32000	100.18000
7.33000	116.96000
7.34000	124.72000
7.35000	126.48000
7.36000	117.23000
7.37000	106.96000
7.38000	106.69000
7.39000	119.41000
7.40000	126.11000
7.41000	113.81000
7.42000	108.50000
7.43000	100.19000
7.44000	96.86000
7.45000	100.53000
7.46000	98.19000
7.47000	114.84000
7.48000	128.49000
7.49000	122.12000
7.50000	117.76000
7.51000	130.38000
7.52000	130.01000
7.53000	110.62000
7.54000	97.23000
7.55000	96.83000
7.56000	109.43000
7.57000	122.03000
7.58000	117.62000
7.59000	106.21000
7.60000	110.79000
7.61000	103.36000
7.62000	96.94000
7.63000	108.51000
7.64000	113.08000
7.65000	107.64000
7.66000	107.20000
7.67000	104.76000
7.68000	114.31000
7.69000	121.87000
7.70000	121.42000
7.71000	115.96000
7.72000	110.51000
7.73000	98.05000
7.74000	106.60000
7.75000	126.14000
7.76000	125.67000
7.77000	119.21000
7.78000	114.75000
7.79000	113.28000
7.80000	106.82000
7.81000	108.35000
7.82000	120.88000
7.83000	108.41000
7.84000	88.94000
7.85000	97.47000
7.86000	119.00000
7.87000	124.53000
7.88000	112.05000
7.89000	108.58000
7.90000	109.11000
7.91000	124.64000
7.92000	130.17000
7.93000	113.69000
7.94000	101.22000
7.95000	110.75000
7.96000	125.28000
7.97000	122.80000
7.98000	118.33000
7.99000	124.86000
8.00000	130.39000
8.01000	118.92000
8.02000	117.45000
8.03000	123.98000
8.04000	127.51000
8.05000	118.04000
8.06000	106.58000
8.07000	111.11000
8.08000	113.64000
8.09000	117.18000
8.10000	125.71000
8.11000	116.25000
8.12000	116.78000
8.13000	123.32000
8.14000	123.86000
8.15000	116.39000
8.16000	114.93000
8.17000	118.47000
8.18000	116.01000
8.19000	112.55000
8.20000	97.09000
8.21000	93.63000
8.22000	90.17000
8.23000	99.72000
8.24000	109.26000
8.25000	105.80000
8.26000	125.34000
8.27000	139.89000
8.28000	162.43000
8.29000	176.98000
8.30000	170.52000
8.31000	164.07000
8.32000	172.61000
8.33000	191.16000
8.34000	208.70000
8.35000	229.25000
8.36000	225.79000
8.37000	215.34000
8.38000	211.88000
8.39000	220.42000
8.40000	228.97000
8.41000	243.51000
8.42000	244.05000
8.43000	230.60000
8.44000	233.14000
8.45000	250.68000
8.46000	265.22000
8.47000	265.76000
8.48000	265.30000
8.49000	263.83000
8.50000	263.37000
8.51000	249.91000
8.52000	236.44000
8.53000	222.97000
8.54000	208.50000
8.55000	212.03000
8.56000	221.56000
8.57000	218.09000
8.58000	197.61000
8.59000	197.13000
8.60000	196.65000
8.61000	188.17000
8.62000	184.68000
8.63000	185.20000
8.64000	186.71000
8.65000	162.22000
8.66000	149.72000
8.67000	136.22000
8.68000	117.72000
8.69000	118.22000
8.70000	131.71000
8.71000	123.20000
8.72000	112.69000
8.73000	113.17000
8.74000	109.65000
8.75000	110.13000
8.76000	116.60000
8.77000	125.07000
8.78000	116.53000
8.79000	115.99000
8.80000	124.45000
8.81000	118.90000
8.82000	121.35000
8.83000	108.79000
8.84000	108.22000
8.85000	102.65000
8.86000	109.08000
8.87000	119.50000
8.88000	113.92000
8.89000	123.33000
8.90000	123.73000
8.91000	126.13000
8.92000	132.52000
8.93000	152.91000
8.94000	147.29000
8.95000	107.67000
8.96000	105.03000
8.97000	113.39000
8.98000	105.75000
8.99000	118.10000
9.00000	129.44000
9.01000	126.77000
9.02000	128.10000
9.03000	111.42000
9.04000	103.73000
9.05000	106.03000
9.06000	108.33000
9.07000	106.61000
9.08000	99.89000
9.09000	104.16000
9.10000	122.43000
9.11000	129.68000
9.12000	119.93000
9.13000	108.16000
9.14000	97.39000
9.15000	113.61000
9.16000	131.82000
9.17000	127.02000
9.18000	131.21000
9.19000	114.40000
9.20000	97.57000
9.21000	103.73000
9.22000	117.88000
9.23000	131.02000
9.24000	115.15000
9.25000	91.28000
9.26000	83.39000
9.27000	95.49000
9.28000	105.58000
9.29000	116.65000
9.30000	127.72000
9.31000	131.78000
9.32000	129.82000
9.33000	116.86000
9.34000	131.88000
9.35000	128.89000
9.36000	128.89000
9.37000	144.87000
9.38000	147.85000
9.39000	139.81000
9.40000	130.76000
9.41000	126.70000
9.42000	136.62000
9.43000	131.53000
9.44000	125.43000
9.45000	150.32000
9.46000	146.19000
9.47000	118.05000
9.48000	122.90000
9.49000	136.74000
9.50000	138.56000
9.51000	143.36000
9.52000	134.16000
9.53000	132.94000
9.54000	128.70000
9.55000	119.45000
9.56000	120.19000
9.57000	129.92000
9.58000	132.62000
9.59000	127.32000
9.60000	127.00000
9.61000	132.67000
9.62000	136.32000
9.63000	128.95000
9.64000	124.58000
9.65000	133.18000
9.66000	128.77000
9.67000	126.35000
9.68000	145.91000
9.69000	157.46000
9.70000	148.99000
9.71000	129.51000
9.72000	114.01000
9.73000	124.49000
9.74000	137.96000
9.75000	131.41000
9.76000	128.85000
9.77000	146.27000
9.78000	155.68000
9.79000	146.07000
9.80000	142.44000
9.81000	144.80000
9.82000	152.14000
9.83000	163.47000
9.84000	168.78000
9.85000	147.07000
9.86000	125.35000
9.87000	133.61000
9.88000	133.86000
9.89000	138.08000
9.90000	132.30000
9.91000	129.49000
9.92000	134.67000
9.93000	128.83000
9.94000	121.98000
9.95000	112.11000
9.96000	108.22000
9.97000	110.32000
9.98000	97.40000
9.99000	104.46000
10.00000	129.51000
10.01000	124.54000
10.02000	112.55000
10.03000	103.55000
10.04000	102.53000
10.05000	116.49000
10.06000	114.44000
10.07000	112.37000
10.08000	112.28000
10.09000	116.18000
10.10000	136.06000
10.11000	140.93000
10.12000	125.77000
10.13000	122.61000
10.14000	131.42000
10.15000	119.22000
10.16000	99.00000
10.17000	99.77000
10.18000	100.52000
10.19000	101.25000
10.20000	107.97000
10.21000	106.67000
10.22000	97.36000
10.23000	103.03000
10.24000	117.69000
10.25000	116.32000
10.26000	127.95000
10.27000	126.55000
10.28000	107.15000
10.29000	111.72000
10.30000	123.28000
10.31000	125.83000
10.32000	134.36000
10.33000	136.88000
10.34000	132.38000
10.35000	131.86000
10.36000	133.34000
10.37000	135.79000
10.38000	122.24000
10.39000	103.66000
10.40000	111.08000
10.41000	131.48000
10.42000	148.86000
10.43000	142.24000
10.44000	136.59000
10.45000	139.94000
10.46000	128.27000
10.47000	124.59000
10.48000	143.90000
10.49000	139.19000
10.50000	121.47000
10.51000	130.74000
10.52000	149.99000
10.53000	143.24000
10.54000	146.47000
10.55000	141.69000
10.56000	133.90000
10.57000	144.10000
10.58000	160.28000
10.59000	134.46000
10.60000	129.62000
10.61000	123.78000
10.62000	107.92000
10.63000	112.06000
10.64000	120.18000
10.65000	116.30000
10.66000	137.40000
10.67000	152.50000
10.68000	136.59000
10.69000	136.67000
10.70000	131.74000
10.71000	126.80000
10.72000	123.86000
10.73000	120.91000
10.74000	126.95000
10.75000	122.98000
10.76000	103.01000
10.77000	115.03000
10.78000	116.05000
10.79000	106.06000
10.80000	111.06000
10.81000	112.07000
10.82000	106.06000
10.83000	105.05000
10.84000	101.04000
10.85000	111.02000
10.86000	117.01000
10.87000	109.98000
10.88000	111.96000
10.89000	111.93000
10.90000	120.91000
10.91000	110.88000
10.92000	121.85000
10.93000	142.81000
10.94000	123.78000
10.95000	98.75000
10.96000	105.72000
10.97000	113.69000
10.98000	128.66000
10.99000	137.64000
11.00000	124.61000
11.01000	114.59000
11.02000	122.57000
11.03000	131.56000
11.04000	125.55000
11.05000	124.54000
11.06000	125.54000
11.07000	126.55000
11.08000	111.56000
11.09000	102.58000
11.10000	107.60000
11.11000	122.63000
11.12000	123.67000
11.13000	119.72000
11.14000	100.78000
11.15000	109.84000
11.16000	119.92000
11.17000	102.01000
11.18000	111.10000
11.19000	121.21000
11.20000	114.33000
11.21000	120.47000
11.22000	124.62000
11.23000	122.78000
11.24000	125.95000
11.25000	121.15000
11.26000	120.35000
11.27000	113.58000
11.28000	111.82000
11.29000	88.07000
11.30000	57.35000
11.31000	87.64000
11.32000	111.96000
11.33000	98.29000
11.34000	96.65000
11.35000	110.02000
11.36000	122.42000
11.37000	121.84000
11.38000	126.28000
11.39000	136.75000
11.40000	126.24000
11.41000	120.76000
11.42000	122.31000
11.43000	120.88000
11.44000	129.47000
11.45000	120.10000
11.46000	115.76000
11.47000	116.44000
11.48000	106.16000
11.49000	111.90000
11.50000	133.68000
11.51000	147.00000
11.52000	137.62000
11.53000	131.24000
11.54000	146.87000
11.55000	159.49000
11.56000	130.11000
11.57000	126.73000
11.58000	122.35000
11.59000	103.98000
11.60000	120.60000
11.61000	139.22000
11.62000	144.84000
11.63000	138.46000
11.64000	129.09000
11.65000	142.71000
11.66000	140.33000
11.67000	136.95000
11.68000	128.57000
11.69000	111.20000
11.70000	129.82000
11.71000	128.44000
11.72000	101.06000
11.73000	95.68000
11.74000	83.30000
11.75000	83.93000
11.76000	100.55000
11.77000	110.17000
11.78000	114.79000
11.79000	128.41000
11.80000	131.04000
11.81000	128.66000
11.82000	143.28000
11.83000	137.90000
11.84000	137.52000
11.85000	147.15000
11.86000	147.77000
11.87000	142.39000
11.88000	129.01000
11.89000	122.63000
11.90000	102.26000
11.91000	104.88000
11.92000	118.50000
11.93000	137.12000
11.94000	151.74000
11.95000	137.37000
11.96000	142.99000
11.97000	143.61000
11.98000	138.23000
11.99000	136.85000
12.00000	138.48000
12.01000	133.10000
12.02000	147.72000
12.03000	134.34000
12.04000	108.96000
12.05000	111.59000
12.06000	120.21000
12.07000	132.83000
12.08000	141.45000
12.09000	119.07000
12.10000	108.70000
12.11000	108.32000
12.12000	106.94000
12.13000	128.56000
12.14000	130.18000
12.15000	123.80000
12.16000	120.43000
12.17000	120.05000
12.18000	125.67000
12.19000	123.29000
12.20000	119.91000
12.21000	128.54000
12.22000	122.16000
12.23000	109.78000
12.24000	102.40000
12.25000	118.02000
12.26000	121.65000
12.27000	120.27000
12.28000	116.89000
12.29000	107.51000
12.30000	114.13000
12.31000	113.76000
12.32000	120.38000
12.33000	124.00000
12.34000	119.88000
12.35000	115.64000
12.36000	112.37000
12.37000	118.09000
12.38000	120.79000
12.39000	121.47000
12.40000	121.14000
12.41000	118.78000
12.42000	131.41000
12.43000	143.02000
12.44000	127.62000
12.45000	110.19000
12.46000	125.75000
12.47000	144.29000
12.48000	159.82000
12.49000	163.32000
12.50000	148.82000
12.51000	144.29000
12.52000	146.75000
12.53000	127.19000
12.54000	106.61000
12.55000	110.02000
12.56000	116.41000
12.57000	95.78000
12.58000	75.14000
12.59000	94.48000
12.60000	123.81000
12.61000	124.12000
12.62000	127.42000
12.63000	141.69000
12.64000	154.96000
12.65000	146.20000
12.66000	146.43000
12.67000	140.65000
12.68000	124.85000
12.69000	119.04000
12.70000	128.21000
12.71000	132.36000
12.72000	113.50000
12.73000	101.63000
12.74000	123.73000
12.75000	143.83000
12.76000	128.91000
12.77000	126.97000
12.78000	130.03000
12.79000	137.06000
12.80000	149.08000
12.81000	146.09000
12.82000	134.08000
12.83000	127.06000
12.84000	145.03000
12.85000	165.98000
12.86000	152.91000
12.87000	134.84000
12.88000	145.75000
12.89000	144.64000
12.90000	118.52000
12.91000	101.39000
12.92000	100.24000
12.93000	111.08000
12.94000	137.91000
12.95000	134.73000
12.96000	125.53000
12.97000	127.31000
12.98000	110.09000
12.99000	98.85000
13.00000	105.60000
13.01000	126.33000
13.02000	136.06000
13.03000	144.77000
13.04000	139.47000
13.05000	124.15000
13.06000	118.82000
13.07000	135.48000
13.08000	152.13000
13.09000	151.77000
13.10000	152.39000
13.11000	163.00000
13.12000	151.60000
13.13000	138.19000
13.14000	131.76000
13.15000	147.33000
13.16000	161.88000
13.17000	162.42000
13.18000	145.95000
13.19000	138.46000
13.20000	142.97000
13.21000	135.46000
13.22000	128.95000
13.23000	125.42000
13.24000	130.88000
13.25000	140.33000
13.26000	151.76000
13.27000	163.19000
13.28000	158.61000
13.29000	152.01000
13.30000	151.41000
13.31000	149.79000
13.32000	165.16000
13.33000	176.53000
13.34000	168.88000
13.35000	168.22000
13.36000	191.55000
13.37000	211.87000
13.38000	218.18000
13.39000	223.48000
13.40000	231.77000
13.41000	230.05000
13.42000	233.32000
13.43000	236.59000
13.44000	243.84000
13.45000	249.08000
13.46000	255.31000
13.47000	276.53000
13.48000	289.74000
13.49000	280.94000
13.50000	271.14000
13.51000	275.32000
13.52000	264.49000
13.53000	254.66000
13.54000	264.82000
13.55000	261.96000
13.56000	265.10000
13.57000	268.23000
13.58000	257.35000
13.59000	242.46000
13.60000	244.56000
13.61000	252.65000
13.62000	248.74000
13.63000	226.81000
13.64000	210.88000
13.65000	217.94000
13.66000	213.99000
13.67000	209.03000
13.68000	224.07000
13.69000	223.09000
13.70000	207.11000
13.71000	197.12000
13.72000	193.12000
13.73000	178.11000
13.74000	151.10000
13.75000	149.07000
13.76000	131.04000
13.77000	139.00000
13.78000	164.96000
13.79000	167.90000
13.80000	160.84000
13.81000	152.77000
13.82000	146.70000
13.83000	148.61000
13.84000	141.52000
13.85000	121.42000
13.86000	117.32000
13.87000	130.20000
13.88000	129.08000
13.89000	119.96000
13.90000	110.82000
13.91000	114.68000
13.92000	143.53000
13.93000	141.38000
13.94000	133.21000
13.95000	139.05000
13.96000	130.87000
13.97000	114.69000
13.98000	113.50000
13.99000	109.30000
14.00000	117.10000
14.01000	124.89000
14.02000	114.68000
14.03000	122.46000
14.04000	131.23000
14.05000	127.00000
14.06000	126.76000
14.07000	123.51000
14.08000	132.26000
14.09000	132.00000
14.10000	124.74000
14.11000	131.47000
14.12000	126.19000
14.13000	114.91000
14.14000	120.63000
14.15000	128.33000
14.16000	120.04000
14.17000	121.73000
14.18000	123.42000
14.19000	112.11000
14.20000	99.79000
14.21000	95.46000
14.22000	93.13000
14.23000	87.79000
14.24000	112.45000
14.25000	131.11000
14.26000	124.75000
14.27000	123.40000
14.28000	120.03000
14.29000	112.67000
14.30000	109.30000
14.31000	108.92000
14.32000	116.54000
14.33000	128.15000
14.34000	111.76000
14.35000	97.36000
14.36000	116.96000
14.37000	140.56000
14.38000	138.15000
14.39000	120.73000
14.40000	120.31000
14.41000	131.89000
14.42000	125.46000
14.43000	123.03000
14.44000	134.59000
14.45000	140.15000
14.46000	133.71000
14.47000	121.26000
14.48000	110.81000
14.49000	107.35000
14.50000	127.89000
14.51000	134.42000
14.52000	121.95000
14.53000	123.48000
14.54000	109.00000
14.55000	103.52000
14.56000	105.04000
14.57000	122.55000
14.58000	125.06000
14.59000	113.56000
14.60000	104.06000
14.61000	98.56000
14.62000	97.06000
14.63000	107.55000
14.64000	115.03000
14.65000	100.52000
14.66000	114.00000
14.67000	131.47000
14.68000	127.95000
14.69000	119.42000
14.70000	118.89000
14.71000	110.35000
14.72000	108.81000
14.73000	111.27000
14.74000	118.72000
14.75000	111.17000
14.76000	111.62000
14.77000	129.07000
14.78000	124.51000
14.79000	121.95000
14.80000	119.39000
14.81000	117.83000
14.82000	118.26000
14.83000	120.69000
14.84000	117.11000
14.85000	116.54000
14.86000	123.96000
14.87000	116.38000
14.88000	118.79000
14.89000	124.21000
14.90000	114.62000
14.91000	117.03000
14.92000	107.44000
14.93000	98.84000
14.94000	90.24000
14.95000	102.64000
14.96000	121.04000
14.97000	116.44000
14.98000	120.83000
14.99000	134.22000
15.00000	146.61000
15.01000	158.00000
15.02000	152.38000
15.03000	141.76000
15.04000	145.15000
15.05000	160.52000
15.06000	171.90000
15.07000	174.28000
15.08000	188.65000
15.09000	201.02000
15.10000	213.39000
15.11000	220.76000
15.12000	253.13000
15.13000	285.49000
15.14000	316.86000
15.15000	373.22000
15.16000	408.58000
15.17000	440.94000
15.18000	491.29000
15.19000	550.65000
15.20000	618.00000
15.21000	705.36000
15.22000	806.71000
15.23000	894.06000
15.24000	970.41000
15.25000	1062.75000
15.26000	1143.10000
15.27000	1268.45000
15.28000	1379.79000
15.29000	1470.13000
15.30000	1549.47000
15.31000	1629.81000
15.32000	1714.15000
15.33000	1834.49000
15.34000	1929.83000
15.35000	1996.16000
15.36000	2056.50000
15.37000	2110.83000
15.38000	2141.17000
15.39000	2129.50000
15.40000	2135.83000
15.41000	2141.16000
15.42000	2111.49000
15.43000	2094.82000
15.44000	2062.14000
15.45000	2001.47000
15.46000	1934.80000
15.47000	1867.12000
15.48000	1770.45000
15.49000	1675.77000
15.50000	1596.10000
15.51000	1520.42000
15.52000	1446.74000
15.53000	1356.06000
15.54000	1257.38000
15.55000	1172.71000
15.56000	1092.03000
15.57000	998.35000
15.58000	912.66000
15.59000	845.98000
15.60000	789.30000
15.61000	733.62000
15.62000	672.94000
15.63000	615.25000
15.64000	560.57000
15.65000	528.89000
15.66000	503.20000
15.67000	443.52000
15.68000	381.83000
15.69000	335.15000
15.70000	309.47000
15.71000	273.78000
15.72000	240.10000
15.73000	220.41000
15.74000	198.72000
15.75000	189.04000
15.76000	196.35000
15.77000	194.67000
15.78000	178.98000
15.79000	175.30000
15.80000	171.61000
15.81000	155.92000
15.82000	122.24000
15.83000	102.55000
15.84000	116.87000
15.85000	133.18000
15.86000	129.49000
15.87000	122.81000
15.88000	122.12000
15.89000	124.44000
15.90000	125.75000
15.91000	119.07000
15.92000	121.38000
15.93000	123.69000
15.94000	116.01000
15.95000	116.33000
15.96000	117.64000
15.97000	118.96000
15.98000	121.27000
15.99000	115.59000
16.00000	117.91000
16.01000	132.22000
16.02000	141.54000
16.03000	141.86000
16.04000	144.17000
16.05000	149.49000
16.06000	134.81000
16.07000	128.13000
16.08000	147.45000
16.09000	138.77000
16.10000	129.09000
16.11000	131.41000
16.12000	129.73000
16.13000	127.05000
16.14000	123.37000
16.15000	143.69000
16.16000	156.02000
16.17000	139.34000
16.18000	133.66000
16.19000	139.99000
16.20000	141.31000
16.21000	141.64000
16.22000	131.96000
16.23000	148.29000
16.24000	166.61000
16.25000	149.94000
16.26000	137.27000
16.27000	138.60000
16.28000	131.93000
16.29000	129.25000
16.30000	132.58000
16.31000	125.92000
16.32000	133.25000
16.33000	148.58000
16.34000	141.91000
16.35000	121.24000
16.36000	111.58000
16.37000	110.91000
16.38000	117.24000
16.39000	125.58000
16.40000	135.92000
16.41000	131.25000
16.42000	134.59000
16.43000	140.93000
16.44000	134.27000
16.45000	119.60000
16.46000	110.94000
16.47000	111.28000
16.48000	103.63000
16.49000	113.97000
16.50000	127.31000
16.51000	141.65000
16.52000	143.00000
16.53000	131.34000
16.54000	146.69000
16.55000	151.03000
16.56000	149.38000
16.57000	146.73000
16.58000	138.07000
16.59000	152.42000
16.60000	181.77000
16.61000	197.12000
16.62000	204.47000
16.63000	212.83000
16.64000	222.18000
16.65000	229.53000
16.66000	248.88000
16.67000	273.24000
16.68000	308.59000
16.69000	344.95000
16.70000	379.30000
16.71000	414.66000
16.72000	444.02000
16.73000	498.38000
16.74000	566.74000
16.75000	630.10000
16.76000	692.46000
16.77000	769.82000
16.78000	855.18000
16.79000	944.54000
16.80000	1058.91000
16.81000	1148.27000
16.82000	1241.63000
16.83000	1367.00000
16.84000	1493.37000
16.85000	1600.73000
16.86000	1732.10000
16.87000	1855.47000
16.88000	1970.84000
16.89000	2090.20000
16.90000	2232.57000
16.91000	2347.94000
16.92000	2459.32000
16.93000	2516.69000
16.94000	2557.06000
16.95000	2608.43000
16.96000	2647.81000
16.97000	2682.18000
16.98000	2702.55000
16.99000	2703.93000
17.00000	2695.31000
17.01000	2654.68000
17.02000	2601.06000
17.03000	2556.44000
17.04000	2463.81000
17.05000	2383.19000
17.06000	2300.57000
17.07000	2216.95000
17.08000	2109.33000
17.09000	1987.71000
17.10000	1870.09000
17.11000	1770.47000
17.12000	1647.86000
17.13000	1561.24000
17.14000	1447.62000
17.15000	1330.00000
17.16000	1230.39000
17.17000	1136.77000
17.18000	1045.16000
17.19000	972.54000
17.20000	887.93000
17.21000	819.31000
17.22000	740.70000
17.23000	661.09000
17.24000	588.47000
17.25000	538.86000
17.26000	493.25000
17.27000	451.64000
17.28000	412.02000
17.29000	372.41000
17.30000	339.80000
17.31000	311.19000
17.32000	278.58000
17.33000	268.97000
17.34000	261.36000
17.35000	246.75000
17.36000	225.14000
17.37000	207.53000
17.38000	195.92000
17.39000	174.31000
17.40000	168.70000
17.41000	172.09000
17.42000	170.48000
17.43000	162.87000
17.44000	149.26000
17.45000	140.65000
17.46000	154.04000
17.47000	161.43000
17.48000	150.82000
17.49000	152.21000
17.50000	165.61000
17.51000	172.00000
17.52000	154.39000
17.53000	138.78000
17.54000	144.17000
17.55000	136.56000
17.56000	120.95000
17.57000	126.34000
17.58000	138.73000
17.59000	140.12000
17.60000	119.51000
17.61000	106.90000
17.62000	118.28000
17.63000	125.67000
17.64000	122.06000
17.65000	121.45000
17.66000	124.84000
17.67000	128.22000
17.68000	125.61000
17.69000	140.00000
17.70000	153.38000
17.71000	151.77000
17.72000	154.15000
17.73000	144.54000
17.74000	143.92000
17.75000	145.31000
17.76000	145.69000
17.77000	148.07000
17.78000	155.45000
17.79000	160.83000
17.80000	161.21000
17.81000	145.59000
17.82000	156.97000
17.83000	190.35000
17.84000	201.73000
17.85000	201.11000
17.86000	199.48000
17.87000	219.86000
17.88000	236.23000
17.89000	255.60000
17.90000	280.98000
17.91000	300.35000
17.92000	319.72000
17.93000	344.09000
17.94000	374.46000
17.95000	392.82000
17.96000	401.19000
17.97000	428.56000
17.98000	453.92000
17.99000	482.28000
18.00000	517.65000
18.01000	556.01000
18.02000	589.37000
18.03000	619.72000
18.04000	644.08000
18.05000	659.44000
18.06000	666.79000
18.07000	674.14000
18.08000	696.50000
18.09000	711.85000
18.10000	719.19000
18.11000	716.54000
18.12000	705.89000
18.13000	707.23000
18.14000	699.57000
18.15000	682.91000
18.16000	667.25000
18.17000	656.59000
18.18000	638.93000
18.19000	609.26000
18.20000	597.59000
18.21000	585.92000
18.22000	560.25000
18.23000	531.58000
18.24000	500.91000
18.25000	481.23000
18.26000	459.55000
18.27000	429.87000
18.28000	410.19000
18.29000	394.50000
18.30000	374.81000
18.31000	368.13000
18.32000	343.43000
18.33000	324.74000
18.34000	304.04000
18.35000	290.35000
18.36000	287.65000
18.37000	262.94000
18.38000	245.24000
18.39000	236.53000
18.40000	225.82000
18.41000	224.11000
18.42000	206.39000
18.43000	206.68000
18.44000	206.96000
18.45000	201.23000
18.46000	205.51000
18.47000	206.78000
18.48000	194.05000
18.49000	199.32000
18.50000	219.58000
18.51000	223.84000
18.52000	215.10000
18.53000	218.35000
18.54000	230.61000
18.55000	220.86000
18.56000	224.10000
18.57000	232.35000
18.58000	224.58000
18.59000	228.82000
18.60000	240.06000
18.61000	260.29000
18.62000	259.51000
18.63000	260.74000
18.64000	268.96000
18.65000	267.17000
18.66000	271.39000
18.67000	269.60000
18.68000	263.80000
18.69000	269.01000
18.70000	282.21000
18.71000	274.40000
18.72000	268.59000
18.73000	274.78000
18.74000	265.97000
18.75000	266.15000
18.76000	272.32000
18.77000	256.50000
18.78000	242.66000
18.79000	238.83000
18.80000	250.99000
18.81000	258.15000
18.82000	247.30000
18.83000	232.45000
18.84000	223.59000
18.85000	210.73000
18.86000	189.87000
18.87000	184.00000
18.88000	189.13000
18.89000	176.25000
18.90000	172.37000
18.91000	177.48000
18.92000	179.59000
18.93000	179.69000
18.94000	177.79000
18.95000	186.89000
18.96000	176.98000
18.97000	158.06000
18.98000	157.14000
18.99000	158.22000
19.00000	164.31000
19.01000	165.42000
19.02000	152.53000
19.03000	148.64000
19.04000	141.75000
19.05000	137.86000
19.06000	133.97000
19.07000	125.08000
19.08000	120.19000
19.09000	125.29000
19.10000	139.40000
19.11000	142.51000
19.12000	144.61000
19.13000	160.72000
19.14000	168.83000
19.15000	151.93000
19.16000	141.04000
19.17000	137.14000
19.18000	143.25000
19.19000	142.35000
19.20000	140.45000
19.21000	136.56000
19.22000	129.66000
19.23000	139.76000
19.24000	145.87000
19.25000	145.97000
19.26000	132.07000
19.27000	131.17000
19.28000	126.27000
19.29000	123.37000
19.30000	138.48000
19.31000	155.58000
19.32000	147.68000
19.33000	131.78000
19.34000	135.88000
19.35000	125.97000
19.36000	118.07000
19.37000	116.17000
19.38000	116.27000
19.39000	116.37000
19.40000	120.47000
19.41000	124.56000
19.42000	125.66000
19.43000	126.76000
19.44000	129.85000
19.45000	135.95000
19.46000	136.05000
19.47000	132.14000
19.48000	124.24000
19.49000	114.33000
19.50000	110.43000
19.51000	118.52000
19.52000	112.62000
19.53000	99.71000
19.54000	108.81000
19.55000	118.90000
19.56000	122.00000
19.57000	127.09000
19.58000	112.18000
19.59000	95.27000
19.60000	97.37000
19.61000	99.46000
19.62000	109.55000
19.63000	116.64000
19.64000	117.74000
19.65000	115.83000
19.66000	107.92000
19.67000	108.01000
19.68000	119.10000
19.69000	115.19000
19.70000	106.28000
19.71000	107.38000
19.72000	112.47000
19.73000	107.56000
19.74000	110.65000
19.75000	125.74000
19.76000	124.83000
19.77000	113.92000
19.78000	112.00000
19.79000	114.09000
19.80000	112.18000
19.81000	118.27000
19.82000	120.36000
19.83000	127.45000
19.84000	133.54000
19.85000	127.63000
19.86000	130.71000
19.87000	127.80000
19.88000	134.89000
19.89000	133.98000
19.90000	134.07000
19.91000	132.15000
19.92000	122.24000
19.93000	119.33000
19.94000	109.41000
19.95000	120.50000
19.96000	132.59000
19.97000	126.67000
19.98000	124.76000
19.99000	131.85000
20.00000	133.93000
20.01000	132.02000
20.02000	124.11000
20.03000	112.19000
20.04000	116.28000
20.05000	126.36000
20.06000	112.45000
20.07000	101.54000
20.08000	109.62000
20.09000	127.71000
20.10000	137.79000
20.11000	140.88000
20.12000	144.96000
20.13000	135.05000
20.14000	121.13000
20.15000	124.22000
20.16000	140.30000
20.17000	145.39000
20.18000	136.47000
20.19000	120.56000
20.20000	119.64000
20.21000	131.73000
20.22000	136.81000
20.23000	127.90000
20.24000	119.98000
20.25000	118.06000
20.26000	117.15000
20.27000	127.23000
20.28000	123.32000
20.29000	116.40000
20.30000	128.49000
20.31000	151.57000
20.32000	149.66000
20.33000	132.74000
20.34000	126.82000
20.35000	118.91000
20.36000	118.99000
20.37000	121.08000
20.38000	121.16000
20.39000	131.24000
20.40000	140.33000
20.41000	135.41000
20.42000	123.50000
20.43000	111.58000
20.44000	118.66000
20.45000	127.75000
20.46000	129.83000
20.47000	118.92000
20.48000	105.00000
20.49000	106.08000
20.50000	120.17000
20.51000	125.25000
20.52000	118.34000
20.53000	117.42000
20.54000	112.50000
20.55000	109.59000
20.56000	112.67000
20.57000	110.76000
20.58000	108.84000
20.59000	110.93000
20.60000	119.01000
20.61000	123.09000
20.62000	117.18000
20.63000	114.26000
20.64000	119.35000
20.65000	121.43000
20.66000	108.52000
20.67000	119.60000
20.68000	134.69000
20.69000	127.77000
20.70000	123.86000
20.71000	121.94000
20.72000	119.03000
20.73000	123.11000
20.74000	107.20000
20.75000	109.28000
20.76000	118.37000
20.77000	116.45000
20.78000	116.54000
20.79000	120.62000
20.80000	122.71000
20.81000	118.79000
20.82000	111.88000
20.83000	112.97000
20.84000	115.05000
20.85000	102.14000
20.86000	103.22000
20.87000	110.31000
20.88000	111.40000
20.89000	108.48000
20.90000	114.57000
20.91000	118.66000
20.92000	117.74000
20.93000	120.83000
20.94000	124.92000
20.95000	136.00000
20.96000	139.09000
20.97000	128.18000
20.98000	129.26000
20.99000	121.35000
21.00000	131.44000
21.01000	146.53000
21.02000	130.61000
21.03000	115.70000
21.04000	127.79000
21.05000	150.88000
21.06000	160.97000
21.07000	161.06000
21.08000	161.14000
21.09000	152.23000
21.10000	162.32000
21.11000	176.41000
21.12000	186.50000
21.13000	193.59000
21.14000	196.68000
21.15000	194.77000
21.16000	201.86000
21.17000	228.95000
21.18000	242.04000
21.19000	241.13000
21.20000	252.22000
21.21000	273.31000
21.22000	295.40000
21.23000	304.49000
21.24000	306.58000
21.25000	309.67000
21.26000	326.77000
21.27000	341.86000
21.28000	348.95000
21.29000	359.04000
21.30000	370.13000
21.31000	372.22000
21.32000	381.32000
21.33000	378.41000
21.34000	378.50000
21.35000	392.60000
21.36000	384.69000
21.37000	391.78000
21.38000	397.88000
21.39000	384.97000
21.40000	379.06000
21.41000	379.16000
21.42000	368.25000
21.43000	360.35000
21.44000	348.44000
21.45000	328.54000
21.46000	321.63000
21.47000	308.73000
21.48000	292.82000
21.49000	280.92000
21.50000	279.02000
21.51000	278.11000
21.52000	261.21000
21.53000	244.30000
21.54000	227.40000
21.55000	212.50000
21.56000	208.60000
21.57000	202.69000
21.58000	210.79000
21.59000	210.89000
21.60000	191.99000
21.61000	186.09000
21.62000	185.19000
21.63000	178.28000
21.64000	179.38000
21.65000	187.48000
21.66000	170.58000
21.67000	155.68000
21.68000	165.78000
21.69000	163.88000
21.70000	156.98000
21.71000	158.09000
21.72000	141.19000
21.73000	130.29000
21.74000	136.39000
21.75000	143.49000
21.76000	145.59000
21.77000	130.70000
21.78000	129.80000
21.79000	135.90000
21.80000	124.01000
21.81000	127.11000
21.82000	137.21000
21.83000	134.32000
21.84000	130.42000
21.85000	128.53000
21.86000	126.63000
21.87000	128.74000
21.88000	134.84000
21.89000	144.95000
21.90000	139.05000
21.91000	126.16000
21.92000	124.27000
21.93000	121.37000
21.94000	103.48000
21.95000	112.59000
21.96000	128.70000
21.97000	131.80000
21.98000	135.91000
21.99000	143.02000
22.00000	141.13000
22.01000	131.24000
22.02000	130.35000
22.03000	128.46000
22.04000	137.57000
22.05000	146.68000
22.06000	129.79000
22.07000	118.90000
22.08000	130.01000
22.09000	150.12000
22.10000	155.23000
22.11000	153.35000
22.12000	163.46000
22.13000	166.57000
22.14000	164.68000
22.15000	178.80000
22.16000	189.91000
22.17000	191.03000
22.18000	205.14000
22.19000	193.26000
22.20000	184.37000
22.21000	199.49000
22.22000	211.60000
22.23000	212.72000
22.24000	216.83000
22.25000	222.95000
22.26000	227.07000
22.27000	225.18000
22.28000	236.30000
22.29000	243.42000
22.30000	233.54000
22.31000	223.66000
22.32000	235.78000
22.33000	248.89000
22.34000	248.01000
22.35000	247.13000
22.36000	239.25000
22.37000	242.38000
22.38000	247.50000
22.39000	242.62000
22.40000	231.74000
22.41000	246.86000
22.42000	259.98000
22.43000	256.11000
22.44000	254.23000
22.45000	262.35000
22.46000	264.48000
22.47000	270.60000
22.48000	281.73000
22.49000	278.85000
22.50000	280.98000
22.51000	281.10000
22.52000	272.23000
22.53000	265.35000
22.54000	278.48000
22.55000	293.61000
22.56000	305.73000
22.57000	315.86000
22.58000	326.99000
22.59000	348.12000
22.60000	372.25000
22.61000	390.38000
22.62000	403.51000
22.63000	414.64000
22.64000	427.77000
22.65000	441.90000
22.66000	448.03000
22.67000	446.16000
22.68000	451.29000
22.69000	456.42000
22.70000	491.55000
22.71000	510.69000
22.72000	499.82000
22.73000	502.95000
22.74000	504.09000
22.75000	493.22000
22.76000	504.36000
22.77000	510.49000
22.78000	502.63000
22.79000	485.76000
22.80000	470.90000
22.81000	459.04000
22.82000	455.17000
22.83000	463.31000
22.84000	467.45000
22.85000	447.59000
22.86000	416.73000
22.87000	389.87000
22.88000	389.01000
22.89000	384.15000
22.90000	367.29000
22.91000	361.43000
22.92000	344.57000
22.93000	329.71000
22.94000	323.85000
22.95000	296.99000
22.96000	274.14000
22.97000	280.28000
22.98000	278.42000
22.99000	266.57000
23.00000	256.71000
23.01000	240.85000
23.02000	216.00000
23.03000	208.14000
23.04000	210.29000
23.05000	205.44000
23.06000	187.58000
23.07000	179.73000
23.08000	179.88000
23.09000	174.03000
23.10000	169.17000
23.11000	168.32000
23.12000	168.47000
23.13000	174.62000
23.14000	161.77000
23.15000	142.92000
23.16000	150.07000
23.17000	145.22000
23.18000	138.38000
23.19000	139.53000
23.20000	142.68000
23.21000	143.83000
23.22000	137.99000
23.23000	135.14000
23.24000	139.29000
23.25000	138.45000
23.26000	131.60000
23.27000	127.76000
23.28000	125.91000
23.29000	119.07000
23.30000	127.23000
23.31000	138.38000
23.32000	133.54000
23.33000	121.70000
23.34000	122.86000
23.35000	118.02000
23.36000	114.18000
23.37000	121.34000
23.38000	120.50000
23.39000	112.66000
23.40000	112.82000
23.41000	118.98000
23.42000	119.14000
23.43000	121.30000
23.44000	115.47000
23.45000	121.63000
23.46000	130.79000
23.47000	130.96000
23.48000	122.12000
23.49000	118.29000
23.50000	118.45000
23.51000	117.62000
23.52000	121.78000
23.53000	119.95000
23.54000	106.12000
23.55000	103.28000
23.56000	108.45000
23.57000	105.62000
23.58000	109.79000
23.59000	116.96000
23.60000	131.13000
23.61000	145.30000
23.62000	146.47000
23.63000	152.64000
23.64000	157.81000
23.65000	154.98000
23.66000	160.16000
23.67000	171.33000
23.68000	187.50000
23.69000	191.68000
23.70000	196.85000
23.71000	213.02000
23.72000	221.20000
23.73000	222.38000
23.74000	228.55000
23.75000	233.73000
23.76000	242.90000
23.77000	251.08000
23.78000	258.26000
23.79000	277.44000
23.80000	302.62000
23.81000	318.80000
23.82000	332.97000
23.83000	343.15000
23.84000	362.34000
23.85000	377.52000
23.86000	370.70000
23.87000	374.88000
23.88000	393.06000
23.89000	408.24000
23.90000	415.43000
23.91000	413.61000
23.92000	413.79000
23.93000	411.98000
23.94000	424.16000
23.95000	439.35000
23.96000	434.54000
23.97000	427.72000
23.98000	419.91000
23.99000	425.10000
24.00000	425.28000
24.01000	417.47000
24.02000	403.66000
24.03000	381.85000
24.04000	369.04000
24.05000	358.23000
24.06000	345.42000
24.07000	330.61000
24.08000	316.80000
24.09000	308.99000
24.10000	301.19000
24.11000	277.38000
24.12000	261.57000
24.13000	257.76000
24.14000	252.96000
24.15000	237.15000
24.16000	224.35000
24.17000	220.54000
24.18000	216.74000
24.19000	214.94000
24.20000	213.13000
24.21000	210.33000
24.22000	206.53000
24.23000	196.73000
24.24000	175.92000
24.25000	164.12000
24.26000	163.32000
24.27000	163.52000
24.28000	157.72000
24.29000	156.92000
24.30000	158.13000
24.31000	153.33000
24.32000	141.53000
24.33000	144.73000
24.34000	157.94000
24.35000	156.14000
24.36000	158.34000
24.37000	162.55000
24.38000	165.75000
24.39000	158.96000
24.40000	160.16000
24.41000	160.37000
24.42000	156.58000
24.43000	157.78000
24.44000	149.99000
24.45000	141.20000
24.46000	147.41000
24.47000	162.62000
24.48000	166.83000
24.49000	155.04000
24.50000	152.25000
24.51000	152.46000
24.52000	157.67000
24.53000	165.88000
24.54000	164.10000
24.55000	163.31000
24.56000	173.52000
24.57000	179.74000
24.58000	175.95000
24.59000	180.16000
24.60000	182.38000
24.61000	190.60000
24.62000	199.81000
24.63000	203.03000
24.64000	201.24000
24.65000	214.46000
24.66000	237.68000
24.67000	257.90000
24.68000	269.12000
24.69000	286.34000
24.70000	308.56000
24.71000	329.78000
24.72000	383.00000
24.73000	407.22000
24.74000	432.44000
24.75000	474.66000
24.76000	519.88000
24.77000	569.11000
24.78000	623.33000
24.79000	687.55000
24.80000	737.78000
24.81000	793.00000
24.82000	876.23000
24.83000	957.45000
24.84000	1027.68000
24.85000	1108.90000
24.86000	1181.13000
24.87000	1237.36000
24.88000	1322.59000
24.89000	1384.81000
24.90000	1444.04000
24.91000	1534.27000
24.92000	1615.50000
24.93000	1673.73000
24.94000	1716.96000
24.95000	1752.19000
24.96000	1781.43000
24.97000	1798.66000
24.98000	1809.89000
24.99000	1829.12000
25.00000	1856.35000
25.01000	1853.59000
25.02000	1831.82000
25.03000	1811.06000
25.04000	1789.29000
25.05000	1753.53000
25.06000	1707.76000
25.07000	1666.00000
25.08000	1616.24000
25.09000	1564.47000
25.10000	1495.71000
25.11000	1438.95000
25.12000	1389.19000
25.13000	1326.43000
25.14000	1268.67000
25.15000	1209.91000
25.16000	1161.15000
25.17000	1088.39000
25.18000	1025.63000
25.19000	953.87000
25.20000	901.11000
25.21000	851.35000
25.22000	803.60000
25.23000	749.84000
25.24000	697.08000
25.25000	652.33000
25.26000	610.57000
25.27000	581.82000
25.28000	556.06000
25.29000	522.31000
25.30000	487.55000
25.31000	460.80000
25.32000	446.05000
25.33000	432.30000
25.34000	413.54000
25.35000	379.79000
25.36000	348.04000
25.37000	336.29000
25.38000	332.54000
25.39000	325.79000
25.40000	314.04000
25.41000	297.29000
25.42000	291.54000
25.43000	291.80000
25.44000	298.05000
25.45000	293.30000
25.46000	280.55000
25.47000	282.81000
25.48000	280.06000
25.49000	277.32000
25.50000	293.57000
25.51000	303.83000
25.52000	302.08000
25.53000	312.34000
25.54000	314.59000
25.55000	324.85000
25.56000	337.11000
25.57000	358.37000
25.58000	367.62000
25.59000	372.88000
25.60000	392.14000
25.61000	420.40000
25.62000	446.66000
25.63000	458.92000
25.64000	479.18000
25.65000	501.44000
25.66000	513.70000
25.67000	513.97000
25.68000	516.23000
25.69000	531.49000
25.70000	559.75000
25.71000	598.02000
25.72000	615.28000
25.73000	625.54000
25.74000	636.81000
25.75000	641.07000
25.76000	639.34000
25.77000	634.61000
25.78000	629.87000
25.79000	630.14000
25.80000	647.41000
25.81000	653.67000
25.82000	646.94000
25.83000	636.21000
25.84000	627.48000
25.85000	611.75000
25.86000	583.02000
25.87000	560.29000
25.88000	566.56000
25.89000	555.83000
25.90000	531.10000
25.91000	511.37000
25.92000	492.64000
25.93000	480.91000
25.94000	463.18000
25.95000	453.46000
25.96000	446.73000
25.97000	430.00000
25.98000	419.28000
25.99000	406.55000
26.00000	390.83000
26.01000	375.10000
26.02000	357.38000
26.03000	343.65000
26.04000	333.93000
26.05000	317.21000
26.06000	302.48000
26.07000	297.76000
26.08000	299.04000
26.09000	288.32000
26.10000	280.59000
26.11000	281.87000
26.12000	280.15000
26.13000	273.43000
26.14000	260.71000
26.15000	251.99000
26.16000	253.27000
26.17000	237.55000
26.18000	236.84000
26.19000	235.12000
26.20000	227.40000
26.21000	218.68000
26.22000	210.96000
26.23000	199.25000
26.24000	201.53000
26.25000	214.81000
26.26000	212.10000
26.27000	205.38000
26.28000	196.67000
26.29000	189.95000
26.30000	180.24000
26.31000	174.52000
26.32000	171.81000
26.33000	170.10000
26.34000	174.38000
26.35000	167.67000
26.36000	165.96000
26.37000	170.25000
26.38000	152.53000
26.39000	139.82000
26.40000	148.11000
26.41000	151.40000
26.42000	141.69000
26.43000	137.98000
26.44000	131.27000
26.45000	136.56000
26.46000	140.85000
26.47000	136.14000
26.48000	135.43000
26.49000	137.73000
26.50000	132.02000
26.51000	115.31000
26.52000	117.60000
26.53000	116.90000
26.54000	111.19000
26.55000	109.48000
26.56000	109.78000
26.57000	106.07000
26.58000	109.37000
26.59000	113.66000
26.60000	123.96000
26.61000	120.25000
26.62000	110.55000
26.63000	115.84000
26.64000	122.14000
26.65000	121.44000
26.66000	123.74000
26.67000	117.03000
26.68000	123.33000
26.69000	127.63000
26.70000	122.93000
26.71000	120.22000
26.72000	118.52000
26.73000	118.82000
26.74000	117.12000
26.75000	115.42000
26.76000	118.72000
26.77000	125.02000
26.78000	133.32000
26.79000	120.62000
26.80000	110.92000
26.81000	117.23000
26.82000	122.53000
26.83000	116.83000
26.84000	119.13000
26.85000	117.43000
26.86000	113.74000
26.87000	116.04000
26.88000	119.34000
26.89000	122.65000
26.90000	123.95000
26.91000	125.25000
26.92000	128.56000
26.93000	125.86000
26.94000	115.17000
26.95000	117.47000
26.96000	120.78000
26.97000	129.08000
26.98000	135.39000
26.99000	123.70000
27.00000	113.00000
27.01000	107.31000
27.02000	110.62000
27.03000	114.92000
27.04000	114.23000
27.05000	107.54000
27.06000	113.85000
27.07000	118.15000
27.08000	115.46000
27.09000	119.77000
27.10000	123.08000
27.11000	113.39000
27.12000	109.70000
27.13000	109.01000
27.14000	108.32000
27.15000	109.63000
27.16000	118.94000
27.17000	115.25000
27.18000	118.56000
27.19000	120.87000
27.20000	121.18000
27.21000	121.49000
27.22000	116.80000
27.23000	118.11000
27.24000	127.42000
27.25000	132.74000
27.26000	128.05000
27.27000	119.36000
27.28000	111.67000
27.29000	122.99000
27.30000	122.30000
27.31000	117.61000
27.32000	130.93000
27.33000	133.24000
27.34000	132.55000
27.35000	134.87000
27.36000	139.18000
27.37000	137.49000
27.38000	129.81000
27.39000	127.12000
27.40000	126.44000
27.41000	131.75000
27.42000	133.07000
27.43000	131.38000
27.44000	123.70000
27.45000	117.02000
27.46000	121.33000
27.47000	119.65000
27.48000	118.96000
27.49000	117.28000
27.50000	113.60000
27.51000	114.91000
27.52000	128.23000
27.53000	127.55000
27.54000	114.86000
27.55000	110.18000
27.56000	122.50000
27.57000	129.82000
27.58000	129.13000
27.59000	123.45000
27.60000	119.77000
27.61000	118.09000
27.62000	109.41000
27.63000	110.72000
27.64000	110.04000
27.65000	108.36000
27.66000	97.68000
27.67000	103.00000
27.68000	120.32000
27.69000	119.64000
27.70000	121.96000
27.71000	135.28000
27.72000	137.60000
27.73000	137.92000
27.74000	141.24000
27.75000	145.56000
27.76000	149.88000
27.77000	150.20000
27.78000	154.52000
27.79000	155.84000
27.80000	164.16000
27.81000	177.48000
27.82000	179.80000
27.83000	187.12000
27.84000	195.44000
27.85000	204.76000
27.86000	214.08000
27.87000	227.40000
27.88000	241.72000
27.89000	258.04000
27.90000	265.37000
27.91000	284.69000
27.92000	319.01000
27.93000	348.33000
27.94000	365.65000
27.95000	395.97000
27.96000	430.30000
27.97000	462.62000
27.98000	502.94000
27.99000	558.26000
28.00000	603.58000
28.01000	636.90000
28.02000	675.23000
28.03000	709.55000
28.04000	734.87000
28.05000	778.19000
28.06000	825.52000
28.07000	870.84000
28.08000	926.16000
28.09000	948.48000
28.10000	965.81000
28.11000	994.13000
28.12000	1019.45000
28.13000	1046.77000
28.14000	1050.10000
28.15000	1053.42000
28.16000	1072.74000
28.17000	1095.06000
28.18000	1113.39000
28.19000	1101.71000
28.20000	1082.03000
28.21000	1069.35000
28.22000	1059.68000
28.23000	1032.00000
28.24000	1008.32000
28.25000	981.64000
28.26000	948.97000
28.27000	919.29000
28.28000	896.61000
28.29000	868.94000
28.30000	841.26000
28.31000	807.58000
28.32000	779.90000
28.33000	739.23000
28.34000	702.55000
28.35000	666.87000
28.36000	629.19000
28.37000	597.52000
28.38000	577.84000
28.39000	546.16000
28.40000	517.48000
28.41000	495.81000
28.42000	463.13000
28.43000	439.45000
28.44000	419.77000
28.45000	403.10000
28.46000	376.42000
28.47000	356.74000
28.48000	359.06000
28.49000	340.38000
28.50000	315.71000
28.51000	303.03000
28.52000	308.35000
28.53000	320.67000
28.54000	316.99000
28.55000	298.31000
28.56000	289.64000
28.57000	288.96000
28.58000	277.28000
28.59000	269.60000
28.60000	272.92000
28.61000	266.24000
28.62000	264.56000
28.63000	266.88000
28.64000	268.20000
28.65000	260.53000
28.66000	255.85000
28.67000	271.17000
28.68000	266.49000
28.69000	256.81000
28.70000	256.13000
28.71000	260.45000
28.72000	253.77000
28.73000	252.09000
28.74000	243.41000
28.75000	239.73000
28.76000	245.05000
28.77000	246.37000
28.78000	242.69000
28.79000	241.00000
28.80000	237.32000
28.81000	235.64000
28.82000	227.96000
28.83000	208.28000
28.84000	207.60000
28.85000	213.92000
28.86000	206.23000
28.87000	202.55000
28.88000	200.87000
28.89000	201.19000
28.90000	196.51000
28.91000	193.82000
28.92000	198.14000
28.93000	194.46000
28.94000	189.77000
28.95000	177.09000
28.96000	170.41000
28.97000	172.72000
28.98000	176.04000
28.99000	169.35000
29.00000	164.67000
29.01000	152.99000
29.02000	143.30000
29.03000	149.62000
29.04000	145.93000
29.05000	147.25000
29.06000	155.56000
29.07000	156.87000
29.08000	152.19000
29.09000	148.50000
29.10000	133.82000
29.11000	130.13000
29.12000	132.44000
29.13000	131.76000
29.14000	130.07000
29.15000	129.38000
29.16000	128.69000
29.17000	122.00000
29.18000	132.32000
29.19000	129.63000
29.20000	124.94000
29.21000	128.25000
29.22000	129.56000
29.23000	130.87000
29.24000	130.18000
29.25000	121.49000
29.26000	121.80000
29.27000	124.11000
29.28000	118.42000
29.29000	106.73000
29.30000	108.04000
29.31000	109.35000
29.32000	111.65000
29.33000	114.96000
29.34000	124.27000
29.35000	118.58000
29.36000	117.88000
29.37000	117.19000
29.38000	109.50000
29.39000	103.80000
29.40000	100.11000
29.41000	110.41000
29.42000	121.72000
29.43000	117.02000
29.44000	113.33000
29.45000	115.63000
29.46000	106.94000
29.47000	106.24000
29.48000	111.54000
29.49000	107.84000
29.50000	100.15000
29.51000	109.45000
29.52000	118.75000
29.53000	115.05000
29.54000	111.35000
29.55000	111.65000
29.56000	105.95000
29.57000	114.25000
29.58000	123.55000
29.59000	122.85000
29.60000	108.15000
29.61000	102.45000
29.62000	110.75000
29.63000	117.05000
29.64000	118.34000
29.65000	109.64000
29.66000	99.94000
29.67000	102.23000
29.68000	90.53000
29.69000	92.82000
29.70000	112.12000
29.71000	108.41000
29.72000	102.71000
29.73000	112.00000
29.74000	118.30000
29.75000	119.59000
29.76000	127.88000
29.77000	122.17000
29.78000	118.46000
29.79000	120.76000
29.80000	113.05000
29.81000	107.34000
29.82000	108.63000
29.83000	107.92000
29.84000	101.21000
29.85000	103.49000
29.86000	110.78000
29.87000	110.07000
29.88000	105.36000
29.89000	92.64000
29.90000	95.93000
29.91000	105.22000
29.92000	117.50000
29.93000	123.79000
29.94000	122.07000
29.95000	120.35000
29.96000	109.64000
29.97000	109.92000
29.98000	112.20000
29.99000	110.48000
30.00000	103.77000
30.01000	102.05000
30.02000	108.33000
30.03000	106.61000
30.04000	102.89000
30.05000	106.17000
30.06000	111.44000
30.07000	104.72000
30.08000	101.00000
30.09000	111.28000
30.10000	113.55000
30.11000	111.83000
30.12000	113.10000
30.13000	120.38000
30.14000	121.65000
30.15000	116.92000
30.16000	118.20000
30.17000	119.47000
30.18000	122.74000
30.19000	112.01000
30.20000	120.28000
30.21000	125.55000
30.22000	120.82000
30.23000	120.09000
30.24000	110.36000
30.25000	109.63000
30.26000	117.90000
30.27000	130.16000
30.28000	135.43000
30.29000	124.69000
30.30000	119.96000
30.31000	115.22000
30.32000	113.49000
30.33000	118.75000
30.34000	114.01000
30.35000	119.27000
30.36000	117.53000
30.37000	118.79000
30.38000	122.05000
30.39000	118.31000
30.40000	112.57000
30.41000	110.83000
30.42000	111.09000
30.43000	107.34000
30.44000	115.60000
30.45000	121.86000
30.46000	114.11000
30.47000	115.36000
30.48000	116.62000
30.49000	122.87000
30.50000	131.12000
30.51000	125.37000
30.52000	122.62000
30.53000	117.87000
30.54000	111.12000
30.55000	114.37000
30.56000	118.62000
30.57000	120.87000
30.58000	127.11000
30.59000	130.36000
30.60000	132.60000
30.61000	134.85000
30.62000	137.09000
30.63000	128.33000
30.64000	125.58000
30.65000	125.82000
30.66000	133.06000
30.67000	132.30000
30.68000	126.54000
30.69000	129.77000
30.70000	140.01000
30.71000	147.25000
30.72000	149.49000
30.73000	145.72000
30.74000	153.96000
30.75000	151.19000
30.76000	152.42000
30.77000	154.65000
30.78000	161.89000
30.79000	172.12000
30.80000	178.35000
30.81000	190.57000
30.82000	201.80000
30.83000	206.03000
30.84000	221.26000
30.85000	232.48000
30.86000	233.71000
30.87000	242.93000
30.88000	262.16000
30.89000	272.38000
30.90000	284.60000
30.91000	301.82000
30.92000	325.04000
30.93000	333.26000
30.94000	337.48000
30.95000	349.70000
30.96000	358.91000
30.97000	377.13000
30.98000	391.34000
30.99000	409.56000
31.00000	427.77000
31.01000	440.98000
31.02000	457.19000
31.03000	462.40000
31.04000	454.61000
31.05000	460.82000
31.06000	470.03000
31.07000	477.24000
31.08000	480.44000
31.09000	482.65000
31.10000	488.85000
31.11000	476.06000
31.12000	471.26000
31.13000	480.46000
31.14000	478.66000
31.15000	460.86000
31.16000	446.06000
31.17000	450.26000
31.18000	440.45000
31.19000	428.65000
31.20000	407.85000
31.21000	397.04000
31.22000	390.23000
31.23000	383.42000
31.24000	364.62000
31.25000	354.81000
31.26000	352.99000
31.27000	341.18000
31.28000	334.37000
31.29000	324.56000
31.30000	316.74000
31.31000	306.93000
31.32000	297.11000
31.33000	297.29000
31.34000	287.47000
31.35000	282.65000
31.36000	275.83000
31.37000	269.01000
31.38000	267.19000
31.39000	258.36000
31.40000	256.54000
31.41000	262.71000
31.42000	276.89000
31.43000	276.06000
31.44000	273.23000
31.45000	278.40000
31.46000	278.57000
31.47000	283.73000
31.48000	301.90000
31.49000	299.07000
31.50000	292.23000
31.51000	294.39000
31.52000	296.56000
31.53000	305.72000
31.54000	316.88000
31.55000	321.04000
31.56000	317.19000
31.57000	320.35000
31.58000	322.51000
31.59000	325.66000
31.60000	322.82000
31.61000	314.97000
31.62000	319.12000
31.63000	317.27000
31.64000	314.42000
31.65000	319.57000
31.66000	303.71000
31.67000	301.86000
31.68000	302.00000
31.69000	298.15000
31.70000	287.29000
31.71000	271.43000
31.72000	266.57000
31.73000	276.71000
31.74000	273.84000
31.75000	267.98000
31.76000	261.11000
31.77000	255.25000
31.78000	245.38000
31.79000	240.51000
31.80000	237.64000
31.81000	230.77000
31.82000	223.90000
31.83000	229.03000
31.84000	218.15000
31.85000	211.27000
31.86000	205.40000
31.87000	201.52000
31.88000	201.64000
31.89000	202.76000
31.90000	206.88000
31.91000	200.99000
31.92000	189.11000
31.93000	186.22000
31.94000	188.33000
31.95000	187.45000
31.96000	186.56000
31.97000	181.67000
31.98000	187.77000
31.99000	191.88000
32.00000	184.98000
32.01000	181.09000
32.02000	180.19000
32.03000	194.29000
32.04000	196.39000
32.05000	194.49000
32.06000	189.59000
32.07000	184.68000
32.08000	177.78000
32.09000	179.87000
32.10000	185.96000
32.11000	179.05000
32.12000	169.14000
32.13000	171.23000
32.14000	177.32000
32.15000	177.40000
32.16000	169.48000
32.17000	158.57000
32.18000	165.65000
32.19000	178.73000
32.20000	175.80000
32.21000	171.88000
32.22000	172.96000
32.23000	169.03000
32.24000	166.10000
32.25000	166.17000
32.26000	158.24000
32.27000	159.31000
32.28000	155.38000
32.29000	147.44000
32.30000	143.51000
32.31000	141.57000
32.32000	144.63000
32.33000	142.69000
32.34000	135.75000
32.35000	123.80000
32.36000	117.86000
32.37000	117.91000
32.38000	118.97000
32.39000	124.02000
32.40000	127.07000
32.41000	125.11000
32.42000	126.16000
32.43000	128.20000
32.44000	120.25000
32.45000	121.29000
32.46000	122.33000
32.47000	121.37000
32.48000	121.40000
32.49000	118.44000
32.50000	117.47000
32.51000	117.51000
32.52000	117.54000
32.53000	112.57000
32.54000	105.59000
32.55000	106.62000
32.56000	116.65000
32.57000	127.67000
32.58000	132.69000
32.59000	124.71000
32.60000	114.73000
32.61000	102.75000
32.62000	98.76000
32.63000	104.77000
32.64000	119.79000
32.65000	115.80000
32.66000	106.81000
32.67000	115.81000
32.68000	116.82000
32.69000	116.82000
32.70000	122.82000
32.71000	115.83000
32.72000	114.82000
32.73000	122.82000
32.74000	122.82000
32.75000	111.81000
32.76000	122.80000
32.77000	127.79000
32.78000	124.78000
32.79000	125.77000
32.80000	118.76000
32.81000	111.74000
32.82000	118.72000
32.83000	123.70000
32.84000	123.68000
32.85000	125.66000
32.86000	122.63000
32.87000	123.61000
32.88000	125.58000
32.89000	129.55000
32.90000	126.52000
32.91000	130.49000
32.92000	133.45000
32.93000	132.41000
32.94000	133.37000
32.95000	132.33000
32.96000	140.29000
32.97000	149.25000
32.98000	140.20000
32.99000	129.16000
33.00000	127.11000
