5.04940	1586.00000
5.06250	1532.00000
5.07570	1485.00000
5.08880	1576.00000
5.10190	1550.00000
5.11510	1616.00000
5.12820	1645.00000
5.14130	1607.00000
5.15450	1580.00000
5.16760	1538.00000
5.18070	1658.00000
5.19380	1556.00000
5.20700	1581.00000
5.22010	1535.00000
5.23320	1622.00000
5.24640	1572.00000
5.25950	1629.00000
5.27260	1571.00000
5.28580	1570.00000
5.29890	1599.00000
5.31200	1619.00000
5.32510	1628.00000
5.33830	1553.00000
5.35140	1568.00000
5.36450	1580.00000
5.37770	1587.00000
5.39080	1528.00000
5.40390	1531.00000
5.41710	1620.00000
5.43020	1589.00000
5.44330	1558.00000
5.45640	1647.00000
5.46960	1579.00000
5.48270	1534.00000
5.49580	1597.00000
5.50900	1553.00000
5.52210	1565.00000
5.53520	1567.00000
5.54840	1576.00000
5.56150	1564.00000
5.57460	1576.00000
5.58770	1554.00000
5.60090	1566.00000
5.61400	1599.00000
5.62710	1591.00000
5.64030	1569.00000
5.65340	1601.00000
5.66650	1579.00000
5.67970	1595.00000
5.69280	1641.00000
5.70590	1550.00000
5.71900	1616.00000
5.73220	1618.00000
5.74530	1558.00000
5.75840	1670.00000
5.77160	1601.00000
5.78470	1650.00000
5.79780	1579.00000
5.81100	1575.00000
5.82410	1591.00000
5.83720	1626.00000
5.85030	1622.00000
5.86350	1663.00000
5.87660	1661.00000
5.88970	1575.00000
5.90290	1679.00000
5.91600	1599.00000
5.92910	1601.00000
5.94230	1614.00000
5.95540	1615.00000
5.96850	1636.00000
5.98160	1580.00000
5.99480	1570.00000
6.00790	1606.00000
6.02100	1667.00000
6.03420	1626.00000
6.04730	1637.00000
6.06040	1633.00000
6.07360	1581.00000
6.08670	1539.00000
6.09980	1547.00000
6.11290	1649.00000
6.12610	1641.00000
6.13920	1603.00000
6.15230	1616.00000
6.16550	1655.00000
6.17860	1616.00000
6.19170	1602.00000
6.20490	1594.00000
6.21800	1575.00000
6.23110	1529.00000
6.24420	1573.00000
6.25740	1650.00000
6.27050	1534.00000
6.28360	1666.00000
6.29680	1568.00000
6.30990	1558.00000
6.32300	1610.00000
6.33620	1557.00000
6.34930	1644.00000
6.36240	1598.00000
6.37550	1461.00000
6.38870	1648.00000
6.40180	1601.00000
6.41490	1556.00000
6.42810	1647.00000
6.44120	1637.00000
6.45430	1483.00000
6.46750	1602.00000
6.48060	1563.00000
6.49370	1585.00000
6.50680	1555.00000
6.52000	1591.00000
6.53310	1576.00000
6.54620	1586.00000
6.55940	1575.00000
6.57250	1585.00000
6.58560	1558.00000
6.59880	1630.00000
6.61190	1557.00000
6.62500	1571.00000
6.63810	1560.00000
6.65130	1552.00000
6.66440	1568.00000
6.67750	1600.00000
6.69070	1537.00000
6.70380	1614.00000
6.71690	1587.00000
6.73010	1616.00000
6.74320	1631.00000
6.75630	1544.00000
6.76940	1519.00000
6.78260	1585.00000
6.79570	1534.00000
6.80880	1536.00000
6.82200	1584.00000
6.83510	1538.00000
6.84820	1613.00000
6.86140	1582.00000
6.87450	1555.00000
6.88760	1585.00000
6.90070	1458.00000
6.91390	1572.00000
6.92700	1521.00000
6.94010	1520.00000
6.95330	1504.00000
6.96640	1590.00000
6.97950	1583.00000
6.99270	1606.00000
7.00580	1590.00000
7.01890	1504.00000
7.03200	1481.00000
7.04520	1486.00000
7.05830	1503.00000
7.07140	1557.00000
7.08460	1521.00000
7.09770	1473.00000
7.11080	1530.00000
7.12400	1495.00000
7.13710	1478.00000
7.15020	1527.00000
7.16330	1537.00000
7.17650	1534.00000
7.18960	1498.00000
7.20270	1570.00000
7.21590	1500.00000
7.22900	1561.00000
7.24210	1584.00000
7.25530	1557.00000
7.26840	1529.00000
7.28150	1546.00000
7.29460	1558.00000
7.30780	1519.00000
7.32090	1451.00000
7.33400	1506.00000
7.34720	1550.00000
7.36030	1541.00000
7.37340	1469.00000
7.38660	1558.00000
7.39970	1505.00000
7.41280	1543.00000
7.42590	1511.00000
7.43910	1526.00000
7.45220	1458.00000
7.46530	1493.00000
7.47850	1560.00000
7.49160	1473.00000
7.50470	1470.00000
7.51790	1504.00000
7.53100	1499.00000
7.54410	1492.00000
7.55720	1496.00000
7.57040	1553.00000
7.58350	1489.00000
7.59660	1429.00000
7.60980	1490.00000
7.62290	1486.00000
7.63600	1568.00000
7.64920	1498.00000
7.66230	1562.00000
7.67540	1517.00000
7.68850	1549.00000
7.70170	1527.00000
7.71480	1580.00000
7.72790	1590.00000
7.74110	1508.00000
7.75420	1440.00000
7.76730	1562.00000
7.78050	1517.00000
7.79360	1495.00000
7.80670	1504.00000
7.81980	1496.00000
7.83300	1548.00000
7.84610	1455.00000
7.85920	1451.00000
7.87240	1465.00000
7.88550	1451.00000
7.89860	1590.00000
7.91180	1501.00000
7.92490	1534.00000
7.93800	1487.00000
7.95110	1532.00000
7.96430	1507.00000
7.97740	1510.00000
7.99050	1601.00000
8.00370	1534.00000
8.01680	1421.00000
8.02990	1489.00000
8.04310	1520.00000
8.05620	1478.00000
8.06930	1466.00000
8.08240	1499.00000
8.09560	1458.00000
8.10870	1497.00000
8.12180	1504.00000
8.13500	1504.00000
8.14810	1529.00000
8.16120	1557.00000
8.17440	1475.00000
8.18750	1529.00000
8.20060	1493.00000
8.21370	1446.00000
8.22690	1521.00000
8.24000	1517.00000
8.25310	1462.00000
8.26630	1541.00000
8.27940	1482.00000
8.29250	1518.00000
8.30570	1586.00000
8.31880	1524.00000
8.33190	1571.00000
8.34500	1596.00000
8.35820	1607.00000
8.37130	1725.00000
8.38440	1690.00000
8.39760	1798.00000
8.41070	1927.00000
8.42380	2155.00000
8.43700	2252.00000
8.45010	2535.00000
8.46320	2748.00000
8.47630	3163.00000
8.48950	3421.00000
8.50260	3517.00000
8.51570	3638.00000
8.52890	3235.00000
8.54200	2835.00000
8.55510	2516.00000
8.56830	2124.00000
8.58140	1889.00000
8.59450	1649.00000
8.60760	1606.00000
8.62080	1588.00000
8.63390	1607.00000
8.64700	1523.00000
8.66020	1541.00000
8.67330	1616.00000
8.68640	1562.00000
8.69960	1531.00000
8.71270	1524.00000
8.72580	1493.00000
8.73890	1416.00000
8.75210	1482.00000
8.76520	1514.00000
8.77830	1470.00000
8.79150	1401.00000
8.80460	1529.00000
8.81770	1498.00000
8.83090	1492.00000
8.84400	1440.00000
8.85710	1505.00000
8.87020	1468.00000
8.88340	1402.00000
8.89650	1443.00000
8.90960	1391.00000
8.92280	1416.00000
8.93590	1532.00000
8.94900	1445.00000
8.96220	1417.00000
8.97530	1491.00000
8.98840	1430.00000
9.00150	1421.00000
9.01470	1462.00000
9.02780	1484.00000
9.04090	1444.00000
9.05410	1509.00000
9.06720	1502.00000
9.08030	1401.00000
9.09350	1472.00000
9.10660	1520.00000
9.11970	1508.00000
9.13280	1552.00000
9.14600	1571.00000
9.15910	1562.00000
9.17220	1533.00000
9.18540	1547.00000
9.19850	1645.00000
9.21160	1526.00000
9.22480	1581.00000
9.23790	1583.00000
9.25100	1581.00000
9.26410	1465.00000
9.27730	1567.00000
9.29040	1521.00000
9.30350	1510.00000
9.31670	1471.00000
9.32980	1531.00000
9.34290	1492.00000
9.35610	1512.00000
9.36920	1478.00000
9.38230	1502.00000
9.39540	1618.00000
9.40860	1616.00000
9.42170	1736.00000
9.43480	1693.00000
9.44800	1844.00000
9.46110	1979.00000
9.47420	2153.00000
9.48740	2384.00000
9.50050	2692.00000
9.51360	3197.00000
9.52670	3707.00000
9.53990	4273.00000
9.55300	4826.00000
9.56610	5203.00000
9.57930	5052.00000
9.59240	4737.00000
9.60550	4217.00000
9.61870	3661.00000
9.63180	2894.00000
9.64490	2513.00000
9.65800	2217.00000
9.67120	1922.00000
9.68430	1807.00000
9.69740	1751.00000
9.71060	1601.00000
9.72370	1671.00000
9.73680	1529.00000
9.75000	1630.00000
9.76310	1545.00000
9.77620	1497.00000
9.78930	1517.00000
9.80250	1511.00000
9.81560	1571.00000
9.82870	1549.00000
9.84190	1461.00000
9.85500	1433.00000
9.86810	1392.00000
9.88130	1434.00000
9.89440	1418.00000
9.90750	1442.00000
9.92060	1461.00000
9.93380	1522.00000
9.94690	1475.00000
9.96000	1483.00000
9.97320	1416.00000
9.98630	1459.00000
9.99940	1423.00000
10.01260	1428.00000
10.02570	1419.00000
10.03880	1454.00000
10.05190	1455.00000
10.06510	1401.00000
10.07820	1450.00000
10.09130	1454.00000
10.10450	1389.00000
10.11760	1432.00000
10.13070	1412.00000
10.14390	1421.00000
10.15700	1442.00000
10.17010	1404.00000
10.18320	1431.00000
10.19640	1456.00000
10.20950	1392.00000
10.22260	1374.00000
10.23580	1426.00000
10.24890	1421.00000
10.26200	1419.00000
10.27520	1454.00000
10.28830	1409.00000
10.30140	1431.00000
10.31450	1455.00000
10.32770	1426.00000
10.34080	1469.00000
10.35390	1458.00000
10.36710	1388.00000
10.38020	1434.00000
10.39330	1449.00000
10.40650	1395.00000
10.41960	1412.00000
10.43270	1413.00000
10.44580	1465.00000
10.45900	1426.00000
10.47210	1440.00000
10.48520	1442.00000
10.49840	1403.00000
10.51150	1356.00000
10.52460	1449.00000
10.53780	1382.00000
10.55090	1422.00000
10.56400	1391.00000
10.57710	1391.00000
10.59030	1413.00000
10.60340	1340.00000
10.61650	1492.00000
10.62970	1432.00000
10.64280	1430.00000
10.65590	1462.00000
10.66910	1462.00000
10.68220	1404.00000
10.69530	1477.00000
10.70840	1392.00000
10.72160	1385.00000
10.73470	1419.00000
10.74780	1406.00000
10.76100	1353.00000
10.77410	1351.00000
10.78720	1427.00000
10.80040	1412.00000
10.81350	1479.00000
10.82660	1482.00000
10.83970	1417.00000
10.85290	1433.00000
10.86600	1537.00000
10.87910	1508.00000
10.89230	1529.00000
10.90540	1603.00000
10.91850	1588.00000
10.93170	1647.00000
10.94480	1723.00000
10.95790	1727.00000
10.97100	1739.00000
10.98420	1705.00000
10.99730	1660.00000
11.01040	1584.00000
11.02360	1562.00000
11.03670	1476.00000
11.04980	1443.00000
11.06300	1348.00000
11.07610	1462.00000
11.08920	1470.00000
11.10230	1561.00000
11.11550	1416.00000
11.12860	1410.00000
11.14170	1382.00000
11.15490	1396.00000
11.16800	1489.00000
11.18110	1410.00000
11.19430	1403.00000
11.20740	1472.00000
11.22050	1480.00000
11.23360	1462.00000
11.24680	1469.00000
11.25990	1443.00000
11.27300	1450.00000
11.28620	1488.00000
11.29930	1495.00000
11.31240	1574.00000
11.32560	1516.00000
11.33870	1625.00000
11.35180	1661.00000
11.36490	1654.00000
11.37810	1712.00000
11.39120	1870.00000
11.40430	2011.00000
11.41750	2193.00000
11.43060	2390.00000
11.44370	2401.00000
11.45690	2547.00000
11.47000	2687.00000
11.48310	2807.00000
11.49620	2758.00000
11.50940	2871.00000
11.52250	2836.00000
11.53560	2795.00000
11.54880	2553.00000
11.56190	2478.00000
11.57500	2163.00000
11.58820	1925.00000
11.60130	1729.00000
11.61440	1626.00000
11.62750	1515.00000
11.64070	1454.00000
11.65380	1499.00000
11.66690	1438.00000
11.68010	1401.00000
11.69320	1442.00000
11.70630	1416.00000
11.71950	1462.00000
11.73260	1470.00000
11.74570	1415.00000
11.75880	1380.00000
11.77200	1375.00000
11.78510	1418.00000
11.79820	1327.00000
11.81140	1386.00000
11.82450	1378.00000
11.83760	1383.00000
11.85080	1416.00000
11.86390	1420.00000
11.87700	1381.00000
11.89010	1416.00000
11.90330	1418.00000
11.91640	1412.00000
11.92950	1387.00000
11.94270	1453.00000
11.95580	1384.00000
11.96890	1405.00000
11.98210	1396.00000
11.99520	1398.00000
12.00830	1430.00000
12.02140	1408.00000
12.03460	1480.00000
12.04770	1342.00000
12.06080	1436.00000
12.07400	1349.00000
12.08710	1361.00000
12.10020	1455.00000
12.11340	1388.00000
12.12650	1405.00000
12.13960	1429.00000
12.15270	1422.00000
12.16590	1392.00000
12.17900	1358.00000
12.19210	1391.00000
12.20530	1421.00000
12.21840	1377.00000
12.23150	1467.00000
12.24470	1379.00000
12.25780	1432.00000
12.27090	1456.00000
12.28400	1437.00000
12.29720	1422.00000
12.31030	1356.00000
12.32340	1330.00000
12.33660	1403.00000
12.34970	1342.00000
12.36280	1326.00000
12.37600	1317.00000
12.38910	1342.00000
12.40220	1355.00000
12.41530	1299.00000
12.42850	1432.00000
12.44160	1409.00000
12.45470	1443.00000
12.46790	1377.00000
12.48100	1423.00000
12.49410	1420.00000
12.50730	1379.00000
12.52040	1418.00000
12.53350	1373.00000
12.54660	1367.00000
12.55980	1446.00000
12.57290	1374.00000
12.58600	1334.00000
12.59920	1439.00000
12.61230	1374.00000
12.62540	1389.00000
12.63860	1418.00000
12.65170	1377.00000
12.66480	1404.00000
12.67790	1452.00000
12.69110	1330.00000
12.70420	1323.00000
12.71730	1394.00000
12.73050	1370.00000
12.74360	1368.00000
12.75670	1377.00000
12.76990	1318.00000
12.78300	1371.00000
12.79610	1363.00000
12.80920	1451.00000
12.82240	1372.00000
12.83550	1406.00000
12.84860	1434.00000
12.86180	1366.00000
12.87490	1430.00000
12.88800	1417.00000
12.90120	1456.00000
12.91430	1327.00000
12.92740	1396.00000
12.94050	1426.00000
12.95370	1382.00000
12.96680	1423.00000
12.97990	1383.00000
12.99310	1428.00000
13.00620	1413.00000
13.01930	1422.00000
13.03250	1436.00000
13.04560	1415.00000
13.05870	1484.00000
13.07180	1380.00000
13.08500	1407.00000
13.09810	1432.00000
13.11120	1458.00000
13.12440	1385.00000
13.13750	1396.00000
13.15060	1469.00000
13.16380	1418.00000
13.17690	1458.00000
13.19000	1414.00000
13.20310	1431.00000
13.21630	1452.00000
13.22940	1472.00000
13.24250	1462.00000
13.25570	1472.00000
13.26880	1493.00000
13.28190	1468.00000
13.29510	1474.00000
13.30820	1530.00000
13.32130	1546.00000
13.33440	1541.00000
13.34760	1639.00000
13.36070	1594.00000
13.37380	1705.00000
13.38700	1831.00000
13.40010	1855.00000
13.41320	2140.00000
13.42640	2231.00000
13.43950	2651.00000
13.45260	3076.00000
13.46570	3470.00000
13.47890	3975.00000
13.49200	4358.00000
13.50510	4670.00000
13.51830	4978.00000
13.53140	4920.00000
13.54450	4745.00000
13.55770	4628.00000
13.57080	4247.00000
13.58390	3840.00000
13.59700	3394.00000
13.61020	3038.00000
13.62330	2603.00000
13.63640	2325.00000
13.64960	2075.00000
13.66270	1905.00000
13.67580	1675.00000
13.68900	1635.00000
13.70210	1587.00000
13.71520	1557.00000
13.72830	1525.00000
13.74150	1507.00000
13.75460	1500.00000
13.76770	1597.00000
13.78090	1468.00000
13.79400	1469.00000
13.80710	1427.00000
13.82030	1521.00000
13.83340	1374.00000
13.84650	1551.00000
13.85960	1513.00000
13.87280	1481.00000
13.88590	1460.00000
13.89900	1511.00000
13.91220	1510.00000
13.92530	1421.00000
13.93840	1339.00000
13.95160	1433.00000
13.96470	1356.00000
13.97780	1407.00000
13.99090	1440.00000
14.00410	1467.00000
14.01720	1376.00000
14.03030	1423.00000
14.04350	1467.00000
14.05660	1398.00000
14.06970	1366.00000
14.08290	1360.00000
14.09600	1468.00000
14.10910	1422.00000
14.12220	1453.00000
14.13540	1394.00000
14.14850	1436.00000
14.16160	1424.00000
14.17480	1433.00000
14.18790	1485.00000
14.20100	1419.00000
14.21420	1457.00000
14.22730	1414.00000
14.24040	1462.00000
14.25350	1488.00000
14.26670	1394.00000
14.27980	1453.00000
14.29290	1435.00000
14.30610	1417.00000
14.31920	1446.00000
14.33230	1478.00000
14.34550	1467.00000
14.35860	1508.00000
14.37170	1500.00000
14.38480	1539.00000
14.39800	1545.00000
14.41110	1527.00000
14.42420	1586.00000
14.43740	1533.00000
14.45050	1505.00000
14.46360	1518.00000
14.47680	1516.00000
14.48990	1556.00000
14.50300	1527.00000
14.51610	1529.00000
14.52930	1524.00000
14.54240	1534.00000
14.55550	1490.00000
14.56870	1494.00000
14.58180	1494.00000
14.59490	1527.00000
14.60810	1482.00000
14.62120	1537.00000
14.63430	1551.00000
14.64740	1471.00000
14.66060	1602.00000
14.67370	1621.00000
14.68680	1608.00000
14.70000	1649.00000
14.71310	1661.00000
14.72620	1674.00000
14.73940	1720.00000
14.75250	1776.00000
14.76560	1848.00000
14.77870	2021.00000
14.79190	2069.00000
14.80500	2326.00000
14.81810	2572.00000
14.83130	2974.00000
14.84440	3425.00000
14.85750	4150.00000
14.87070	5044.00000
14.88380	5853.00000
14.89690	6841.00000
14.91000	7934.00000
14.92320	8824.00000
14.93630	8939.00000
14.94940	8824.00000
14.96260	8245.00000
14.97570	7348.00000
14.98880	6444.00000
15.00200	5732.00000
15.01510	5414.00000
15.02820	5114.00000
15.04130	4940.00000
15.05450	4962.00000
15.06760	4911.00000
15.08070	4677.00000
15.09390	4299.00000
15.10700	3711.00000
15.12010	3190.00000
15.13330	2711.00000
15.14640	2447.00000
15.15950	2147.00000
15.17260	2062.00000
15.18580	1865.00000
15.19890	1784.00000
15.21200	1711.00000
15.22520	1667.00000
15.23830	1660.00000
15.25140	1668.00000
15.26460	1618.00000
15.27770	1547.00000
15.29080	1519.00000
15.30390	1501.00000
15.31710	1535.00000
15.33020	1571.00000
15.34330	1518.00000
15.35650	1500.00000
15.36960	1505.00000
15.38270	1470.00000
15.39590	1493.00000
15.40900	1518.00000
15.42210	1584.00000
15.43520	1547.00000
15.44840	1533.00000
15.46150	1494.00000
15.47460	1543.00000
15.48780	1518.00000
15.50090	1418.00000
15.51400	1455.00000
15.52720	1469.00000
15.54030	1444.00000
15.55340	1455.00000
15.56650	1464.00000
15.57970	1350.00000
15.59280	1476.00000
15.60590	1490.00000
15.61910	1464.00000
15.63220	1400.00000
15.64530	1422.00000
15.65850	1407.00000
15.67160	1497.00000
15.68470	1428.00000
15.69780	1499.00000
15.71100	1409.00000
15.72410	1460.00000
15.73720	1406.00000
15.75040	1551.00000
15.76350	1425.00000
15.77660	1457.00000
15.78980	1411.00000
15.80290	1446.00000
15.81600	1447.00000
15.82910	1428.00000
15.84230	1445.00000
15.85540	1474.00000
15.86850	1439.00000
15.88170	1406.00000
15.89480	1456.00000
15.90790	1475.00000
15.92110	1448.00000
15.93420	1509.00000
15.94730	1467.00000
15.96040	1410.00000
15.97360	1408.00000
15.98670	1430.00000
15.99980	1432.00000
16.01300	1474.00000
16.02610	1389.00000
16.03920	1471.00000
16.05240	1525.00000
16.06550	1487.00000
16.07860	1417.00000
16.09170	1498.00000
16.10490	1425.00000
16.11800	1442.00000
16.13110	1430.00000
16.14430	1410.00000
16.15740	1416.00000
16.17050	1452.00000
16.18370	1361.00000
16.19680	1440.00000
16.20990	1436.00000
16.22300	1421.00000
16.23620	1476.00000
16.24930	1452.00000
16.26240	1471.00000
16.27560	1543.00000
16.28870	1481.00000
16.30180	1489.00000
16.31500	1491.00000
16.32810	1488.00000
16.34120	1491.00000
16.35430	1464.00000
16.36750	1444.00000
16.38060	1522.00000
16.39370	1489.00000
16.40690	1539.00000
16.42000	1506.00000
16.43310	1508.00000
16.44630	1455.00000
16.45940	1469.00000
16.47250	1489.00000
16.48560	1479.00000
16.49880	1430.00000
16.51190	1487.00000
16.52500	1478.00000
16.53820	1544.00000
16.55130	1506.00000
16.56440	1446.00000
16.57760	1489.00000
16.59070	1520.00000
16.60380	1554.00000
16.61690	1539.00000
16.63010	1529.00000
16.64320	1520.00000
16.65630	1553.00000
16.66950	1563.00000
16.68260	1541.00000
16.69570	1504.00000
16.70890	1535.00000
16.72200	1595.00000
16.73510	1532.00000
16.74820	1565.00000
16.76140	1631.00000
16.77450	1519.00000
16.78760	1533.00000
16.80080	1620.00000
16.81390	1534.00000
16.82700	1594.00000
16.84020	1618.00000
16.85330	1640.00000
16.86640	1642.00000
16.87950	1679.00000
16.89270	1742.00000
16.90580	1763.00000
16.91890	1819.00000
16.93210	1860.00000
16.94520	2056.00000
16.95830	2159.00000
16.97150	2521.00000
16.98460	2734.00000
16.99770	3131.00000
17.01080	3740.00000
17.02400	4269.00000
17.03710	4752.00000
17.05020	5146.00000
17.06340	5560.00000
17.07650	5773.00000
17.08960	6024.00000
17.10280	6172.00000
17.11590	7072.00000
17.12900	7596.00000
17.14210	8333.00000
17.15530	8919.00000
17.16840	9000.00000
17.18150	8922.00000
17.19470	8078.00000
17.20780	6723.00000
17.22090	5613.00000
17.23410	4484.00000
17.24720	3633.00000
17.26030	2920.00000
17.27340	2605.00000
17.28660	2316.00000
17.29970	2099.00000
17.31280	2037.00000
17.32600	1977.00000
17.33910	1908.00000
17.35220	1887.00000
17.36540	1799.00000
17.37850	1792.00000
17.39160	1879.00000
17.40470	1761.00000
17.41790	1695.00000
17.43100	1783.00000
17.44410	1687.00000
17.45730	1709.00000
17.47040	1665.00000
17.48350	1701.00000
17.49670	1644.00000
17.50980	1680.00000
17.52290	1680.00000
17.53600	1646.00000
17.54920	1641.00000
17.56230	1692.00000
17.57540	1721.00000
17.58860	1645.00000
17.60170	1670.00000
17.61480	1676.00000
17.62800	1677.00000
17.64110	1683.00000
17.65420	1657.00000
17.66730	1664.00000
17.68050	1658.00000
17.69360	1668.00000
17.70670	1583.00000
17.71990	1687.00000
17.73300	1594.00000
17.74610	1646.00000
17.75930	1738.00000
17.77240	1769.00000
17.78550	1690.00000
17.79860	1760.00000
17.81180	1750.00000
17.82490	1717.00000
17.83800	1729.00000
17.85120	1717.00000
17.86430	1752.00000
17.87740	1798.00000
17.89060	1763.00000
17.90370	1847.00000
17.91680	1850.00000
17.92990	1923.00000
17.94310	1992.00000
17.95620	2025.00000
17.96930	2065.00000
17.98250	2238.00000
17.99560	2314.00000
18.00870	2557.00000
18.02190	2824.00000
18.03500	3089.00000
18.04810	3403.00000
18.06120	3323.00000
18.07440	3612.00000
18.08750	3582.00000
18.10060	3389.00000
18.11380	3342.00000
18.12690	2889.00000
18.14000	2754.00000
18.15320	2531.00000
18.16630	2294.00000
18.17940	2207.00000
18.19250	2230.00000
18.20570	2136.00000
18.21880	2053.00000
18.23190	2058.00000
18.24510	2118.00000
18.25820	2141.00000
18.27130	2152.00000
18.28450	2189.00000
18.29760	2312.00000
18.31070	2443.00000
18.32380	2560.00000
18.33700	2579.00000
18.35010	2885.00000
18.36320	3152.00000
18.37640	3628.00000
18.38950	3994.00000
18.40260	4681.00000
18.41580	5634.00000
18.42890	6544.00000
18.44200	7819.00000
18.45510	9282.00000
18.46830	10650.00000
18.48140	11652.00000
18.49450	11791.00000
18.50770	11645.00000
18.52080	10793.00000
18.53390	9336.00000
18.54710	7921.00000
18.56020	6432.00000
18.57330	5205.00000
18.58640	4172.00000
18.59960	3379.00000
18.61270	2935.00000
18.62580	2663.00000
18.63900	2463.00000
18.65210	2387.00000
18.66520	2274.00000
18.67840	2098.00000
18.69150	2159.00000
18.70460	2087.00000
18.71770	2143.00000
18.73090	2036.00000
18.74400	2055.00000
18.75710	2037.00000
18.77030	2062.00000
18.78340	2005.00000
18.79650	2027.00000
18.80970	2044.00000
18.82280	2097.00000
18.83590	2028.00000
18.84900	2185.00000
18.86220	2207.00000
18.87530	2264.00000
18.88840	2350.00000
18.90160	2508.00000
18.91470	2694.00000
18.92780	2963.00000
18.94100	3290.00000
18.95410	3739.00000
18.96720	4353.00000
18.98030	5136.00000
18.99350	5819.00000
19.00660	6454.00000
19.01970	6788.00000
19.03290	6988.00000
19.04600	7124.00000
19.05910	6940.00000
19.07230	6392.00000
19.08540	6013.00000
19.09850	5648.00000
19.11160	5203.00000
19.12480	5071.00000
19.13790	4922.00000
19.15100	4829.00000
19.16420	4882.00000
19.17730	4713.00000
19.19040	4845.00000
19.20360	4874.00000
19.21670	5102.00000
19.22980	5204.00000
19.24290	5442.00000
19.25610	5448.00000
19.26920	5356.00000
19.28230	5280.00000
19.29550	5001.00000
19.30860	4564.00000
19.32170	4250.00000
19.33490	3910.00000
19.34800	3649.00000
19.36110	3501.00000
19.37420	3463.00000
19.38740	3483.00000
19.40050	3544.00000
19.41360	3424.00000
19.42680	3481.00000
19.43990	3332.00000
19.45300	3078.00000
19.46620	2984.00000
19.47930	2748.00000
19.49240	2604.00000
19.50550	2458.00000
19.51870	2357.00000
19.53180	2117.00000
19.54490	2173.00000
19.55810	2007.00000
19.57120	2014.00000
19.58430	1988.00000
19.59750	1985.00000
19.61060	1895.00000
19.62370	1955.00000
19.63680	1895.00000
19.65000	1876.00000
19.66310	1861.00000
19.67620	1958.00000
19.68940	1854.00000
19.70250	1908.00000
19.71560	1881.00000
19.72880	1888.00000
19.74190	1814.00000
19.75500	1863.00000
19.76810	1852.00000
19.78130	1822.00000
19.79440	1794.00000
19.80750	1852.00000
19.82070	1931.00000
19.83380	1863.00000
19.84690	1809.00000
19.86010	1848.00000
19.87320	1794.00000
19.88630	1957.00000
19.89940	1872.00000
19.91260	1793.00000
19.92570	1840.00000
19.93880	1808.00000
19.95200	1845.00000
19.96510	1882.00000
19.97820	1907.00000
19.99140	1825.00000
20.00450	1851.00000
20.01760	1895.00000
20.03070	1899.00000
20.04390	1879.00000
20.05700	1836.00000
20.07010	1819.00000
20.08330	1789.00000
20.09640	1817.00000
20.10950	1861.00000
20.12270	1913.00000
20.13580	1827.00000
20.14890	1814.00000
20.16200	1847.00000
20.17520	1849.00000
20.18830	1861.00000
20.20140	1843.00000
20.21460	1869.00000
20.22770	1859.00000
20.24080	1946.00000
20.25400	1773.00000
20.26710	1872.00000
20.28020	1964.00000
20.29330	1901.00000
20.30650	1932.00000
20.31960	1882.00000
20.33270	1979.00000
20.34590	1824.00000
20.35900	1821.00000
20.37210	1851.00000
20.38530	1818.00000
20.39840	1840.00000
20.41150	1909.00000
20.42460	1807.00000
20.43780	1815.00000
20.45090	1882.00000
20.46400	1834.00000
20.47720	1919.00000
20.49030	1948.00000
20.50340	1923.00000
20.51660	1954.00000
20.52970	1985.00000
20.54280	1983.00000
20.55590	1987.00000
20.56910	2082.00000
20.58220	2060.00000
20.59530	2144.00000
20.60850	2368.00000
20.62160	2486.00000
20.63470	2682.00000
20.64790	2727.00000
20.66100	2695.00000
20.67410	2891.00000
20.68720	2851.00000
20.70040	2755.00000
20.71350	2586.00000
20.72660	2512.00000
20.73980	2405.00000
20.75290	2254.00000
20.76600	2128.00000
20.77920	2070.00000
20.79230	2090.00000
20.80540	2053.00000
20.81850	1976.00000
20.83170	1958.00000
20.84480	1932.00000
20.85790	1941.00000
20.87110	1950.00000
20.88420	1939.00000
20.89730	1928.00000
20.91050	1932.00000
20.92360	1913.00000
20.93670	1879.00000
20.94980	1876.00000
20.96300	1848.00000
20.97610	1960.00000
20.98920	1886.00000
21.00240	1905.00000
21.01550	1836.00000
21.02860	1882.00000
21.04180	1860.00000
21.05490	1926.00000
21.06800	1860.00000
21.08110	2000.00000
21.09430	1778.00000
21.10740	1857.00000
21.12050	1938.00000
21.13370	1817.00000
21.14680	1833.00000
21.15990	1904.00000
21.17310	1848.00000
21.18620	1860.00000
21.19930	1972.00000
21.21240	1919.00000
21.22560	1947.00000
21.23870	1889.00000
21.25180	1946.00000
21.26500	1888.00000
21.27810	1898.00000
21.29120	2023.00000
21.30440	1869.00000
21.31750	1957.00000
21.33060	1955.00000
21.34370	1893.00000
21.35690	1975.00000
21.37000	1968.00000
21.38310	1959.00000
21.39630	1970.00000
21.40940	2115.00000
21.42250	2291.00000
21.43570	2247.00000
21.44880	2430.00000
21.46190	2540.00000
21.47500	2624.00000
21.48820	2746.00000
21.50130	2868.00000
21.51440	2856.00000
21.52760	2922.00000
21.54070	2825.00000
21.55380	2916.00000
21.56700	2840.00000
21.58010	2801.00000
21.59320	2720.00000
21.60630	2662.00000
21.61950	2518.00000
21.63260	2423.00000
21.64570	2365.00000
21.65890	2486.00000
21.67200	2375.00000
21.68510	2432.00000
21.69830	2630.00000
21.71140	2649.00000
21.72450	2820.00000
21.73760	2856.00000
21.75080	2951.00000
21.76390	2962.00000
21.77700	2884.00000
21.79020	2764.00000
21.80330	2594.00000
21.81640	2552.00000
21.82960	2386.00000
21.84270	2309.00000
21.85580	2296.00000
21.86890	2232.00000
21.88210	2220.00000
21.89520	2207.00000
21.90830	2257.00000
21.92150	2400.00000
21.93460	2543.00000
21.94770	2698.00000
21.96090	3008.00000
21.97400	3464.00000
21.98710	3641.00000
22.00020	3929.00000
22.01340	4086.00000
22.02650	3992.00000
22.03960	3965.00000
22.05280	3712.00000
22.06590	3446.00000
22.07900	3123.00000
22.09220	2848.00000
22.10530	2643.00000
22.11840	2371.00000
22.13150	2254.00000
22.14470	2141.00000
22.15780	2089.00000
22.17090	2006.00000
22.18410	2083.00000
22.19720	1874.00000
22.21030	2023.00000
22.22350	1972.00000
22.23660	1894.00000
22.24970	1818.00000
22.26280	1934.00000
22.27600	1961.00000
22.28910	1948.00000
22.30220	1991.00000
22.31540	1985.00000
22.32850	1816.00000
22.34160	1898.00000
22.35480	1862.00000
22.36790	1851.00000
22.38100	1898.00000
22.39410	1933.00000
22.40730	1881.00000
22.42040	1900.00000
22.43350	1989.00000
22.44670	1988.00000
22.45980	1976.00000
22.47290	2029.00000
22.48610	2032.00000
22.49920	2182.00000
22.51230	2145.00000
22.52540	2251.00000
22.53860	2208.00000
22.55170	2204.00000
22.56480	2141.00000
22.57800	2150.00000
22.59110	2091.00000
22.60420	2092.00000
22.61740	2031.00000
22.63050	1969.00000
22.64360	1999.00000
22.65670	1958.00000
22.66990	1953.00000
22.68300	2050.00000
22.69610	1878.00000
22.70930	1836.00000
22.72240	1891.00000
22.73550	1849.00000
22.74870	1864.00000
22.76180	1848.00000
22.77490	1846.00000
22.78800	1849.00000
22.80120	1835.00000
22.81430	1892.00000
22.82740	1915.00000
22.84060	1896.00000
22.85370	1942.00000
22.86680	2024.00000
22.88000	2007.00000
22.89310	2079.00000
22.90620	2102.00000
22.91930	2202.00000
22.93250	2355.00000
22.94560	2397.00000
22.95870	2504.00000
22.97190	2567.00000
22.98500	2739.00000
22.99810	2701.00000
23.01130	2618.00000
23.02440	2604.00000
23.03750	2596.00000
23.05060	2507.00000
23.06380	2587.00000
23.07690	2433.00000
23.09000	2419.00000
23.10320	2340.00000
23.11630	2398.00000
23.12940	2327.00000
23.14260	2455.00000
23.15570	2414.00000
23.16880	2282.00000
23.18190	2344.00000
23.19510	2242.00000
23.20820	2205.00000
23.22130	2184.00000
23.23450	2113.00000
23.24760	2123.00000
23.26070	2071.00000
23.27390	2034.00000
23.28700	2034.00000
23.30010	2077.00000
23.31320	2194.00000
23.32640	2206.00000
23.33950	2352.00000
23.35260	2473.00000
23.36580	2613.00000
23.37890	2902.00000
23.39200	3163.00000
23.40520	3454.00000
23.41830	3516.00000
23.43140	3646.00000
23.44450	3616.00000
23.45770	3649.00000
23.47080	3328.00000
23.48390	3220.00000
23.49710	2883.00000
23.51020	2814.00000
23.52330	2631.00000
23.53650	2478.00000
23.54960	2332.00000
23.56270	2226.00000
23.57580	2229.00000
23.58900	2097.00000
23.60210	2072.00000
23.61520	2097.00000
23.62840	1976.00000
23.64150	1892.00000
23.65460	1906.00000
23.66780	1901.00000
23.68090	1898.00000
23.69400	1924.00000
23.70710	1803.00000
23.72030	1866.00000
23.73340	1825.00000
23.74650	1823.00000
23.75970	1741.00000
23.77280	1787.00000
23.78590	1710.00000
23.79910	1824.00000
23.81220	1853.00000
23.82530	1787.00000
23.83840	1752.00000
23.85160	1809.00000
23.86470	1757.00000
23.87780	1706.00000
23.89100	1709.00000
23.90410	1751.00000
23.91720	1727.00000
23.93040	1720.00000
23.94350	1655.00000
23.95660	1783.00000
23.96970	1689.00000
23.98290	1765.00000
23.99600	1711.00000
24.00910	1736.00000
24.02230	1641.00000
24.03540	1787.00000
24.04850	1706.00000
24.06170	1610.00000
24.07480	1685.00000
24.08790	1649.00000
24.10100	1623.00000
24.11420	1685.00000
24.12730	1827.00000
24.14040	1745.00000
24.15360	1601.00000
24.16670	1605.00000
24.17980	1678.00000
24.19300	1650.00000
24.20610	1736.00000
24.21920	1621.00000
24.23230	1754.00000
24.24550	1768.00000
24.25860	1758.00000
24.27170	1729.00000
24.28490	1672.00000
24.29800	1730.00000
24.31110	1688.00000
24.32430	1665.00000
24.33740	1651.00000
24.35050	1689.00000
24.36360	1640.00000
24.37680	1729.00000
24.38990	1678.00000
24.40300	1623.00000
24.41620	1620.00000
24.42930	1733.00000
24.44240	1714.00000
24.45560	1675.00000
24.46870	1652.00000
24.48180	1673.00000
24.49490	1687.00000
24.50810	1596.00000
24.52120	1608.00000
24.53430	1638.00000
24.54750	1631.00000
24.56060	1568.00000
24.57370	1708.00000
24.58690	1755.00000
24.60000	1615.00000
24.61310	1608.00000
24.62620	1572.00000
24.63940	1636.00000
24.65250	1603.00000
24.66560	1714.00000
24.67880	1717.00000
24.69190	1667.00000
24.70500	1660.00000
24.71820	1688.00000
24.73130	1714.00000
24.74440	1704.00000
24.75750	1733.00000
24.77070	1637.00000
24.78380	1628.00000
24.79690	1714.00000
24.81010	1739.00000
24.82320	1787.00000
24.83630	1744.00000
24.84950	1757.00000
24.86260	1790.00000
24.87570	1790.00000
24.88880	1855.00000
24.90200	1868.00000
24.91510	1987.00000
24.92820	2007.00000
24.94140	2017.00000
24.95450	2054.00000
24.96760	2250.00000
24.98080	2245.00000
24.99390	2285.00000
25.00700	2456.00000
25.02010	2493.00000
25.03330	2475.00000
25.04640	2401.00000
25.05950	2482.00000
25.07270	2328.00000
25.08580	2310.00000
25.09890	2304.00000
25.11210	2269.00000
25.12520	2263.00000
25.13830	2219.00000
25.15140	2323.00000
25.16460	2302.00000
25.17770	2318.00000
25.19080	2266.00000
25.20400	2169.00000
25.21710	2139.00000
25.23020	2245.00000
25.24340	2028.00000
25.25650	2127.00000
25.26960	1976.00000
25.28270	1962.00000
25.29590	1972.00000
25.30900	1859.00000
25.32210	1933.00000
25.33530	1985.00000
25.34840	2011.00000
25.36150	2114.00000
25.37470	2079.00000
25.38780	2217.00000
25.40090	2365.00000
25.41400	2528.00000
25.42720	2652.00000
25.44030	2721.00000
25.45340	2981.00000
25.46660	3155.00000
25.47970	3100.00000
25.49280	3120.00000
25.50600	3079.00000
25.51910	3076.00000
25.53220	2888.00000
25.54530	2780.00000
25.55850	2665.00000
25.57160	2576.00000
25.58470	2554.00000
25.59790	2580.00000
25.61100	2615.00000
25.62410	2683.00000
25.63730	2676.00000
25.65040	2693.00000
25.66350	2705.00000
25.67660	2707.00000
25.68980	2633.00000
25.70290	2443.00000
25.71600	2369.00000
25.72920	2364.00000
25.74230	2221.00000
25.75540	2064.00000
25.76860	2021.00000
25.78170	1899.00000
25.79480	1897.00000
25.80790	1887.00000
25.82110	1743.00000
25.83420	1787.00000
25.84730	1809.00000
25.86050	1833.00000
25.87360	1794.00000
25.88670	1779.00000
25.89990	1783.00000
25.91300	1899.00000
25.92610	1857.00000
25.93920	2017.00000
25.95240	2136.00000
25.96550	2131.00000
25.97860	2235.00000
25.99180	2411.00000
26.00490	2458.00000
26.01800	2490.00000
26.03120	2400.00000
26.04430	2370.00000
26.05740	2336.00000
26.07050	2291.00000
26.08370	2259.00000
26.09680	2040.00000
26.10990	1967.00000
26.12310	1865.00000
26.13620	1762.00000
26.14930	1831.00000
26.16250	1624.00000
26.17560	1634.00000
26.18870	1627.00000
26.20180	1692.00000
26.21500	1524.00000
26.22810	1538.00000
26.24120	1575.00000
26.25440	1599.00000
26.26750	1533.00000
26.28060	1619.00000
26.29380	1509.00000
26.30690	1504.00000
26.32000	1582.00000
26.33310	1562.00000
26.34630	1553.00000
26.35940	1587.00000
26.37250	1522.00000
26.38570	1567.00000
26.39880	1525.00000
26.41190	1541.00000
26.42510	1427.00000
26.43820	1579.00000
26.45130	1622.00000
26.46440	1555.00000
26.47760	1484.00000
26.49070	1571.00000
26.50380	1525.00000
26.51700	1537.00000
26.53010	1540.00000
26.54320	1524.00000
26.55640	1499.00000
26.56950	1485.00000
26.58260	1513.00000
26.59570	1563.00000
26.60890	1477.00000
26.62200	1503.00000
26.63510	1531.00000
26.64830	1524.00000
26.66140	1463.00000
26.67450	1520.00000
26.68770	1457.00000
26.70080	1549.00000
26.71390	1449.00000
26.72700	1433.00000
26.74020	1413.00000
26.75330	1440.00000
26.76640	1351.00000
26.77960	1502.00000
26.79270	1541.00000
26.80580	1503.00000
26.81900	1483.00000
26.83210	1504.00000
26.84520	1476.00000
26.85830	1478.00000
26.87150	1516.00000
26.88460	1468.00000
26.89770	1522.00000
26.91090	1606.00000
26.92400	1562.00000
26.93710	1565.00000
26.95030	1512.00000
26.96340	1643.00000
26.97650	1601.00000
26.98960	1713.00000
27.00280	1657.00000
27.01590	1719.00000
27.02900	1826.00000
27.04220	1787.00000
27.05530	1831.00000
27.06840	1749.00000
27.08160	1848.00000
27.09470	1765.00000
27.10780	1820.00000
27.12090	1908.00000
27.13410	1887.00000
27.14720	1785.00000
27.16030	1760.00000
27.17350	1774.00000
27.18660	1785.00000
27.19970	1735.00000
27.21290	1648.00000
27.22600	1708.00000
27.23910	1676.00000
27.25220	1687.00000
27.26540	1624.00000
27.27850	1622.00000
27.29160	1567.00000
27.30480	1528.00000
27.31790	1569.00000
27.33100	1552.00000
27.34420	1587.00000
27.35730	1589.00000
27.37040	1521.00000
27.38350	1479.00000
27.39670	1549.00000
27.40980	1520.00000
27.42290	1459.00000
27.43610	1541.00000
27.44920	1465.00000
27.46230	1547.00000
27.47550	1451.00000
27.48860	1510.00000
27.50170	1488.00000
27.51480	1495.00000
27.52800	1560.00000
27.54110	1543.00000
27.55420	1472.00000
27.56740	1483.00000
27.58050	1460.00000
27.59360	1555.00000
27.60680	1521.00000
27.61990	1596.00000
27.63300	1455.00000
27.64610	1545.00000
27.65930	1593.00000
27.67240	1583.00000
27.68550	1631.00000
27.69870	1665.00000
27.71180	1754.00000
27.72490	1704.00000
27.73810	1814.00000
27.75120	1877.00000
27.76430	2060.00000
27.77740	2114.00000
27.79060	2192.00000
27.80370	2305.00000
27.81680	2348.00000
27.83000	2549.00000
27.84310	2568.00000
27.85620	2579.00000
27.86940	2547.00000
27.88250	2550.00000
27.89560	2489.00000
27.90870	2430.00000
27.92190	2303.00000
27.93500	2266.00000
27.94810	2374.00000
27.96130	2308.00000
27.97440	2394.00000
27.98750	2402.00000
28.00070	2334.00000
28.01380	2369.00000
28.02690	2373.00000
28.04000	2388.00000
28.05320	2442.00000
28.06630	2256.00000
28.07940	2108.00000
28.09260	2130.00000
28.10570	2008.00000
28.11880	2007.00000
28.13200	1922.00000
28.14510	1849.00000
28.15820	1753.00000
28.17130	1692.00000
28.18450	1652.00000
28.19760	1530.00000
28.21070	1555.00000
28.22390	1534.00000
28.23700	1546.00000
28.25010	1487.00000
28.26330	1443.00000
28.27640	1458.00000
28.28950	1473.00000
28.30260	1351.00000
28.31580	1381.00000
28.32890	1424.00000
28.34200	1412.00000
28.35520	1440.00000
28.36830	1403.00000
28.38140	1376.00000
28.39460	1466.00000
28.40770	1368.00000
28.42080	1471.00000
28.43390	1340.00000
28.44710	1374.00000
28.46020	1396.00000
28.47330	1393.00000
28.48650	1327.00000
28.49960	1405.00000
28.51270	1298.00000
28.52590	1434.00000
28.53900	1397.00000
28.55210	1343.00000
28.56520	1380.00000
28.57840	1370.00000
28.59150	1454.00000
28.60460	1421.00000
28.61780	1444.00000
28.63090	1423.00000
28.64400	1422.00000
28.65720	1465.00000
28.67030	1414.00000
28.68340	1499.00000
28.69650	1476.00000
28.70970	1545.00000
28.72280	1519.00000
28.73590	1471.00000
28.74910	1502.00000
28.76220	1577.00000
28.77530	1547.00000
28.78850	1472.00000
28.80160	1520.00000
28.81470	1561.00000
28.82780	1508.00000
28.84100	1560.00000
28.85410	1653.00000
28.86720	1695.00000
28.88040	1706.00000
28.89350	1729.00000
28.90660	1781.00000
28.91980	1769.00000
28.93290	1783.00000
28.94600	1790.00000
28.95910	1710.00000
28.97230	1764.00000
28.98540	1716.00000
28.99850	1678.00000
29.01170	1748.00000
29.02480	1716.00000
29.03790	1611.00000
29.05110	1617.00000
29.06420	1551.00000
29.07730	1574.00000
29.09040	1571.00000
29.10360	1537.00000
29.11670	1516.00000
29.12980	1509.00000
29.14300	1500.00000
29.15610	1468.00000
29.16920	1451.00000
29.18240	1445.00000
29.19550	1461.00000
29.20860	1477.00000
29.22170	1462.00000
29.23490	1447.00000
29.24800	1522.00000
29.26110	1537.00000
29.27430	1527.00000
29.28740	1664.00000
29.30050	1681.00000
29.31370	1762.00000
29.32680	1880.00000
29.33990	1905.00000
29.35300	1928.00000
29.36620	2005.00000
29.37930	2113.00000
29.39240	2145.00000
29.40560	2084.00000
29.41870	2208.00000
29.43180	2097.00000
29.44500	2037.00000
29.45810	2021.00000
29.47120	2083.00000
29.48430	1977.00000
29.49750	2005.00000
29.51060	1959.00000
29.52370	1913.00000
29.53690	1904.00000
29.55000	1830.00000
29.56310	1831.00000
29.57630	1801.00000
29.58940	1704.00000
29.60250	1734.00000
29.61560	1619.00000
29.62880	1594.00000
29.64190	1610.00000
29.65500	1499.00000
29.66820	1434.00000
29.68130	1508.00000
29.69440	1557.00000
29.70760	1498.00000
29.72070	1454.00000
29.73380	1473.00000
29.74690	1491.00000
29.76010	1488.00000
29.77320	1518.00000
29.78630	1563.00000
29.79950	1640.00000
29.81260	1748.00000
29.82570	1738.00000
29.83890	1822.00000
29.85200	1854.00000
29.86510	1826.00000
29.87820	1800.00000
29.89140	1839.00000
29.90450	1732.00000
29.91760	1672.00000
29.93080	1673.00000
29.94390	1657.00000
29.95700	1720.00000
29.97020	1598.00000
29.98330	1563.00000
29.99640	1455.00000
30.00950	1485.00000
30.02270	1567.00000
30.03580	1394.00000
30.04890	1441.00000
30.06210	1468.00000
30.07520	1446.00000
30.08830	1467.00000
30.10150	1536.00000
30.11460	1440.00000
30.12770	1479.00000
30.14080	1418.00000
30.15400	1469.00000
30.16710	1451.00000
30.18020	1440.00000
30.19340	1464.00000
30.20650	1408.00000
30.21960	1466.00000
30.23280	1488.00000
30.24590	1502.00000
30.25900	1535.00000
30.27210	1567.00000
30.28530	1584.00000
30.29840	1523.00000
30.31150	1687.00000
30.32470	1686.00000
30.33780	1718.00000
30.35090	1708.00000
30.36410	1830.00000
30.37720	1900.00000
30.39030	1937.00000
30.40340	2081.00000
30.41660	2246.00000
30.42970	2419.00000
30.44280	2594.00000
30.45600	2863.00000
30.46910	3026.00000
30.48220	3378.00000
30.49540	3559.00000
30.50850	3735.00000
30.52160	3731.00000
30.53470	3833.00000
30.54790	3784.00000
30.56100	3683.00000
30.57410	3597.00000
30.58730	3477.00000
30.60040	3131.00000
30.61350	2975.00000
30.62670	2735.00000
30.63980	2503.00000
30.65290	2419.00000
30.66600	2186.00000
30.67920	2017.00000
30.69230	1864.00000
30.70540	1822.00000
30.71860	1732.00000
30.73170	1669.00000
30.74480	1527.00000
30.75800	1536.00000
30.77110	1494.00000
30.78420	1521.00000
30.79730	1524.00000
30.81050	1469.00000
30.82360	1438.00000
30.83670	1434.00000
30.84990	1507.00000
30.86300	1471.00000
30.87610	1486.00000
30.88930	1479.00000
30.90240	1574.00000
30.91550	1490.00000
30.92860	1551.00000
30.94180	1544.00000
30.95490	1612.00000
30.96800	1619.00000
30.98120	1717.00000
30.99430	1764.00000
31.00740	1746.00000
31.02060	1706.00000
31.03370	1750.00000
31.04680	1784.00000
31.05990	1751.00000
31.07310	1758.00000
31.08620	1776.00000
31.09930	1808.00000
31.11250	1825.00000
31.12560	1746.00000
31.13870	1793.00000
31.15190	1676.00000
31.16500	1698.00000
31.17810	1736.00000
31.19120	1631.00000
31.20440	1606.00000
31.21750	1599.00000
31.23060	1653.00000
31.24380	1527.00000
31.25690	1495.00000
31.27000	1489.00000
31.28320	1477.00000
31.29630	1514.00000
31.30940	1456.00000
31.32250	1516.00000
31.33570	1586.00000
31.34880	1441.00000
31.36190	1470.00000
31.37510	1546.00000
31.38820	1480.00000
31.40130	1489.00000
31.41450	1385.00000
31.42760	1370.00000
31.44070	1474.00000
31.45380	1522.00000
31.46700	1462.00000
31.48010	1525.00000
31.49320	1607.00000
31.50640	1478.00000
31.51950	1607.00000
31.53260	1578.00000
31.54580	1638.00000
31.55890	1643.00000
31.57200	1572.00000
31.58510	1705.00000
31.59830	1585.00000
31.61140	1561.00000
31.62450	1566.00000
31.63770	1513.00000
31.65080	1502.00000
31.66390	1488.00000
31.67710	1485.00000
31.69020	1507.00000
31.70330	1513.00000
31.71640	1510.00000
31.72960	1422.00000
31.74270	1421.00000
31.75580	1419.00000
31.76900	1471.00000
31.78210	1470.00000
31.79520	1546.00000
31.80840	1595.00000
31.82150	1656.00000
31.83460	1737.00000
31.84770	1767.00000
31.86090	1798.00000
31.87400	1882.00000
31.88710	1886.00000
31.90030	1876.00000
31.91340	1924.00000
31.92650	1970.00000
31.93970	1916.00000
31.95280	1845.00000
31.96590	1886.00000
31.97900	1866.00000
31.99220	1779.00000
32.00530	1788.00000
32.01840	1679.00000
32.03160	1680.00000
32.04470	1575.00000
32.05780	1621.00000
32.07090	1623.00000
32.08410	1476.00000
32.09720	1603.00000
32.11030	1583.00000
32.12350	1536.00000
32.13660	1620.00000
32.14970	1629.00000
32.16290	1641.00000
32.17600	1683.00000
32.18910	1693.00000
32.20220	1816.00000
32.21540	1808.00000
32.22850	1825.00000
32.24160	1727.00000
32.25480	1815.00000
32.26790	1828.00000
32.28100	1786.00000
32.29420	1768.00000
32.30730	1758.00000
32.32040	1765.00000
32.33350	1818.00000
32.34670	1799.00000
32.35980	1825.00000
32.37290	1775.00000
32.38610	1931.00000
32.39920	1880.00000
32.41230	1818.00000
32.42550	1863.00000
32.43860	1900.00000
32.45170	1963.00000
32.46480	1836.00000
32.47800	1895.00000
32.49110	1791.00000
32.50420	1696.00000
32.51740	1750.00000
32.53050	1707.00000
32.54360	1622.00000
32.55680	1564.00000
32.56990	1705.00000
32.58300	1644.00000
32.59610	1639.00000
32.60930	1688.00000
32.62240	1723.00000
32.63550	1708.00000
32.64870	1792.00000
32.66180	1837.00000
32.67490	1894.00000
32.68810	2022.00000
32.70120	1935.00000
32.71430	2060.00000
32.72740	2070.00000
32.74060	2030.00000
32.75370	2018.00000
32.76680	1986.00000
32.78000	2020.00000
32.79310	1844.00000
32.80620	1829.00000
32.81940	1787.00000
32.83250	1862.00000
32.84560	1690.00000
32.85870	1757.00000
32.87190	1747.00000
32.88500	1723.00000
32.89810	1639.00000
32.91130	1612.00000
32.92440	1712.00000
32.93750	1656.00000
32.95070	1660.00000
32.96380	1575.00000
32.97690	1651.00000
32.99000	1588.00000
33.00320	1523.00000
33.01630	1629.00000
33.02940	1603.00000
33.04260	1555.00000
33.05570	1626.00000
33.06880	1598.00000
33.08200	1646.00000
33.09510	1824.00000
33.10820	1851.00000
33.12130	2064.00000
33.13450	2184.00000
33.14760	2329.00000
33.16070	2389.00000
33.17390	2392.00000
33.18700	2334.00000
33.20010	2398.00000
33.21330	2276.00000
33.22640	2247.00000
33.23950	2180.00000
33.25260	2152.00000
33.26580	2144.00000
33.27890	2057.00000
33.29200	1936.00000
33.30520	1740.00000
33.31830	1737.00000
33.33140	1678.00000
33.34460	1572.00000
33.35770	1605.00000
33.37080	1564.00000
33.38390	1556.00000
33.39710	1503.00000
33.41020	1519.00000
33.42330	1499.00000
33.43650	1488.00000
33.44960	1541.00000
33.46270	1543.00000
33.47590	1578.00000
33.48900	1599.00000
33.50210	1624.00000
33.51520	1758.00000
33.52840	1798.00000
33.54150	1813.00000
33.55460	1959.00000
33.56780	2072.00000
33.58090	2078.00000
33.59400	2169.00000
33.60720	2291.00000
33.62030	2292.00000
33.63340	2384.00000
33.64650	2267.00000
33.65970	2149.00000
33.67280	2085.00000
33.68590	2167.00000
33.69910	1982.00000
33.71220	2003.00000
33.72530	1823.00000
33.73850	1773.00000
33.75160	1634.00000
33.76470	1658.00000
33.77780	1628.00000
33.79100	1559.00000
33.80410	1599.00000
33.81720	1538.00000
33.83040	1435.00000
33.84350	1322.00000
33.85660	1476.00000
33.86980	1434.00000
33.88290	1376.00000
33.89600	1399.00000
33.90910	1452.00000
33.92230	1433.00000
33.93540	1410.00000
33.94850	1381.00000
33.96170	1362.00000
33.97480	1374.00000
33.98790	1353.00000
34.00110	1302.00000
34.01420	1417.00000
34.02730	1375.00000
34.04040	1436.00000
34.05360	1422.00000
34.06670	1429.00000
34.07980	1458.00000
34.09300	1441.00000
34.10610	1516.00000
34.11920	1464.00000
34.13240	1522.00000
34.14550	1591.00000
34.15860	1692.00000
34.17170	1738.00000
34.18490	1743.00000
34.19800	1856.00000
34.21110	1919.00000
34.22430	1921.00000
34.23740	1951.00000
34.25050	1952.00000
34.26370	2040.00000
34.27680	1968.00000
34.28990	1961.00000
34.30310	1932.00000
34.31620	1878.00000
34.32930	1869.00000
34.34240	1804.00000
34.35560	1757.00000
34.36870	1727.00000
34.38180	1618.00000
34.39500	1664.00000
34.40810	1658.00000
34.42120	1603.00000
34.43430	1610.00000
34.44750	1607.00000
34.46060	1620.00000
34.47370	1690.00000
34.48690	1617.00000
34.50000	1646.00000
34.51310	1658.00000
34.52630	1566.00000
34.53940	1691.00000
34.55250	1628.00000
34.56570	1773.00000
34.57880	1668.00000
34.59190	1697.00000
34.60500	1746.00000
34.61820	1821.00000
34.63130	1880.00000
34.64440	2008.00000
34.65760	2060.00000
34.67070	2225.00000
34.68380	2420.00000
34.69690	2502.00000
34.71010	2542.00000
34.72320	2655.00000
34.73630	2626.00000
34.74950	2647.00000
34.76260	2558.00000
34.77570	2505.00000
34.78890	2442.00000
34.80200	2310.00000
34.81510	2315.00000
34.82830	2133.00000
34.84140	2109.00000
34.85450	2037.00000
34.86760	1922.00000
34.88080	1939.00000
34.89390	1804.00000
34.90700	1804.00000
34.92020	1690.00000
34.93330	1749.00000
34.94640	1754.00000
34.95950	1699.00000
34.97270	1732.00000
34.98580	1751.00000
34.99890	1685.00000
35.01210	1711.00000
35.02520	1710.00000
35.03830	1803.00000
35.05150	1743.00000
35.06460	1749.00000
35.07770	1832.00000
35.09090	1915.00000
35.10400	1925.00000
35.11710	2069.00000
35.13020	2039.00000
35.14340	2070.00000
35.15650	2050.00000
35.16960	2040.00000
35.18280	2052.00000
35.19590	1994.00000
35.20900	2022.00000
35.22210	2032.00000
35.23530	2015.00000
35.24840	2050.00000
35.26150	2073.00000
35.27470	2020.00000
35.28780	2000.00000
35.30090	1922.00000
35.31410	1953.00000
35.32720	1868.00000
35.34030	1879.00000
35.35350	1764.00000
35.36660	1723.00000
35.37970	1762.00000
35.39280	1675.00000
35.40600	1594.00000
35.41910	1671.00000
35.43220	1662.00000
35.44540	1556.00000
35.45850	1624.00000
35.47160	1583.00000
35.48470	1611.00000
35.49790	1714.00000
35.51100	1698.00000
35.52410	1698.00000
35.53730	1690.00000
35.55040	1698.00000
35.56350	1737.00000
35.57670	1656.00000
35.58980	1742.00000
35.60290	1697.00000
35.61610	1659.00000
35.62920	1650.00000
35.64230	1653.00000
35.65540	1589.00000
35.66860	1600.00000
35.68170	1571.00000
35.69480	1482.00000
35.70800	1473.00000
35.72110	1526.00000
35.73420	1487.00000
35.74730	1471.00000
35.76050	1536.00000
35.77360	1490.00000
35.78670	1526.00000
35.79990	1571.00000
35.81300	1629.00000
35.82610	1662.00000
35.83930	1665.00000
35.85240	1644.00000
35.86550	1734.00000
35.87870	1730.00000
35.89180	1770.00000
35.90490	1744.00000
35.91800	1728.00000
35.93120	1739.00000
35.94430	1784.00000
35.95740	1719.00000
35.97060	1813.00000
35.98370	1792.00000
35.99680	1700.00000
36.00990	1819.00000
36.02310	1902.00000
36.03620	1859.00000
36.04930	1897.00000
36.06250	1980.00000
36.07560	2006.00000
36.08870	2131.00000
36.10190	2329.00000
36.11500	2493.00000
36.12810	2451.00000
36.14130	2631.00000
36.15440	2643.00000
36.16750	2731.00000
36.18060	2769.00000
36.19380	2771.00000
36.20690	2775.00000
36.22000	2807.00000
36.23320	2772.00000
36.24630	2820.00000
36.25940	2591.00000
36.27250	2733.00000
36.28570	2667.00000
36.29880	2702.00000
36.31190	2599.00000
36.32510	2434.00000
36.33820	2453.00000
36.35130	2421.00000
36.36450	2337.00000
36.37760	2320.00000
36.39070	2333.00000
36.40390	2361.00000
36.41700	2308.00000
36.43010	2238.00000
36.44320	2289.00000
36.45640	2379.00000
36.46950	2409.00000
36.48260	2246.00000
36.49580	2282.00000
36.50890	2243.00000
36.52200	2271.00000
36.53510	2189.00000
36.54830	2222.00000
36.56140	2167.00000
36.57450	2115.00000
36.58770	2136.00000
36.60080	2140.00000
36.61390	2153.00000
36.62710	2202.00000
36.64020	2144.00000
36.65330	2325.00000
36.66650	2306.00000
36.67960	2269.00000
36.69270	2318.00000
36.70580	2348.00000
36.71900	2280.00000
36.73210	2275.00000
36.74520	2273.00000
36.75840	2122.00000
36.77150	2145.00000
36.78460	2061.00000
36.79770	2024.00000
36.81090	2047.00000
36.82400	2088.00000
36.83710	1939.00000
36.85030	1981.00000
36.86340	1847.00000
36.87650	1820.00000
36.88970	1748.00000
36.90280	1801.00000
36.91590	1749.00000
36.92910	1769.00000
36.94220	1729.00000
36.95530	1712.00000
36.96840	1744.00000
36.98160	1732.00000
36.99470	1748.00000
37.00780	1799.00000
37.02100	1860.00000
37.03410	1874.00000
37.04720	1871.00000
37.06030	1910.00000
37.07350	1961.00000
37.08660	1973.00000
37.09970	2013.00000
37.11290	1968.00000
37.12600	2038.00000
37.13910	2006.00000
37.15230	2016.00000
37.16540	2143.00000
37.17850	2136.00000
37.19170	2140.00000
37.20480	2054.00000
37.21790	2161.00000
37.23100	2031.00000
37.24420	2083.00000
37.25730	2173.00000
37.27040	2087.00000
37.28360	2087.00000
37.29670	2131.00000
37.30980	2124.00000
37.32290	2145.00000
37.33610	2282.00000
37.34920	2345.00000
37.36230	2436.00000
37.37550	2482.00000
37.38860	2618.00000
37.40170	2603.00000
37.41490	2762.00000
37.42800	2935.00000
37.44110	2940.00000
37.45430	3104.00000
37.46740	3209.00000
37.48050	3412.00000
37.49360	3403.00000
37.50680	3420.00000
37.51990	3493.00000
37.53300	3361.00000
37.54620	3300.00000
37.55930	3194.00000
37.57240	2998.00000
37.58550	2989.00000
37.59870	2874.00000
37.61180	2788.00000
37.62490	2639.00000
37.63810	2477.00000
37.65120	2342.00000
37.66430	2194.00000
37.67750	2123.00000
37.69060	1965.00000
37.70370	2036.00000
37.71690	1925.00000
37.73000	1910.00000
37.74310	1921.00000
37.75620	1887.00000
37.76940	1947.00000
37.78250	1887.00000
37.79560	1897.00000
37.80880	1972.00000
37.82190	1960.00000
37.83500	1889.00000
37.84810	1938.00000
37.86130	1857.00000
37.87440	1914.00000
37.88750	1811.00000
37.90070	1758.00000
37.91380	1727.00000
37.92690	1811.00000
37.94010	1815.00000
37.95320	1616.00000
37.96630	1715.00000
37.97950	1678.00000
37.99260	1660.00000
38.00570	1697.00000
38.01880	1614.00000
38.03200	1671.00000
38.04510	1732.00000
38.05820	1735.00000
38.07140	1880.00000
38.08450	1921.00000
38.09760	1882.00000
38.11070	1920.00000
38.12390	1880.00000
38.13700	2044.00000
38.15010	1897.00000
38.16330	2002.00000
38.17640	1930.00000
38.18950	1927.00000
38.20270	1794.00000
38.21580	1811.00000
38.22890	1738.00000
38.24210	1795.00000
38.25520	1679.00000
38.26830	1614.00000
38.28140	1647.00000
38.29460	1610.00000
38.30770	1574.00000
38.32080	1531.00000
38.33400	1492.00000
38.34710	1555.00000
38.36020	1498.00000
38.37330	1559.00000
38.38650	1464.00000
38.39960	1472.00000
38.41270	1530.00000
38.42590	1486.00000
38.43900	1572.00000
38.45210	1553.00000
38.46530	1650.00000
38.47840	1576.00000
38.49150	1669.00000
38.50470	1746.00000
38.51780	1779.00000
38.53090	1751.00000
38.54400	1865.00000
38.55720	1976.00000
38.57030	1990.00000
38.58340	2040.00000
38.59660	2054.00000
38.60970	2161.00000
38.62280	2035.00000
38.63590	2168.00000
38.64910	2126.00000
38.66220	2259.00000
38.67530	2237.00000
38.68850	2429.00000
38.70160	2308.00000
38.71470	2387.00000
38.72790	2522.00000
38.74100	2549.00000
38.75410	2607.00000
38.76730	2562.00000
38.78040	2745.00000
38.79350	2755.00000
38.80660	2844.00000
38.81980	2750.00000
38.83290	2718.00000
38.84600	2653.00000
38.85920	2667.00000
38.87230	2532.00000
38.88540	2571.00000
38.89850	2537.00000
38.91170	2361.00000
38.92480	2330.00000
38.93790	2233.00000
38.95110	2124.00000
38.96420	2122.00000
38.97730	2085.00000
38.99050	1907.00000
39.00360	1877.00000
39.01670	1859.00000
39.02990	1836.00000
39.04300	1791.00000
39.05610	1864.00000
39.06920	1798.00000
39.08240	1673.00000
39.09550	1738.00000
39.10860	1660.00000
39.12180	1623.00000
39.13490	1608.00000
39.14800	1626.00000
39.16110	1576.00000
39.17430	1545.00000
39.18740	1555.00000
39.20050	1548.00000
39.21370	1521.00000
39.22680	1500.00000
39.23990	1484.00000
39.25310	1512.00000
39.26620	1504.00000
39.27930	1451.00000
39.29240	1405.00000
39.30560	1449.00000
39.31870	1443.00000
39.33180	1469.00000
39.34500	1498.00000
39.35810	1465.00000
39.37120	1559.00000
39.38440	1527.00000
39.39750	1540.00000
39.41060	1614.00000
39.42370	1558.00000
39.43690	1556.00000
39.45000	1491.00000
39.46310	1586.00000
39.47630	1591.00000
39.48940	1570.00000
39.50250	1539.00000
39.51570	1558.00000
39.52880	1504.00000
39.54190	1624.00000
39.55500	1550.00000
39.56820	1560.00000
39.58130	1580.00000
39.59440	1611.00000
39.60760	1648.00000
39.62070	1660.00000
39.63380	1688.00000
39.64700	1742.00000
39.66010	1818.00000
39.67320	1836.00000
39.68630	1892.00000
39.69950	1918.00000
39.71260	1986.00000
39.72570	1983.00000
39.73890	1962.00000
39.75200	1898.00000
39.76510	2025.00000
39.77830	1919.00000
39.79140	1976.00000
39.80450	1965.00000
39.81760	1929.00000
39.83080	1903.00000
39.84390	1850.00000
39.85700	1808.00000
39.87020	1821.00000
39.88330	1764.00000
39.89640	1731.00000
39.90960	1606.00000
39.92270	1756.00000
39.93580	1578.00000
39.94890	1616.00000
39.96210	1563.00000
39.97520	1592.00000
39.98830	1641.00000
40.00150	1594.00000
40.01460	1622.00000
40.02770	1542.00000
40.04090	1672.00000
40.05400	1585.00000
40.06710	1603.00000
40.08020	1580.00000
40.09340	1604.00000
40.10650	1598.00000
40.11960	1525.00000
40.13280	1624.00000
40.14590	1554.00000
40.15900	1583.00000
40.17220	1548.00000
40.18530	1595.00000
40.19840	1572.00000
40.21150	1608.00000
40.22470	1578.00000
40.23780	1600.00000
40.25090	1624.00000
40.26410	1524.00000
40.27720	1559.00000
40.29030	1583.00000
40.30350	1630.00000
40.31660	1620.00000
40.32970	1687.00000
40.34280	1663.00000
40.35600	1643.00000
40.36910	1712.00000
40.38220	1649.00000
40.39540	1717.00000
40.40850	1784.00000
40.42160	1627.00000
40.43480	1681.00000
40.44790	1765.00000
40.46100	1737.00000
40.47410	1709.00000
40.48730	1755.00000
40.50040	1779.00000
40.51350	1764.00000
40.52670	1738.00000
40.53980	1849.00000
40.55290	1785.00000
40.56610	1777.00000
40.57920	1709.00000
40.59230	1750.00000
40.60540	1654.00000
40.61860	1652.00000
40.63170	1638.00000
40.64480	1591.00000
40.65800	1485.00000
40.67110	1554.00000
40.68420	1481.00000
40.69740	1463.00000
40.71050	1503.00000
40.72360	1440.00000
40.73670	1517.00000
40.74990	1450.00000
40.76300	1408.00000
40.77610	1413.00000
40.78930	1443.00000
40.80240	1432.00000
40.81550	1421.00000
40.82870	1437.00000
40.84180	1482.00000
40.85490	1425.00000
40.86800	1499.00000
40.88120	1487.00000
40.89430	1437.00000
40.90740	1507.00000
40.92060	1428.00000
40.93370	1521.00000
40.94680	1457.00000
40.96000	1507.00000
40.97310	1524.00000
40.98620	1607.00000
40.99930	1529.00000
41.01250	1557.00000
41.02560	1628.00000
41.03870	1665.00000
41.05190	1695.00000
41.06500	1678.00000
41.07810	1751.00000
41.09130	1751.00000
41.10440	1720.00000
41.11750	1767.00000
41.13060	1729.00000
41.14380	1915.00000
41.15690	1853.00000
41.17000	1894.00000
41.18320	1947.00000
41.19630	1924.00000
41.20940	1924.00000
41.22260	1969.00000
41.23570	1963.00000
41.24880	1982.00000
41.26190	2012.00000
41.27510	2101.00000
41.28820	2044.00000
41.30130	2051.00000
41.31450	2029.00000
41.32760	2112.00000
41.34070	2100.00000
41.35390	1983.00000
41.36700	2067.00000
41.38010	2097.00000
41.39320	2091.00000
41.40640	2234.00000
41.41950	2039.00000
41.43260	2143.00000
41.44580	2187.00000
41.45890	2128.00000
41.47200	2245.00000
41.48520	2217.00000
41.49830	2216.00000
41.51140	2089.00000
41.52450	2181.00000
41.53770	2158.00000
41.55080	2134.00000
41.56390	2116.00000
41.57710	2042.00000
41.59020	2098.00000
41.60330	2061.00000
41.61650	2099.00000
41.62960	2012.00000
41.64270	2028.00000
41.65580	2057.00000
41.66900	2135.00000
41.68210	2044.00000
41.69520	2098.00000
41.70840	2095.00000
41.72150	2102.00000
41.73460	2092.00000
41.74780	2066.00000
41.76090	2099.00000
41.77400	2045.00000
41.78710	2079.00000
41.80030	2076.00000
41.81340	2167.00000
41.82650	2079.00000
41.83970	2123.00000
41.85280	2087.00000
41.86590	2020.00000
41.87910	1908.00000
41.89220	1882.00000
41.90530	1934.00000
41.91840	1880.00000
41.93160	1897.00000
41.94470	1873.00000
41.95780	1924.00000
41.97100	1936.00000
41.98410	1847.00000
41.99720	1824.00000
42.01040	1812.00000
42.02350	1747.00000
42.03660	1641.00000
42.04970	1726.00000
42.06290	1700.00000
42.07600	1786.00000
42.08910	1581.00000
42.10230	1589.00000
42.11540	1675.00000
42.12850	1679.00000
42.14170	1650.00000
42.15480	1608.00000
42.16790	1675.00000
42.18100	1639.00000
42.19420	1681.00000
42.20730	1706.00000
42.22040	1654.00000
42.23360	1684.00000
42.24670	1742.00000
42.25980	1771.00000
42.27300	1860.00000
42.28610	1863.00000
42.29920	1840.00000
42.31230	1851.00000
42.32550	1820.00000
42.33860	1869.00000
42.35170	1885.00000
42.36490	1771.00000
42.37800	1769.00000
42.39110	1766.00000
42.40430	1695.00000
42.41740	1678.00000
42.43050	1711.00000
42.44360	1684.00000
42.45680	1648.00000
42.46990	1580.00000
42.48300	1635.00000
42.49620	1618.00000
42.50930	1646.00000
42.52240	1538.00000
42.53560	1535.00000
42.54870	1614.00000
42.56180	1639.00000
42.57490	1557.00000
42.58810	1567.00000
42.60120	1635.00000
42.61430	1641.00000
42.62750	1637.00000
42.64060	1629.00000
42.65370	1637.00000
42.66690	1560.00000
42.68000	1564.00000
42.69310	1622.00000
42.70620	1614.00000
42.71940	1698.00000
42.73250	1612.00000
42.74560	1724.00000
42.75880	1749.00000
42.77190	1651.00000
42.78500	1828.00000
42.79820	1748.00000
42.81130	1753.00000
42.82440	1726.00000
42.83750	1737.00000
42.85070	1741.00000
42.86380	1832.00000
42.87690	1762.00000
42.89010	1804.00000
42.90320	1815.00000
42.91630	1921.00000
42.92950	1946.00000
42.94260	1904.00000
42.95570	2030.00000
42.96880	1960.00000
42.98200	1982.00000
42.99510	1963.00000
43.00820	1881.00000
43.02140	1921.00000
43.03450	1798.00000
43.04760	1882.00000
43.06080	1809.00000
43.07390	1872.00000
43.08700	1737.00000
43.10010	1853.00000
43.11330	1769.00000
43.12640	1801.00000
43.13950	1776.00000
43.15270	1704.00000
43.16580	1702.00000
43.17890	1767.00000
43.19210	1856.00000
43.20520	1696.00000
43.21830	1702.00000
43.23140	1784.00000
43.24460	1698.00000
43.25770	1642.00000
43.27080	1678.00000
43.28400	1604.00000
43.29710	1632.00000
43.31020	1619.00000
43.32340	1506.00000
43.33650	1531.00000
43.34960	1475.00000
43.36270	1479.00000
43.37590	1509.00000
43.38900	1511.00000
43.40210	1454.00000
43.41530	1445.00000
43.42840	1433.00000
43.44150	1456.00000
43.45470	1473.00000
43.46780	1457.00000
43.48090	1367.00000
43.49400	1430.00000
43.50720	1424.00000
43.52030	1402.00000
43.53340	1333.00000
43.54660	1470.00000
43.55970	1336.00000
43.57280	1409.00000
43.58600	1383.00000
43.59910	1346.00000
43.61220	1365.00000
43.62530	1347.00000
43.63850	1374.00000
43.65160	1349.00000
43.66470	1356.00000
43.67790	1354.00000
43.69100	1389.00000
43.70410	1419.00000
43.71730	1358.00000
43.73040	1405.00000
43.74350	1355.00000
43.75660	1389.00000
43.76980	1385.00000
43.78290	1330.00000
43.79600	1412.00000
43.80920	1413.00000
43.82230	1406.00000
43.83540	1391.00000
43.84860	1404.00000
43.86170	1412.00000
43.87480	1495.00000
43.88790	1435.00000
43.90110	1385.00000
43.91420	1484.00000
43.92730	1482.00000
43.94050	1454.00000
43.95360	1475.00000
43.96670	1513.00000
43.97990	1528.00000
43.99300	1571.00000
44.00610	1569.00000
44.01920	1567.00000
44.03240	1532.00000
44.04550	1605.00000
44.05860	1536.00000
44.07180	1555.00000
44.08490	1558.00000
44.09800	1545.00000
44.11120	1570.00000
44.12430	1528.00000
44.13740	1559.00000
44.15050	1632.00000
44.16370	1636.00000
44.17680	1644.00000
44.18990	1610.00000
44.20310	1604.00000
44.21620	1609.00000
44.22930	1639.00000
44.24250	1659.00000
44.25560	1711.00000
44.26870	1709.00000
44.28180	1695.00000
44.29500	1727.00000
44.30810	1723.00000
44.32120	1676.00000
44.33440	1727.00000
44.34750	1710.00000
44.36060	1728.00000
44.37380	1667.00000
44.38690	1674.00000
44.40000	1682.00000
44.41310	1597.00000
44.42630	1619.00000
44.43940	1660.00000
44.45250	1621.00000
44.46570	1576.00000
44.47880	1494.00000
44.49190	1539.00000
44.50510	1528.00000
44.51820	1526.00000
44.53130	1468.00000
44.54440	1462.00000
44.55760	1439.00000
44.57070	1532.00000
44.58380	1539.00000
44.59700	1487.00000
44.61010	1556.00000
44.62320	1583.00000
44.63640	1534.00000
44.64950	1496.00000
44.66260	1546.00000
44.67580	1521.00000
44.68890	1553.00000
44.70200	1583.00000
44.71510	1528.00000
44.72830	1606.00000
44.74140	1584.00000
44.75450	1536.00000
44.76770	1638.00000
44.78080	1647.00000
44.79390	1672.00000
44.80700	1631.00000
44.82020	1638.00000
44.83330	1675.00000
44.84640	1729.00000
44.85960	1751.00000
44.87270	1697.00000
44.88580	1729.00000
44.89900	1689.00000
44.91210	1667.00000
44.92520	1696.00000
44.93840	1624.00000
44.95150	1566.00000
44.96460	1619.00000
44.97770	1575.00000
44.99090	1556.00000
45.00400	1584.00000
45.01710	1560.00000
45.03030	1527.00000
45.04340	1526.00000
45.05650	1438.00000
45.06960	1562.00000
45.08280	1426.00000
45.09590	1417.00000
45.10900	1439.00000
45.12220	1499.00000
45.13530	1405.00000
45.14840	1446.00000
45.16160	1392.00000
45.17470	1523.00000
45.18780	1409.00000
45.20100	1458.00000
45.21410	1500.00000
45.22720	1440.00000
45.24030	1436.00000
45.25350	1450.00000
45.26660	1508.00000
45.27970	1483.00000
45.29290	1501.00000
45.30600	1521.00000
45.31910	1510.00000
45.33220	1490.00000
45.34540	1467.00000
45.35850	1484.00000
45.37160	1493.00000
45.38480	1463.00000
45.39790	1543.00000
45.41100	1523.00000
45.42420	1458.00000
45.43730	1513.00000
45.45040	1583.00000
45.46360	1544.00000
45.47670	1551.00000
45.48980	1583.00000
45.50290	1530.00000
45.51610	1627.00000
45.52920	1605.00000
45.54230	1613.00000
45.55550	1590.00000
45.56860	1635.00000
45.58170	1682.00000
45.59480	1755.00000
45.60800	1685.00000
45.62110	1666.00000
45.63420	1671.00000
45.64740	1714.00000
45.66050	1618.00000
45.67360	1679.00000
45.68680	1725.00000
45.69990	1699.00000
45.71300	1691.00000
45.72620	1691.00000
45.73930	1759.00000
45.75240	1690.00000
45.76550	1789.00000
45.77870	1681.00000
45.79180	1761.00000
45.80490	1749.00000
45.81810	1760.00000
45.83120	1731.00000
45.84430	1793.00000
45.85740	1820.00000
45.87060	1856.00000
45.88370	1788.00000
45.89680	1844.00000
45.91000	1760.00000
45.92310	1795.00000
45.93620	1777.00000
45.94940	1823.00000
45.96250	1763.00000
45.97560	1877.00000
45.98880	1876.00000
46.00190	1832.00000
46.01500	1944.00000
46.02810	1960.00000
46.04130	1996.00000
46.05440	1951.00000
46.06750	2064.00000
46.08070	2077.00000
46.09380	2037.00000
46.10690	2018.00000
46.12000	2131.00000
46.13320	2069.00000
46.14630	2147.00000
46.15940	2085.00000
46.17260	2021.00000
46.18570	2183.00000
46.19880	2084.00000
46.21200	2105.00000
46.22510	2049.00000
46.23820	2068.00000
46.25140	2075.00000
46.26450	1984.00000
46.27760	1999.00000
46.29070	2018.00000
46.30390	1898.00000
46.31700	1955.00000
46.33010	1872.00000
46.34330	1958.00000
46.35640	1914.00000
46.36950	1940.00000
46.38260	1978.00000
46.39580	1959.00000
46.40890	1913.00000
46.42200	1892.00000
46.43520	1890.00000
46.44830	1916.00000
46.46140	1825.00000
46.47460	1824.00000
46.48770	1867.00000
46.50080	1978.00000
46.51400	1856.00000
46.52710	1902.00000
46.54020	1864.00000
46.55330	1841.00000
46.56650	1848.00000
46.57960	1855.00000
46.59270	1880.00000
46.60590	1891.00000
46.61900	1909.00000
46.63210	1929.00000
46.64520	2051.00000
46.65840	1910.00000
46.67150	2011.00000
46.68460	2045.00000
46.69780	2040.00000
46.71090	2102.00000
46.72400	1974.00000
46.73720	2002.00000
46.75030	2023.00000
46.76340	1913.00000
46.77660	1988.00000
46.78970	1974.00000
46.80280	1976.00000
46.81590	2025.00000
46.82910	1961.00000
46.84220	1907.00000
46.85530	1939.00000
46.86850	1977.00000
46.88160	1866.00000
46.89470	1874.00000
46.90780	1817.00000
46.92100	1847.00000
46.93410	1851.00000
46.94720	1781.00000
46.96040	1823.00000
46.97350	1746.00000
46.98660	1781.00000
46.99980	1649.00000
47.01290	1727.00000
47.02600	1768.00000
47.03920	1795.00000
47.05230	1729.00000
47.06540	1712.00000
47.07850	1689.00000
47.09170	1632.00000
47.10480	1736.00000
47.11790	1665.00000
47.13110	1660.00000
47.14420	1650.00000
47.15730	1742.00000
47.17040	1705.00000
47.18360	1688.00000
47.19670	1732.00000
47.20980	1788.00000
47.22300	1896.00000
47.23610	1807.00000
47.24920	1904.00000
47.26240	1842.00000
47.27550	1802.00000
47.28860	1870.00000
47.30180	1931.00000
47.31490	1868.00000
47.32800	1920.00000
47.34110	1905.00000
47.35430	1923.00000
47.36740	1811.00000
47.38050	1895.00000
47.39370	1930.00000
47.40680	1852.00000
47.41990	1831.00000
47.43300	1829.00000
47.44620	1885.00000
47.45930	1783.00000
47.47240	1811.00000
47.48560	1822.00000
47.49870	1843.00000
47.51180	1825.00000
47.52500	1865.00000
47.53810	1914.00000
47.55120	1903.00000
47.56440	1911.00000
47.57750	1866.00000
47.59060	1915.00000
47.60370	1947.00000
47.61690	1935.00000
47.63000	1902.00000
47.64310	1861.00000
47.65630	1891.00000
47.66940	1821.00000
47.68250	1786.00000
47.69560	1812.00000
47.70880	1796.00000
47.72190	1823.00000
47.73500	1723.00000
47.74820	1818.00000
47.76130	1791.00000
47.77440	1722.00000
47.78760	1727.00000
47.80070	1743.00000
47.81380	1721.00000
47.82700	1783.00000
47.84010	1692.00000
47.85320	1796.00000
47.86630	1711.00000
47.87950	1759.00000
47.89260	1668.00000
47.90570	1774.00000
47.91890	1800.00000
47.93200	1752.00000
47.94510	1667.00000
47.95820	1721.00000
47.97140	1701.00000
47.98450	1726.00000
47.99760	1704.00000
48.01080	1683.00000
48.02390	1696.00000
48.03700	1611.00000
48.05020	1654.00000
48.06330	1551.00000
48.07640	1603.00000
48.08960	1619.00000
48.10270	1599.00000
48.11580	1634.00000
48.12890	1550.00000
48.14210	1606.00000
48.15520	1572.00000
48.16830	1638.00000
48.18150	1631.00000
48.19460	1616.00000
48.20770	1615.00000
48.22080	1575.00000
48.23400	1579.00000
48.24710	1671.00000
48.26020	1586.00000
48.27340	1627.00000
48.28650	1589.00000
48.29960	1648.00000
48.31280	1689.00000
48.32590	1688.00000
48.33900	1675.00000
48.35210	1708.00000
48.36530	1766.00000
48.37840	1855.00000
48.39150	1802.00000
48.40470	1782.00000
48.41780	1793.00000
48.43090	1835.00000
48.44410	1916.00000
48.45720	1823.00000
48.47030	1890.00000
48.48340	1826.00000
48.49660	1873.00000
48.50970	1872.00000
48.52280	1893.00000
48.53600	1857.00000
48.54910	1922.00000
48.56220	1924.00000
48.57540	1820.00000
48.58850	1914.00000
48.60160	1780.00000
48.61470	1839.00000
48.62790	1828.00000
48.64100	1745.00000
48.65410	1742.00000
48.66730	1785.00000
48.68040	1819.00000
48.69350	1686.00000
48.70670	1664.00000
48.71980	1717.00000
48.73290	1657.00000
48.74600	1672.00000
48.75920	1596.00000
48.77230	1662.00000
48.78540	1669.00000
48.79860	1689.00000
48.81170	1607.00000
48.82480	1647.00000
48.83800	1661.00000
48.85110	1595.00000
48.86420	1668.00000
48.87730	1629.00000
48.89050	1574.00000
48.90360	1632.00000
48.91670	1610.00000
48.92990	1613.00000
48.94300	1624.00000
48.95610	1692.00000
48.96930	1597.00000
48.98240	1602.00000
48.99550	1590.00000
49.00860	1598.00000
49.02180	1645.00000
49.03490	1593.00000
49.04800	1605.00000
49.06120	1620.00000
49.07430	1598.00000
49.08740	1674.00000
49.10060	1640.00000
49.11370	1673.00000
49.12680	1612.00000
49.13990	1735.00000
49.15310	1723.00000
49.16620	1732.00000
49.17930	1726.00000
49.19250	1652.00000
49.20560	1730.00000
49.21870	1677.00000
49.23190	1742.00000
49.24500	1663.00000
49.25810	1656.00000
49.27120	1699.00000
49.28440	1650.00000
49.29750	1705.00000
49.31060	1653.00000
49.32380	1635.00000
49.33690	1677.00000
49.35000	1629.00000
49.36320	1605.00000
49.37630	1652.00000
49.38940	1615.00000
49.40250	1566.00000
49.41570	1637.00000
49.42880	1664.00000
49.44190	1651.00000
49.45510	1634.00000
49.46820	1699.00000
49.48130	1702.00000
49.49450	1680.00000
49.50760	1725.00000
49.52070	1721.00000
49.53380	1628.00000
49.54700	1733.00000
49.56010	1765.00000
49.57320	1764.00000
49.58640	1741.00000
49.59950	1794.00000
49.61260	1734.00000
49.62580	1767.00000
49.63890	1764.00000
49.65200	1775.00000
49.66510	1780.00000
49.67830	1741.00000
49.69140	1739.00000
49.70450	1832.00000
49.71770	1684.00000
49.73080	1817.00000
49.74390	1681.00000
49.75710	1797.00000
49.77020	1723.00000
49.78330	1686.00000
49.79640	1703.00000
49.80960	1728.00000
49.82270	1715.00000
49.83580	1764.00000
49.84900	1670.00000
49.86210	1756.00000
49.87520	1857.00000
49.88840	1719.00000
49.90150	1793.00000
49.91460	1763.00000
49.92770	1797.00000
49.94090	1703.00000
49.95400	1719.00000
49.96710	1764.00000
49.98030	1739.00000
49.99340	1820.00000
50.00650	1841.00000
50.01970	1752.00000
50.03280	1729.00000
