8.00000	1720.00000
8.02200	1744.00000
8.04400	1748.00000
8.06600	1684.00000
8.08800	1559.00000
8.11000	1648.00000
8.13200	1632.00000
8.15400	1541.00000
8.17600	1533.00000
8.19800	1517.00000
8.22000	1501.00000
8.24200	1516.00000
8.26400	1533.00000
8.28600	1412.00000
8.30800	1451.00000
8.33000	1485.00000
8.35200	1443.00000
8.37400	1469.00000
8.39600	1374.00000
8.41800	1427.00000
8.44000	1387.00000
8.46200	1377.00000
8.48400	1409.00000
8.50600	1376.00000
8.52800	1343.00000
8.55000	1445.00000
8.57200	1329.00000
8.59400	1396.00000
8.61600	1362.00000
8.63800	1307.00000
8.66000	1318.00000
8.68200	1267.00000
8.70400	1300.00000
8.72600	1308.00000
8.74800	1306.00000
8.77000	1253.00000
8.79200	1285.00000
8.81400	1238.00000
8.83600	1329.00000
8.85800	1238.00000
8.88000	1291.00000
8.90200	1225.00000
8.92400	1234.00000
8.94600	1240.00000
8.96800	1235.00000
8.99000	1256.00000
9.01200	1260.00000
9.03400	1334.00000
9.05600	1212.00000
9.07800	1248.00000
9.10000	1250.00000
9.12200	1300.00000
9.14400	1209.00000
9.16600	1221.00000
9.18800	1240.00000
9.21000	1238.00000
9.23200	1192.00000
9.25400	1148.00000
9.27600	1265.00000
9.29800	1234.00000
9.32000	1204.00000
9.34200	1208.00000
9.36400	1227.00000
9.38600	1223.00000
9.40800	1190.00000
9.43000	1176.00000
9.45200	1186.00000
9.47400	1179.00000
9.49600	1164.00000
9.51800	1210.00000
9.54000	1172.00000
9.56200	1207.00000
9.58400	1132.00000
9.60600	1170.00000
9.62800	1216.00000
9.65000	1170.00000
9.67200	1153.00000
9.69400	1205.00000
9.71600	1257.00000
9.73800	1182.00000
9.76000	1217.00000
9.78200	1227.00000
9.80400	1191.00000
9.82600	1205.00000
9.84800	1141.00000
9.87000	1167.00000
9.89200	1206.00000
9.91400	1140.00000
9.93600	1172.00000
9.95800	1165.00000
9.98000	1162.00000
10.00200	1197.00000
10.02400	1122.00000
10.04600	1181.00000
10.06800	1166.00000
10.09000	1137.00000
10.11200	1150.00000
10.13400	1111.00000
10.15600	1106.00000
10.17800	1152.00000
10.20000	1082.00000
10.22200	1109.00000
10.24400	1106.00000
10.26600	1158.00000
10.28800	1153.00000
10.31000	1160.00000
10.33200	1171.00000
10.35400	1183.00000
10.37600	1245.00000
10.39800	1172.00000
10.42000	1211.00000
10.44200	1175.00000
10.46400	1185.00000
10.48600	1133.00000
10.50800	1247.00000
10.53000	1289.00000
10.55200	1206.00000
10.57400	1326.00000
10.59600	1362.00000
10.61800	1462.00000
10.64000	1565.00000
10.66200	1753.00000
10.68400	1935.00000
10.70600	2539.00000
10.72800	3171.00000
10.75000	3981.00000
10.77200	4718.00000
10.79400	5367.00000
10.81600	6070.00000
10.83800	6193.00000
10.86000	5302.00000
10.88200	3288.00000
10.90400	2010.00000
10.92600	1388.00000
10.94800	1162.00000
10.97000	1184.00000
10.99200	1074.00000
11.01400	1036.00000
11.03600	1064.00000
11.05800	1043.00000
11.08000	1048.00000
11.10200	1020.00000
11.12400	1041.00000
11.14600	990.00000
11.16800	1009.00000
11.19000	997.00000
11.21200	990.00000
11.23400	1033.00000
11.25600	939.00000
11.27800	987.00000
11.30000	1049.00000
11.32200	1007.00000
11.34400	1038.00000
11.36600	1037.00000
11.38800	932.00000
11.41000	984.00000
11.43200	1003.00000
11.45400	980.00000
11.47600	930.00000
11.49800	900.00000
11.52000	976.00000
11.54200	937.00000
11.56400	955.00000
11.58600	942.00000
11.60800	905.00000
11.63000	883.00000
11.65200	889.00000
11.67400	930.00000
11.69600	903.00000
11.71800	933.00000
11.74000	918.00000
11.76200	917.00000
11.78400	885.00000
11.80600	854.00000
11.82800	927.00000
11.85000	935.00000
11.87200	919.00000
11.89400	879.00000
11.91600	973.00000
11.93800	896.00000
11.96000	951.00000
11.98200	928.00000
12.00400	879.00000
12.02600	862.00000
12.04800	870.00000
12.07000	909.00000
12.09200	931.00000
12.11400	897.00000
12.13600	902.00000
12.15800	848.00000
12.18000	896.00000
12.20200	911.00000
12.22400	902.00000
12.24600	848.00000
12.26800	909.00000
12.29000	863.00000
12.31200	881.00000
12.33400	864.00000
12.35600	886.00000
12.37800	937.00000
12.40000	856.00000
12.42200	849.00000
12.44400	862.00000
12.46600	826.00000
12.48800	897.00000
12.51000	884.00000
12.53200	826.00000
12.55400	854.00000
12.57600	797.00000
12.59800	907.00000
12.62000	847.00000
12.64200	815.00000
12.66400	837.00000
12.68600	826.00000
12.70800	827.00000
12.73000	816.00000
12.75200	814.00000
12.77400	771.00000
12.79600	798.00000
12.81800	777.00000
12.84000	860.00000
12.86200	801.00000
12.88400	803.00000
12.90600	811.00000
12.92800	832.00000
12.95000	840.00000
12.97200	796.00000
12.99400	811.00000
13.01600	865.00000
13.03800	836.00000
13.06000	831.00000
13.08200	815.00000
13.10400	787.00000
13.12600	795.00000
13.14800	834.00000
13.17000	737.00000
13.19200	810.00000
13.21400	799.00000
13.23600	803.00000
13.25800	795.00000
13.28000	799.00000
13.30200	793.00000
13.32400	767.00000
13.34600	828.00000
13.36800	824.00000
13.39000	830.00000
13.41200	830.00000
13.43400	792.00000
13.45600	816.00000
13.47800	812.00000
13.50000	816.00000
13.52200	760.00000
13.54400	785.00000
13.56600	799.00000
13.58800	772.00000
13.61000	729.00000
13.63200	752.00000
13.65400	747.00000
13.67600	785.00000
13.69800	795.00000
13.72000	786.00000
13.74200	756.00000
13.76400	763.00000
13.78600	749.00000
13.80800	748.00000
13.83000	778.00000
13.85200	747.00000
13.87400	775.00000
13.89600	747.00000
13.91800	720.00000
13.94000	766.00000
13.96200	753.00000
13.98400	721.00000
14.00600	781.00000
14.02800	693.00000
14.05000	712.00000
14.07200	743.00000
14.09400	755.00000
14.11600	732.00000
14.13800	754.00000
14.16000	784.00000
14.18200	757.00000
14.20400	774.00000
14.22600	696.00000
14.24800	681.00000
14.27000	682.00000
14.29200	756.00000
14.31400	772.00000
14.33600	744.00000
14.35800	751.00000
14.38000	667.00000
14.40200	662.00000
14.42400	687.00000
14.44600	735.00000
14.46800	745.00000
14.49000	706.00000
14.51200	732.00000
14.53400	764.00000
14.55600	723.00000
14.57800	716.00000
14.60000	723.00000
14.62200	736.00000
14.64400	690.00000
14.66600	692.00000
14.68800	700.00000
14.71000	776.00000
14.73200	721.00000
14.75400	674.00000
14.77600	717.00000
14.79800	691.00000
14.82000	701.00000
14.84200	674.00000
14.86400	718.00000
14.88600	684.00000
14.90800	700.00000
14.93000	696.00000
14.95200	703.00000
14.97400	748.00000
14.99600	667.00000
15.01800	689.00000
15.04000	723.00000
15.06200	706.00000
15.08400	676.00000
15.10600	694.00000
15.12800	731.00000
15.15000	692.00000
15.17200	699.00000
15.19400	661.00000
15.21600	718.00000
15.23800	689.00000
15.26000	706.00000
15.28200	676.00000
15.30400	696.00000
15.32600	708.00000
15.34800	699.00000
15.37000	723.00000
15.39200	707.00000
15.41400	708.00000
15.43600	683.00000
15.45800	655.00000
15.48000	672.00000
15.50200	671.00000
15.52400	714.00000
15.54600	686.00000
15.56800	672.00000
15.59000	663.00000
15.61200	678.00000
15.63400	663.00000
15.65600	674.00000
15.67800	690.00000
15.70000	700.00000
15.72200	710.00000
15.74400	653.00000
15.76600	728.00000
15.78800	665.00000
15.81000	663.00000
15.83200	672.00000
15.85400	682.00000
15.87600	644.00000
15.89800	644.00000
15.92000	721.00000
15.94200	627.00000
15.96400	726.00000
15.98600	676.00000
16.00800	649.00000
16.03000	668.00000
16.05200	671.00000
16.07400	656.00000
16.09600	620.00000
16.11800	610.00000
16.14000	636.00000
16.16200	666.00000
16.18400	661.00000
16.20600	647.00000
16.22800	676.00000
16.25000	633.00000
16.27200	705.00000
16.29400	689.00000
16.31600	651.00000
16.33800	658.00000
16.36000	636.00000
16.38200	659.00000
16.40400	662.00000
16.42600	665.00000
16.44800	652.00000
16.47000	622.00000
16.49200	622.00000
16.51400	632.00000
16.53600	636.00000
16.55800	663.00000
16.58000	666.00000
16.60200	652.00000
16.62400	650.00000
16.64600	654.00000
16.66800	676.00000
16.69000	650.00000
16.71200	664.00000
16.73400	637.00000
16.75600	663.00000
16.77800	673.00000
16.80000	696.00000
16.82200	682.00000
16.84400	704.00000
16.86600	705.00000
16.88800	646.00000
16.91000	625.00000
16.93200	635.00000
16.95400	626.00000
16.97600	657.00000
16.99800	620.00000
17.02000	637.00000
17.04200	625.00000
17.06400	643.00000
17.08600	611.00000
17.10800	664.00000
17.13000	674.00000
17.15200	627.00000
17.17400	633.00000
17.19600	634.00000
17.21800	625.00000
17.24000	664.00000
17.26200	591.00000
17.28400	611.00000
17.30600	614.00000
17.32800	637.00000
17.35000	623.00000
17.37200	629.00000
17.39400	667.00000
17.41600	661.00000
17.43800	669.00000
17.46000	643.00000
17.48200	669.00000
17.50400	666.00000
17.52600	654.00000
17.54800	631.00000
17.57000	669.00000
17.59200	663.00000
17.61400	648.00000
17.63600	684.00000
17.65800	645.00000
17.68000	697.00000
17.70200	670.00000
17.72400	665.00000
17.74600	624.00000
17.76800	623.00000
17.79000	633.00000
17.81200	660.00000
17.83400	649.00000
17.85600	663.00000
17.87800	624.00000
17.90000	682.00000
17.92200	604.00000
17.94400	607.00000
17.96600	603.00000
17.98800	620.00000
18.01000	656.00000
18.03200	601.00000
18.05400	646.00000
18.07600	605.00000
18.09800	648.00000
18.12000	641.00000
18.14200	629.00000
18.16400	615.00000
18.18600	626.00000
18.20800	645.00000
18.23000	667.00000
18.25200	650.00000
18.27400	620.00000
18.29600	710.00000
18.31800	691.00000
18.34000	671.00000
18.36200	726.00000
18.38400	672.00000
18.40600	659.00000
18.42800	661.00000
18.45000	664.00000
18.47200	657.00000
18.49400	662.00000
18.51600	664.00000
18.53800	632.00000
18.56000	632.00000
18.58200	615.00000
18.60400	586.00000
18.62600	645.00000
18.64800	650.00000
18.67000	650.00000
18.69200	668.00000
18.71400	634.00000
18.73600	652.00000
18.75800	637.00000
18.78000	660.00000
18.80200	621.00000
18.82400	622.00000
18.84600	640.00000
18.86800	659.00000
18.89000	624.00000
18.91200	661.00000
18.93400	637.00000
18.95600	655.00000
18.97800	623.00000
19.00000	626.00000
19.02200	615.00000
19.04400	652.00000
19.06600	641.00000
19.08800	648.00000
19.11000	615.00000
19.13200	643.00000
19.15400	678.00000
19.17600	629.00000
19.19800	629.00000
19.22000	594.00000
19.24200	579.00000
19.26400	605.00000
19.28600	599.00000
19.30800	699.00000
19.33000	640.00000
19.35200	626.00000
19.37400	599.00000
19.39600	689.00000
19.41800	610.00000
19.44000	660.00000
19.46200	632.00000
19.48400	641.00000
19.50600	696.00000
19.52800	693.00000
19.55000	727.00000
19.57200	715.00000
19.59400	712.00000
19.61600	728.00000
19.63800	702.00000
19.66000	674.00000
19.68200	604.00000
19.70400	657.00000
19.72600	646.00000
19.74800	597.00000
19.77000	648.00000
19.79200	620.00000
19.81400	651.00000
19.83600	703.00000
19.85800	652.00000
19.88000	638.00000
19.90200	642.00000
19.92400	660.00000
19.94600	640.00000
19.96800	660.00000
19.99000	653.00000
20.01200	596.00000
20.03400	626.00000
20.05600	617.00000
20.07800	627.00000
20.10000	646.00000
20.12200	606.00000
20.14400	643.00000
20.16600	690.00000
20.18800	654.00000
20.21000	668.00000
20.23200	621.00000
20.25400	600.00000
20.27600	636.00000
20.29800	630.00000
20.32000	639.00000
20.34200	635.00000
20.36400	642.00000
20.38600	583.00000
20.40800	660.00000
20.43000	657.00000
20.45200	597.00000
20.47400	684.00000
20.49600	673.00000
20.51800	594.00000
20.54000	620.00000
20.56200	651.00000
20.58400	670.00000
20.60600	636.00000
20.62800	675.00000
20.65000	661.00000
20.67200	635.00000
20.69400	618.00000
20.71600	664.00000
20.73800	694.00000
20.76000	718.00000
20.78200	752.00000
20.80400	759.00000
20.82600	694.00000
20.84800	716.00000
20.87000	701.00000
20.89200	709.00000
20.91400	654.00000
20.93600	662.00000
20.95800	716.00000
20.98000	678.00000
21.00200	711.00000
21.02400	666.00000
21.04600	699.00000
21.06800	731.00000
21.09000	702.00000
21.11200	738.00000
21.13400	712.00000
21.15600	657.00000
21.17800	686.00000
21.20000	697.00000
21.22200	626.00000
21.24400	667.00000
21.26600	681.00000
21.28800	662.00000
21.31000	660.00000
21.33200	668.00000
21.35400	696.00000
21.37600	695.00000
21.39800	680.00000
21.42000	685.00000
21.44200	691.00000
21.46400	681.00000
21.48600	684.00000
21.50800	695.00000
21.53000	685.00000
21.55200	725.00000
21.57400	786.00000
21.59600	898.00000
21.61800	1005.00000
21.64000	1146.00000
21.66200	1405.00000
21.68400	1703.00000
21.70600	1956.00000
21.72800	2084.00000
21.75000	2214.00000
21.77200	2062.00000
21.79400	1795.00000
21.81600	1424.00000
21.83800	1110.00000
21.86000	948.00000
21.88200	732.00000
21.90400	690.00000
21.92600	688.00000
21.94800	702.00000
21.97000	719.00000
21.99200	686.00000
22.01400	700.00000
22.03600	693.00000
22.05800	718.00000
22.08000	696.00000
22.10200	696.00000
22.12400	714.00000
22.14600	694.00000
22.16800	732.00000
22.19000	676.00000
22.21200	667.00000
22.23400	705.00000
22.25600	724.00000
22.27800	738.00000
22.30000	724.00000
22.32200	767.00000
22.34400	730.00000
22.36600	710.00000
22.38800	743.00000
22.41000	737.00000
22.43200	767.00000
22.45400	745.00000
22.47600	726.00000
22.49800	709.00000
22.52000	722.00000
22.54200	731.00000
22.56400	735.00000
22.58600	811.00000
22.60800	722.00000
22.63000	782.00000
22.65200	739.00000
22.67400	758.00000
22.69600	772.00000
22.71800	740.00000
22.74000	761.00000
22.76200	777.00000
22.78400	786.00000
22.80600	765.00000
22.82800	764.00000
22.85000	867.00000
22.87200	885.00000
22.89400	952.00000
22.91600	1198.00000
22.93800	1699.00000
22.96000	2382.00000
22.98200	3310.00000
23.00400	4622.00000
23.02600	5814.00000
23.04800	6708.00000
23.07000	6456.00000
23.09200	5914.00000
23.11400	4373.00000
23.13600	3013.00000
23.15800	2075.00000
23.18000	1365.00000
23.20200	918.00000
23.22400	809.00000
23.24600	742.00000
23.26800	711.00000
23.29000	733.00000
23.31200	732.00000
23.33400	696.00000
23.35600	701.00000
23.37800	676.00000
23.40000	698.00000
23.42200	719.00000
23.44400	692.00000
23.46600	677.00000
23.48800	681.00000
23.51000	624.00000
23.53200	655.00000
23.55400	715.00000
23.57600	664.00000
23.59800	722.00000
23.62000	672.00000
23.64200	653.00000
23.66400	727.00000
23.68600	722.00000
23.70800	698.00000
23.73000	749.00000
23.75200	765.00000
23.77400	763.00000
23.79600	840.00000
23.81800	755.00000
23.84000	807.00000
23.86200	788.00000
23.88400	761.00000
23.90600	807.00000
23.92800	796.00000
23.95000	814.00000
23.97200	791.00000
23.99400	807.00000
24.01600	796.00000
24.03800	845.00000
24.06000	862.00000
24.08200	788.00000
24.10400	810.00000
24.12600	823.00000
24.14800	764.00000
24.17000	749.00000
24.19200	686.00000
24.21400	628.00000
24.23600	672.00000
24.25800	686.00000
24.28000	641.00000
24.30200	683.00000
24.32400	668.00000
24.34600	681.00000
24.36800	708.00000
24.39000	687.00000
24.41200	626.00000
24.43400	680.00000
24.45600	671.00000
24.47800	640.00000
24.50000	697.00000
24.52200	670.00000
24.54400	686.00000
24.56600	697.00000
24.58800	732.00000
24.61000	687.00000
24.63200	729.00000
24.65400	719.00000
24.67600	697.00000
24.69800	711.00000
24.72000	689.00000
24.74200	733.00000
24.76400	680.00000
24.78600	747.00000
24.80800	712.00000
24.83000	706.00000
24.85200	692.00000
24.87400	642.00000
24.89600	676.00000
24.91800	720.00000
24.94000	729.00000
24.96200	768.00000
24.98400	669.00000
25.00600	694.00000
25.02800	721.00000
25.05000	777.00000
25.07200	718.00000
25.09400	757.00000
25.11600	713.00000
25.13800	698.00000
25.16000	697.00000
25.18200	686.00000
25.20400	729.00000
25.22600	693.00000
25.24800	747.00000
25.27000	769.00000
25.29200	757.00000
25.31400	706.00000
25.33600	738.00000
25.35800	746.00000
25.38000	766.00000
25.40200	758.00000
25.42400	788.00000
25.44600	785.00000
25.46800	704.00000
25.49000	758.00000
25.51200	788.00000
25.53400	768.00000
25.55600	797.00000
25.57800	761.00000
25.60000	822.00000
25.62200	840.00000
25.64400	793.00000
25.66600	760.00000
25.68800	835.00000
25.71000	786.00000
25.73200	864.00000
25.75400	821.00000
25.77600	840.00000
25.79800	780.00000
25.82000	856.00000
25.84200	837.00000
25.86400	866.00000
25.88600	877.00000
25.90800	858.00000
25.93000	859.00000
25.95200	867.00000
25.97400	863.00000
25.99600	965.00000
26.01800	893.00000
26.04000	850.00000
26.06200	879.00000
26.08400	989.00000
26.10600	938.00000
26.12800	997.00000
26.15000	977.00000
26.17200	1083.00000
26.19400	1249.00000
26.21600	1510.00000
26.23800	1952.00000
26.26000	2649.00000
26.28200	3943.00000
26.30400	6176.00000
26.32600	8970.00000
26.34800	11936.00000
26.37000	14518.00000
26.39200	15682.00000
26.41400	15395.00000
26.43600	13256.00000
26.45800	10431.00000
26.48000	7366.00000
26.50200	4838.00000
26.52400	3077.00000
26.54600	1841.00000
26.56800	1263.00000
26.59000	1068.00000
26.61200	943.00000
26.63400	884.00000
26.65600	858.00000
26.67800	812.00000
26.70000	803.00000
26.72200	817.00000
26.74400	804.00000
26.76600	774.00000
26.78800	811.00000
26.81000	802.00000
26.83200	750.00000
26.85400	782.00000
26.87600	804.00000
26.89800	810.00000
26.92000	851.00000
26.94200	728.00000
26.96400	774.00000
26.98600	758.00000
27.00800	692.00000
27.03000	754.00000
27.05200	742.00000
27.07400	735.00000
27.09600	761.00000
27.11800	775.00000
27.14000	748.00000
27.16200	778.00000
27.18400	743.00000
27.20600	726.00000
27.22800	742.00000
27.25000	686.00000
27.27200	743.00000
27.29400	787.00000
27.31600	740.00000
27.33800	821.00000
27.36000	934.00000
27.38200	1167.00000
27.40400	1654.00000
27.42600	2294.00000
27.44800	2923.00000
27.47000	3367.00000
27.49200	3624.00000
27.51400	3594.00000
27.53600	3087.00000
27.55800	2240.00000
27.58000	1797.00000
27.60200	1367.00000
27.62400	1014.00000
27.64600	818.00000
27.66800	711.00000
27.69000	677.00000
27.71200	723.00000
27.73400	663.00000
27.75600	650.00000
27.77800	649.00000
27.80000	636.00000
27.82200	608.00000
27.84400	622.00000
27.86600	654.00000
27.88800	667.00000
27.91000	608.00000
27.93200	637.00000
27.95400	599.00000
27.97600	563.00000
27.99800	635.00000
28.02000	597.00000
28.04200	615.00000
28.06400	613.00000
28.08600	606.00000
28.10800	667.00000
28.13000	666.00000
28.15200	656.00000
28.17400	637.00000
28.19600	664.00000
28.21800	708.00000
28.24000	755.00000
28.26200	829.00000
28.28400	1097.00000
28.30600	1302.00000
28.32800	1654.00000
28.35000	1964.00000
28.37200	1951.00000
28.39400	1893.00000
28.41600	1691.00000
28.43800	1378.00000
28.46000	1171.00000
28.48200	990.00000
28.50400	898.00000
28.52600	667.00000
28.54800	670.00000
28.57000	620.00000
28.59200	669.00000
28.61400	652.00000
28.63600	638.00000
28.65800	623.00000
28.68000	666.00000
28.70200	653.00000
28.72400	579.00000
28.74600	652.00000
28.76800	583.00000
28.79000	571.00000
28.81200	619.00000
28.83400	646.00000
28.85600	655.00000
28.87800	596.00000
28.90000	632.00000
28.92200	603.00000
28.94400	600.00000
28.96600	640.00000
28.98800	618.00000
29.01000	599.00000
29.03200	649.00000
29.05400	602.00000
29.07600	630.00000
29.09800	614.00000
29.12000	620.00000
29.14200	622.00000
29.16400	620.00000
29.18600	587.00000
29.20800	649.00000
29.23000	617.00000
29.25200	666.00000
29.27400	576.00000
29.29600	608.00000
29.31800	603.00000
29.34000	679.00000
29.36200	619.00000
29.38400	650.00000
29.40600	647.00000
29.42800	649.00000
29.45000	654.00000
29.47200	658.00000
29.49400	687.00000
29.51600	667.00000
29.53800	673.00000
29.56000	704.00000
29.58200	723.00000
29.60400	804.00000
29.62600	899.00000
29.64800	929.00000
29.67000	1181.00000
29.69200	1802.00000
29.71400	2529.00000
29.73600	3890.00000
29.75800	5130.00000
29.78000	6072.00000
29.80200	6624.00000
29.82400	6349.00000
29.84600	5411.00000
29.86800	4182.00000
29.89000	3109.00000
29.91200	2278.00000
29.93400	1648.00000
29.95600	1009.00000
29.97800	836.00000
30.00000	683.00000
30.02200	696.00000
30.04400	607.00000
30.06600	628.00000
30.08800	594.00000
30.11000	646.00000
30.13200	573.00000
30.15400	573.00000
30.17600	640.00000
30.19800	619.00000
30.22000	572.00000
30.24200	616.00000
30.26400	727.00000
30.28600	798.00000
30.30800	923.00000
30.33000	1090.00000
30.35200	1160.00000
30.37400	1229.00000
30.39600	1271.00000
30.41800	1137.00000
30.44000	991.00000
30.46200	828.00000
30.48400	786.00000
30.50600	721.00000
30.52800	635.00000
30.55000	613.00000
30.57200	562.00000
30.59400	586.00000
30.61600	569.00000
30.63800	556.00000
30.66000	564.00000
30.68200	534.00000
30.70400	588.00000
30.72600	567.00000
30.74800	565.00000
30.77000	597.00000
30.79200	560.00000
30.81400	561.00000
30.83600	528.00000
30.85800	546.00000
30.88000	552.00000
30.90200	557.00000
30.92400	520.00000
30.94600	560.00000
30.96800	531.00000
30.99000	555.00000
31.01200	535.00000
31.03400	467.00000
31.05600	550.00000
31.07800	497.00000
31.10000	513.00000
31.12200	538.00000
31.14400	516.00000
31.16600	534.00000
31.18800	544.00000
31.21000	495.00000
31.23200	495.00000
31.25400	500.00000
31.27600	509.00000
31.29800	505.00000
31.32000	510.00000
31.34200	516.00000
31.36400	533.00000
31.38600	507.00000
31.40800	525.00000
31.43000	509.00000
31.45200	544.00000
31.47400	487.00000
31.49600	491.00000
31.51800	508.00000
31.54000	487.00000
31.56200	542.00000
31.58400	535.00000
31.60600	563.00000
31.62800	534.00000
31.65000	598.00000
31.67200	647.00000
31.69400	779.00000
31.71600	968.00000
31.73800	1122.00000
31.76000	1220.00000
31.78200	1279.00000
31.80400	1279.00000
31.82600	1245.00000
31.84800	1035.00000
31.87000	923.00000
31.89200	707.00000
31.91400	737.00000
31.93600	631.00000
31.95800	550.00000
31.98000	527.00000
32.00200	559.00000
32.02400	528.00000
32.04600	584.00000
32.06800	594.00000
32.09000	556.00000
32.11200	659.00000
32.13400	658.00000
32.15600	628.00000
32.17800	610.00000
32.20000	567.00000
32.22200	557.00000
32.24400	521.00000
32.26600	519.00000
32.28800	472.00000
32.31000	497.00000
32.33200	492.00000
32.35400	541.00000
32.37600	492.00000
32.39800	484.00000
32.42000	524.00000
32.44200	478.00000
32.46400	473.00000
32.48600	516.00000
32.50800	519.00000
32.53000	502.00000
32.55200	524.00000
32.57400	546.00000
32.59600	521.00000
32.61800	521.00000
32.64000	575.00000
32.66200	680.00000
32.68400	783.00000
32.70600	1020.00000
32.72800	1260.00000
32.75000	1545.00000
32.77200	1763.00000
32.79400	1849.00000
32.81600	1952.00000
32.83800	1727.00000
32.86000	1554.00000
32.88200	1228.00000
32.90400	990.00000
32.92600	931.00000
32.94800	769.00000
32.97000	629.00000
32.99200	533.00000
33.01400	511.00000
33.03600	531.00000
33.05800	494.00000
33.08000	479.00000
33.10200	518.00000
33.12400	479.00000
33.14600	470.00000
33.16800	506.00000
33.19000	465.00000
33.21200	489.00000
33.23400	472.00000
33.25600	413.00000
33.27800	481.00000
33.30000	517.00000
33.32200	499.00000
33.34400	464.00000
33.36600	463.00000
33.38800	478.00000
33.41000	495.00000
33.43200	523.00000
33.45400	462.00000
33.47600	494.00000
33.49800	514.00000
33.52000	467.00000
33.54200	475.00000
33.56400	527.00000
33.58600	493.00000
33.60800	517.00000
33.63000	549.00000
33.65200	469.00000
33.67400	520.00000
33.69600	518.00000
33.71800	619.00000
33.74000	584.00000
33.76200	630.00000
33.78400	758.00000
33.80600	952.00000
33.82800	1347.00000
33.85000	1939.00000
33.87200	2775.00000
33.89400	3333.00000
33.91600	3612.00000
33.93800	3681.00000
33.96000	3667.00000
33.98200	3242.00000
34.00400	2393.00000
34.02600	1819.00000
34.04800	1561.00000
34.07000	1140.00000
34.09200	847.00000
34.11400	645.00000
34.13600	553.00000
34.15800	491.00000
34.18000	450.00000
34.20200	485.00000
34.22400	467.00000
34.24600	509.00000
34.26800	433.00000
34.29000	440.00000
34.31200	455.00000
34.33400	468.00000
34.35600	488.00000
34.37800	419.00000
34.40000	482.00000
34.42200	405.00000
34.44400	425.00000
34.46600	438.00000
34.48800	443.00000
34.51000	440.00000
34.53200	427.00000
34.55400	433.00000
34.57600	402.00000
34.59800	413.00000
34.62000	420.00000
34.64200	401.00000
34.66400	387.00000
34.68600	413.00000
34.70800	421.00000
34.73000	428.00000
34.75200	423.00000
34.77400	428.00000
34.79600	382.00000
34.81800	442.00000
34.84000	399.00000
34.86200	412.00000
34.88400	390.00000
34.90600	420.00000
34.92800	400.00000
34.95000	409.00000
34.97200	399.00000
34.99400	385.00000
35.01600	384.00000
35.03800	392.00000
35.06000	396.00000
35.08200	403.00000
35.10400	394.00000
35.12600	426.00000
35.14800	385.00000
35.17000	383.00000
35.19200	407.00000
35.21400	387.00000
35.23600	407.00000
35.25800	429.00000
35.28000	382.00000
35.30200	391.00000
35.32400	403.00000
35.34600	370.00000
35.36800	400.00000
35.39000	383.00000
35.41200	398.00000
35.43400	341.00000
35.45600	365.00000
35.47800	376.00000
35.50000	371.00000
35.52200	383.00000
35.54400	362.00000
35.56600	352.00000
35.58800	364.00000
35.61000	375.00000
35.63200	396.00000
35.65400	357.00000
35.67600	405.00000
35.69800	393.00000
35.72000	374.00000
35.74200	396.00000
35.76400	391.00000
35.78600	352.00000
35.80800	369.00000
35.83000	372.00000
35.85200	387.00000
35.87400	391.00000
35.89600	386.00000
35.91800	447.00000
35.94000	403.00000
35.96200	368.00000
35.98400	381.00000
36.00600	374.00000
36.02800	383.00000
36.05000	361.00000
36.07200	392.00000
36.09400	399.00000
36.11600	403.00000
36.13800	392.00000
36.16000	441.00000
36.18200	397.00000
36.20400	386.00000
36.22600	405.00000
36.24800	398.00000
36.27000	352.00000
36.29200	403.00000
36.31400	380.00000
36.33600	424.00000
36.35800	405.00000
36.38000	352.00000
36.40200	380.00000
36.42400	411.00000
36.44600	373.00000
36.46800	384.00000
36.49000	397.00000
36.51200	366.00000
36.53400	366.00000
36.55600	355.00000
36.57800	390.00000
36.60000	388.00000
36.62200	394.00000
36.64400	397.00000
36.66600	401.00000
36.68800	387.00000
36.71000	412.00000
36.73200	370.00000
36.75400	382.00000
36.77600	405.00000
36.79800	381.00000
36.82000	389.00000
36.84200	414.00000
36.86400	387.00000
36.88600	396.00000
36.90800	410.00000
36.93000	368.00000
36.95200	393.00000
36.97400	404.00000
36.99600	413.00000
37.01800	444.00000
37.04000	438.00000
37.06200	486.00000
37.08400	644.00000
37.10600	721.00000
37.12800	812.00000
37.15000	932.00000
37.17200	1094.00000
37.19400	1395.00000
37.21600	1625.00000
37.23800	1705.00000
37.26000	1779.00000
37.28200	1670.00000
37.30400	1677.00000
37.32600	1579.00000
37.34800	1271.00000
37.37000	1054.00000
37.39200	894.00000
37.41400	703.00000
37.43600	630.00000
37.45800	530.00000
37.48000	452.00000
37.50200	421.00000
37.52400	425.00000
37.54600	367.00000
37.56800	396.00000
37.59000	378.00000
37.61200	367.00000
37.63400	408.00000
37.65600	414.00000
37.67800	370.00000
37.70000	411.00000
37.72200	423.00000
37.74400	397.00000
37.76600	422.00000
37.78800	410.00000
37.81000	428.00000
37.83200	439.00000
37.85400	505.00000
37.87600	604.00000
37.89800	934.00000
37.92000	1280.00000
37.94200	1622.00000
37.96400	1938.00000
37.98600	2138.00000
38.00800	2298.00000
38.03000	2129.00000
38.05200	1935.00000
38.07400	1523.00000
38.09600	1157.00000
38.11800	1067.00000
38.14000	865.00000
38.16200	663.00000
38.18400	492.00000
38.20600	480.00000
38.22800	376.00000
38.25000	409.00000
38.27200	361.00000
38.29400	382.00000
38.31600	378.00000
38.33800	361.00000
38.36000	372.00000
38.38200	353.00000
38.40400	361.00000
38.42600	346.00000
38.44800	380.00000
38.47000	378.00000
38.49200	356.00000
38.51400	347.00000
38.53600	365.00000
38.55800	382.00000
38.58000	398.00000
38.60200	370.00000
38.62400	370.00000
38.64600	352.00000
38.66800	352.00000
38.69000	354.00000
38.71200	364.00000
38.73400	320.00000
38.75600	350.00000
38.77800	325.00000
38.80000	327.00000
38.82200	329.00000
38.84400	327.00000
38.86600	342.00000
38.88800	319.00000
38.91000	317.00000
38.93200	314.00000
38.95400	327.00000
38.97600	338.00000
38.99800	337.00000
39.02000	335.00000
39.04200	295.00000
39.06400	322.00000
39.08600	351.00000
39.10800	300.00000
39.13000	329.00000
39.15200	288.00000
39.17400	331.00000
39.19600	340.00000
39.21800	325.00000
39.24000	303.00000
39.26200	282.00000
39.28400	327.00000
39.30600	327.00000
39.32800	295.00000
39.35000	316.00000
39.37200	303.00000
39.39400	314.00000
39.41600	308.00000
39.43800	291.00000
39.46000	325.00000
39.48200	339.00000
39.50400	302.00000
39.52600	304.00000
39.54800	328.00000
39.57000	281.00000
39.59200	356.00000
39.61400	316.00000
39.63600	375.00000
39.65800	357.00000
39.68000	305.00000
39.70200	340.00000
39.72400	337.00000
39.74600	320.00000
39.76800	373.00000
39.79000	333.00000
39.81200	310.00000
39.83400	302.00000
39.85600	309.00000
39.87800	312.00000
39.90000	355.00000
39.92200	325.00000
39.94400	314.00000
39.96600	364.00000
39.98800	321.00000
40.01000	298.00000
40.03200	320.00000
40.05400	326.00000
40.07600	349.00000
40.09800	354.00000
40.12000	356.00000
40.14200	286.00000
40.16400	297.00000
40.18600	339.00000
40.20800	321.00000
40.23000	360.00000
40.25200	299.00000
40.27400	362.00000
40.29600	337.00000
40.31800	337.00000
40.34000	324.00000
40.36200	361.00000
40.38400	336.00000
40.40600	327.00000
40.42800	334.00000
40.45000	336.00000
40.47200	350.00000
40.49400	405.00000
40.51600	442.00000
40.53800	432.00000
40.56000	475.00000
40.58200	428.00000
40.60400	440.00000
40.62600	396.00000
40.64800	410.00000
40.67000	415.00000
40.69200	352.00000
40.71400	336.00000
40.73600	334.00000
40.75800	308.00000
40.78000	342.00000
40.80200	341.00000
40.82400	339.00000
40.84600	336.00000
40.86800	309.00000
40.89000	347.00000
40.91200	345.00000
40.93400	339.00000
40.95600	318.00000
40.97800	354.00000
41.00000	324.00000
41.02200	316.00000
41.04400	346.00000
41.06600	307.00000
41.08800	331.00000
41.11000	311.00000
41.13200	360.00000
41.15400	318.00000
41.17600	326.00000
41.19800	324.00000
41.22000	316.00000
41.24200	315.00000
41.26400	323.00000
41.28600	332.00000
41.30800	313.00000
41.33000	351.00000
41.35200	315.00000
41.37400	332.00000
41.39600	340.00000
41.41800	338.00000
41.44000	361.00000
41.46200	460.00000
41.48400	499.00000
41.50600	603.00000
41.52800	706.00000
41.55000	863.00000
41.57200	922.00000
41.59400	929.00000
41.61600	1074.00000
41.63800	1001.00000
41.66000	901.00000
41.68200	743.00000
41.70400	659.00000
41.72600	630.00000
41.74800	554.00000
41.77000	480.00000
41.79200	421.00000
41.81400	352.00000
41.83600	383.00000
41.85800	333.00000
41.88000	341.00000
41.90200	385.00000
41.92400	389.00000
41.94600	472.00000
41.96800	500.00000
41.99000	564.00000
42.01200	606.00000
42.03400	606.00000
42.05600	604.00000
42.07800	660.00000
42.10000	617.00000
42.12200	531.00000
42.14400	509.00000
42.16600	484.00000
42.18800	425.00000
42.21000	389.00000
42.23200	369.00000
42.25400	348.00000
42.27600	375.00000
42.29800	358.00000
42.32000	374.00000
42.34200	386.00000
42.36400	455.00000
42.38600	380.00000
42.40800	436.00000
42.43000	497.00000
42.45200	562.00000
42.47400	682.00000
42.49600	766.00000
42.51800	1054.00000
42.54000	1415.00000
42.56200	1649.00000
42.58400	1752.00000
42.60600	1840.00000
42.62800	1936.00000
42.65000	1794.00000
42.67200	1708.00000
42.69400	1294.00000
42.71600	1062.00000
42.73800	928.00000
42.76000	861.00000
42.78200	762.00000
42.80400	514.00000
42.82600	417.00000
42.84800	367.00000
42.87000	369.00000
42.89200	367.00000
42.91400	351.00000
42.93600	400.00000
42.95800	426.00000
42.98000	481.00000
43.00200	545.00000
43.02400	531.00000
43.04600	556.00000
43.06800	540.00000
43.09000	591.00000
43.11200	534.00000
43.13400	521.00000
43.15600	420.00000
43.17800	394.00000
43.20000	407.00000
43.22200	388.00000
43.24400	393.00000
43.26600	384.00000
43.28800	473.00000
43.31000	516.00000
43.33200	537.00000
43.35400	598.00000
43.37600	560.00000
43.39800	591.00000
43.42000	635.00000
43.44200	566.00000
43.46400	479.00000
43.48600	462.00000
43.50800	430.00000
43.53000	452.00000
43.55200	375.00000
43.57400	338.00000
43.59600	308.00000
43.61800	320.00000
43.64000	329.00000
43.66200	330.00000
43.68400	358.00000
43.70600	321.00000
43.72800	351.00000
43.75000	335.00000
43.77200	332.00000
43.79400	323.00000
43.81600	344.00000
43.83800	309.00000
43.86000	295.00000
43.88200	348.00000
43.90400	293.00000
43.92600	344.00000
43.94800	310.00000
43.97000	280.00000
43.99200	327.00000
44.01400	319.00000
44.03600	306.00000
44.05800	325.00000
44.08000	343.00000
44.10200	390.00000
44.12400	408.00000
44.14600	497.00000
44.16800	559.00000
44.19000	534.00000
44.21200	545.00000
44.23400	610.00000
44.25600	659.00000
44.27800	701.00000
44.30000	722.00000
44.32200	688.00000
44.34400	675.00000
44.36600	660.00000
44.38800	602.00000
44.41000	545.00000
44.43200	467.00000
44.45400	445.00000
44.47600	423.00000
44.49800	379.00000
44.52000	356.00000
44.54200	364.00000
44.56400	330.00000
44.58600	347.00000
44.60800	322.00000
44.63000	363.00000
44.65200	397.00000
44.67400	419.00000
44.69600	452.00000
44.71800	548.00000
44.74000	584.00000
44.76200	634.00000
44.78400	766.00000
44.80600	975.00000
44.82800	1111.00000
44.85000	1191.00000
44.87200	1172.00000
44.89400	1256.00000
44.91600	1288.00000
44.93800	1120.00000
44.96000	955.00000
44.98200	721.00000
45.00400	654.00000
45.02600	618.00000
45.04800	599.00000
45.07000	479.00000
45.09200	399.00000
45.11400	366.00000
45.13600	314.00000
45.15800	306.00000
45.18000	297.00000
45.20200	313.00000
45.22400	308.00000
45.24600	296.00000
45.26800	313.00000
45.29000	273.00000
45.31200	282.00000
45.33400	278.00000
45.35600	295.00000
45.37800	298.00000
45.40000	261.00000
45.42200	284.00000
45.44400	243.00000
45.46600	283.00000
45.48800	284.00000
45.51000	329.00000
45.53200	309.00000
45.55400	297.00000
45.57600	297.00000
45.59800	293.00000
45.62000	273.00000
45.64200	308.00000
45.66400	267.00000
45.68600	293.00000
45.70800	277.00000
45.73000	318.00000
45.75200	273.00000
45.77400	274.00000
45.79600	284.00000
45.81800	323.00000
45.84000	312.00000
45.86200	271.00000
45.88400	286.00000
45.90600	299.00000
45.92800	287.00000
45.95000	270.00000
45.97200	288.00000
45.99400	254.00000
46.01600	288.00000
46.03800	278.00000
46.06000	277.00000
46.08200	257.00000
46.10400	290.00000
46.12600	272.00000
46.14800	246.00000
46.17000	259.00000
46.19200	293.00000
46.21400	274.00000
46.23600	272.00000
46.25800	271.00000
46.28000	274.00000
46.30200	265.00000
46.32400	289.00000
46.34600	284.00000
46.36800	291.00000
46.39000	261.00000
46.41200	272.00000
46.43400	278.00000
46.45600	270.00000
46.47800	249.00000
46.50000	288.00000
46.52200	276.00000
46.54400	294.00000
46.56600	276.00000
46.58800	263.00000
46.61000	320.00000
46.63200	282.00000
46.65400	279.00000
46.67600	317.00000
46.69800	296.00000
46.72000	334.00000
46.74200	380.00000
46.76400	387.00000
46.78600	404.00000
46.80800	460.00000
46.83000	395.00000
46.85200	448.00000
46.87400	443.00000
46.89600	452.00000
46.91800	440.00000
46.94000	413.00000
46.96200	381.00000
46.98400	355.00000
47.00600	351.00000
47.02800	383.00000
47.05000	363.00000
47.07200	312.00000
47.09400	304.00000
47.11600	289.00000
47.13800	277.00000
47.16000	267.00000
47.18200	314.00000
47.20400	295.00000
47.22600	302.00000
47.24800	259.00000
47.27000	284.00000
47.29200	281.00000
47.31400	311.00000
47.33600	275.00000
47.35800	282.00000
47.38000	254.00000
47.40200	282.00000
47.42400	283.00000
47.44600	271.00000
47.46800	269.00000
47.49000	289.00000
47.51200	283.00000
47.53400	293.00000
47.55600	270.00000
47.57800	256.00000
47.60000	299.00000
47.62200	284.00000
47.64400	283.00000
47.66600	302.00000
47.68800	266.00000
47.71000	291.00000
47.73200	273.00000
47.75400	308.00000
47.77600	277.00000
47.79800	276.00000
47.82000	254.00000
47.84200	299.00000
47.86400	263.00000
47.88600	242.00000
47.90800	294.00000
47.93000	263.00000
47.95200	265.00000
47.97400	279.00000
47.99600	271.00000
48.01800	297.00000
48.04000	287.00000
48.06200	273.00000
48.08400	297.00000
48.10600	269.00000
48.12800	274.00000
48.15000	287.00000
48.17200	300.00000
48.19400	298.00000
48.21600	303.00000
48.23800	312.00000
48.26000	317.00000
48.28200	363.00000
48.30400	383.00000
48.32600	568.00000
48.34800	679.00000
48.37000	767.00000
48.39200	771.00000
48.41400	825.00000
48.43600	879.00000
48.45800	896.00000
48.48000	831.00000
48.50200	703.00000
48.52400	604.00000
48.54600	523.00000
48.56800	552.00000
48.59000	517.00000
48.61200	439.00000
48.63400	360.00000
48.65600	358.00000
48.67800	313.00000
48.70000	275.00000
48.72200	279.00000
48.74400	293.00000
48.76600	286.00000
48.78800	267.00000
48.81000	265.00000
48.83200	301.00000
48.85400	300.00000
48.87600	293.00000
48.89800	275.00000
48.92000	286.00000
48.94200	297.00000
48.96400	295.00000
48.98600	270.00000
49.00800	265.00000
49.03000	286.00000
49.05200	290.00000
49.07400	284.00000
49.09600	272.00000
49.11800	269.00000
49.14000	243.00000
49.16200	253.00000
49.18400	271.00000
49.20600	255.00000
49.22800	271.00000
49.25000	254.00000
49.27200	269.00000
49.29400	296.00000
49.31600	282.00000
49.33800	261.00000
49.36000	248.00000
49.38200	288.00000
49.40400	271.00000
49.42600	259.00000
49.44800	264.00000
49.47000	271.00000
49.49200	297.00000
49.51400	275.00000
49.53600	287.00000
49.55800	316.00000
49.58000	302.00000
49.60200	281.00000
49.62400	303.00000
49.64600	294.00000
49.66800	313.00000
49.69000	291.00000
49.71200	333.00000
49.73400	315.00000
49.75600	307.00000
49.77800	326.00000
49.80000	320.00000
49.82200	318.00000
49.84400	307.00000
49.86600	365.00000
49.88800	385.00000
49.91000	369.00000
49.93200	394.00000
49.95400	428.00000
49.97600	465.00000
49.99800	572.00000
50.02000	607.00000
50.04200	609.00000
50.06400	633.00000
50.08600	655.00000
50.10800	679.00000
50.13000	623.00000
50.15200	524.00000
50.17400	453.00000
50.19600	426.00000
50.21800	408.00000
50.24000	417.00000
50.26200	386.00000
50.28400	326.00000
50.30600	327.00000
50.32800	296.00000
50.35000	301.00000
50.37200	333.00000
50.39400	290.00000
50.41600	342.00000
50.43800	325.00000
50.46000	349.00000
50.48200	327.00000
50.50400	341.00000
50.52600	344.00000
50.54800	389.00000
50.57000	351.00000
50.59200	374.00000
50.61400	384.00000
50.63600	364.00000
50.65800	345.00000
50.68000	413.00000
50.70200	530.00000
50.72400	655.00000
50.74600	839.00000
50.76800	946.00000
50.79000	1117.00000
50.81200	1157.00000
50.83400	1355.00000
50.85600	1410.00000
50.87800	1336.00000
50.90000	1068.00000
50.92200	870.00000
50.94400	748.00000
50.96600	761.00000
50.98800	726.00000
51.01000	657.00000
51.03200	573.00000
51.05400	452.00000
51.07600	434.00000
51.09800	337.00000
51.12000	376.00000
51.14200	370.00000
51.16400	360.00000
51.18600	343.00000
51.20800	329.00000
51.23000	325.00000
51.25200	299.00000
51.27400	344.00000
51.29600	288.00000
51.31800	313.00000
51.34000	321.00000
51.36200	334.00000
51.38400	402.00000
51.40600	404.00000
51.42800	421.00000
51.45000	439.00000
51.47200	436.00000
51.49400	465.00000
51.51600	455.00000
51.53800	385.00000
51.56000	356.00000
51.58200	308.00000
51.60400	356.00000
51.62600	343.00000
51.64800	357.00000
51.67000	305.00000
51.69200	273.00000
51.71400	272.00000
51.73600	274.00000
51.75800	240.00000
51.78000	281.00000
51.80200	276.00000
51.82400	297.00000
51.84600	261.00000
51.86800	255.00000
51.89000	250.00000
51.91200	256.00000
51.93400	270.00000
51.95600	246.00000
51.97800	312.00000
52.00000	272.00000
52.02200	291.00000
52.04400	279.00000
52.06600	285.00000
52.08800	260.00000
52.11000	254.00000
52.13200	276.00000
52.15400	283.00000
52.17600	263.00000
52.19800	270.00000
52.22000	265.00000
52.24200	315.00000
52.26400	341.00000
52.28600	363.00000
52.30800	387.00000
52.33000	434.00000
52.35200	416.00000
52.37400	449.00000
52.39600	452.00000
52.41800	445.00000
52.44000	403.00000
52.46200	402.00000
52.48400	383.00000
52.50600	383.00000
52.52800	397.00000
52.55000	374.00000
52.57200	330.00000
52.59400	367.00000
52.61600	310.00000
52.63800	258.00000
52.66000	279.00000
52.68200	294.00000
52.70400	287.00000
52.72600	275.00000
52.74800	289.00000
52.77000	289.00000
52.79200	289.00000
52.81400	290.00000
52.83600	301.00000
52.85800	403.00000
52.88000	394.00000
52.90200	431.00000
52.92400	416.00000
52.94600	468.00000
52.96800	446.00000
52.99000	491.00000
53.01200	466.00000
53.03400	409.00000
53.05600	404.00000
53.07800	355.00000
53.10000	334.00000
53.12200	330.00000
53.14400	335.00000
53.16600	310.00000
53.18800	281.00000
53.21000	283.00000
53.23200	303.00000
53.25400	275.00000
53.27600	283.00000
53.29800	282.00000
53.32000	251.00000
53.34200	269.00000
53.36400	257.00000
53.38600	242.00000
53.40800	272.00000
53.43000	287.00000
53.45200	314.00000
53.47400	275.00000
53.49600	270.00000
53.51800	270.00000
53.54000	264.00000
53.56200	242.00000
53.58400	279.00000
53.60600	232.00000
53.62800	288.00000
53.65000	244.00000
53.67200	277.00000
53.69400	278.00000
53.71600	287.00000
53.73800	263.00000
53.76000	277.00000
53.78200	278.00000
53.80400	282.00000
53.82600	272.00000
53.84800	263.00000
53.87000	264.00000
53.89200	260.00000
53.91400	265.00000
53.93600	265.00000
53.95800	266.00000
53.98000	293.00000
54.00200	253.00000
54.02400	308.00000
54.04600	269.00000
54.06800	276.00000
54.09000	369.00000
54.11200	379.00000
54.13400	397.00000
54.15600	438.00000
54.17800	494.00000
54.20000	561.00000
54.22200	558.00000
54.24400	622.00000
54.26600	700.00000
54.28800	697.00000
54.31000	659.00000
54.33200	591.00000
54.35400	597.00000
54.37600	655.00000
54.39800	584.00000
54.42000	494.00000
54.44200	459.00000
54.46400	440.00000
54.48600	377.00000
54.50800	402.00000
54.53000	321.00000
54.55200	295.00000
54.57400	313.00000
54.59600	275.00000
54.61800	313.00000
54.64000	304.00000
54.66200	282.00000
54.68400	256.00000
54.70600	278.00000
54.72800	290.00000
54.75000	293.00000
54.77200	290.00000
54.79400	298.00000
54.81600	300.00000
54.83800	268.00000
54.86000	301.00000
54.88200	268.00000
54.90400	278.00000
54.92600	276.00000
54.94800	261.00000
54.97000	267.00000
54.99200	268.00000
55.01400	271.00000
55.03600	275.00000
55.05800	286.00000
55.08000	270.00000
55.10200	250.00000
55.12400	258.00000
55.14600	260.00000
55.16800	287.00000
55.19000	279.00000
55.21200	259.00000
55.23400	258.00000
55.25600	283.00000
55.27800	269.00000
55.30000	262.00000
55.32200	261.00000
55.34400	273.00000
55.36600	308.00000
55.38800	305.00000
55.41000	315.00000
55.43200	361.00000
55.45400	424.00000
55.47600	456.00000
55.49800	515.00000
55.52000	545.00000
55.54200	551.00000
55.56400	568.00000
55.58600	593.00000
55.60800	587.00000
55.63000	536.00000
55.65200	468.00000
55.67400	426.00000
55.69600	418.00000
55.71800	420.00000
55.74000	398.00000
55.76200	387.00000
55.78400	359.00000
55.80600	276.00000
55.82800	302.00000
55.85000	320.00000
55.87200	255.00000
55.89400	291.00000
55.91600	279.00000
55.93800	259.00000
55.96000	275.00000
55.98200	254.00000
56.00400	270.00000
56.02600	293.00000
56.04800	294.00000
56.07000	280.00000
56.09200	276.00000
56.11400	291.00000
56.13600	284.00000
56.15800	305.00000
56.18000	285.00000
56.20200	247.00000
56.22400	281.00000
56.24600	298.00000
56.26800	281.00000
56.29000	311.00000
56.31200	328.00000
56.33400	273.00000
56.35600	293.00000
56.37800	309.00000
56.40000	318.00000
56.42200	330.00000
56.44400	445.00000
56.46600	560.00000
56.48800	626.00000
56.51000	702.00000
56.53200	745.00000
56.55400	733.00000
56.57600	849.00000
56.59800	884.00000
56.62000	791.00000
56.64200	771.00000
56.66400	625.00000
56.68600	572.00000
56.70800	575.00000
56.73000	536.00000
56.75200	555.00000
56.77400	503.00000
56.79600	412.00000
56.81800	337.00000
56.84000	333.00000
56.86200	301.00000
56.88400	321.00000
56.90600	321.00000
56.92800	323.00000
56.95000	274.00000
56.97200	304.00000
56.99400	276.00000
57.01600	264.00000
57.03800	262.00000
57.06000	269.00000
57.08200	300.00000
57.10400	247.00000
57.12600	263.00000
57.14800	250.00000
57.17000	298.00000
57.19200	270.00000
57.21400	245.00000
57.23600	251.00000
57.25800	260.00000
57.28000	279.00000
57.30200	264.00000
57.32400	283.00000
57.34600	298.00000
57.36800	290.00000
57.39000	271.00000
57.41200	279.00000
57.43400	274.00000
57.45600	273.00000
57.47800	268.00000
57.50000	265.00000
57.52200	313.00000
57.54400	273.00000
57.56600	277.00000
57.58800	246.00000
57.61000	256.00000
57.63200	259.00000
57.65400	285.00000
57.67600	285.00000
57.69800	245.00000
57.72000	262.00000
57.74200	276.00000
57.76400	295.00000
57.78600	276.00000
57.80800	252.00000
57.83000	302.00000
57.85200	286.00000
57.87400	239.00000
57.89600	305.00000
57.91800	266.00000
57.94000	280.00000
57.96200	246.00000
57.98400	281.00000
58.00600	251.00000
58.02800	247.00000
58.05000	285.00000
58.07200	266.00000
58.09400	272.00000
58.11600	270.00000
58.13800	289.00000
58.16000	261.00000
58.18200	263.00000
58.20400	297.00000
58.22600	282.00000
58.24800	311.00000
58.27000	376.00000
58.29200	371.00000
58.31400	390.00000
58.33600	448.00000
58.35800	458.00000
58.38000	491.00000
58.40200	526.00000
58.42400	437.00000
58.44600	436.00000
58.46800	427.00000
58.49000	408.00000
58.51200	444.00000
58.53400	411.00000
58.55600	416.00000
58.57800	469.00000
58.60000	448.00000
58.62200	403.00000
58.64400	406.00000
58.66600	348.00000
58.68800	346.00000
58.71000	325.00000
58.73200	326.00000
58.75400	344.00000
58.77600	318.00000
58.79800	313.00000
58.82000	301.00000
58.84200	323.00000
58.86400	251.00000
58.88600	279.00000
58.90800	271.00000
58.93000	262.00000
58.95200	281.00000
58.97400	274.00000
58.99600	283.00000
59.01800	288.00000
59.04000	282.00000
59.06200	269.00000
59.08400	291.00000
59.10600	305.00000
59.12800	259.00000
59.15000	272.00000
59.17200	278.00000
59.19400	295.00000
59.21600	323.00000
59.23800	374.00000
59.26000	416.00000
59.28200	466.00000
59.30400	446.00000
59.32600	428.00000
59.34800	525.00000
59.37000	528.00000
59.39200	453.00000
59.41400	497.00000
59.43600	433.00000
59.45800	394.00000
59.48000	344.00000
59.50200	374.00000
59.52400	398.00000
59.54600	373.00000
59.56800	350.00000
59.59000	337.00000
59.61200	321.00000
59.63400	265.00000
59.65600	274.00000
59.67800	303.00000
59.70000	280.00000
59.72200	264.00000
59.74400	341.00000
59.76600	277.00000
59.78800	278.00000
59.81000	285.00000
59.83200	304.00000
59.85400	271.00000
59.87600	283.00000
59.89800	277.00000
59.92000	285.00000
59.94200	295.00000
59.96400	285.00000
59.98600	280.00000
60.00800	247.00000
60.03000	282.00000
60.05200	257.00000
60.07400	294.00000
60.09600	269.00000
60.11800	285.00000
60.14000	270.00000
60.16200	289.00000
60.18400	281.00000
60.20600	274.00000
60.22800	247.00000
60.25000	279.00000
60.27200	281.00000
60.29400	254.00000
60.31600	276.00000
60.33800	246.00000
60.36000	277.00000
60.38200	280.00000
60.40400	270.00000
60.42600	267.00000
60.44800	266.00000
60.47000	272.00000
60.49200	288.00000
60.51400	298.00000
60.53600	264.00000
60.55800	264.00000
60.58000	272.00000
60.60200	274.00000
60.62400	299.00000
60.64600	310.00000
60.66800	312.00000
60.69000	332.00000
60.71200	351.00000
60.73400	446.00000
60.75600	437.00000
60.77800	496.00000
60.80000	557.00000
60.82200	604.00000
60.84400	589.00000
60.86600	653.00000
60.88800	657.00000
60.91000	567.00000
60.93200	509.00000
60.95400	483.00000
60.97600	399.00000
60.99800	448.00000
61.02000	380.00000
61.04200	384.00000
61.06400	385.00000
61.08600	367.00000
61.10800	309.00000
61.13000	292.00000
61.15200	295.00000
61.17400	295.00000
61.19600	277.00000
61.21800	277.00000
61.24000	283.00000
61.26200	263.00000
61.28400	270.00000
61.30600	266.00000
61.32800	270.00000
61.35000	301.00000
61.37200	289.00000
61.39400	287.00000
61.41600	254.00000
61.43800	276.00000
61.46000	297.00000
61.48200	306.00000
61.50400	291.00000
61.52600	315.00000
61.54800	312.00000
61.57000	346.00000
61.59200	342.00000
61.61400	344.00000
61.63600	337.00000
61.65800	377.00000
61.68000	367.00000
61.70200	415.00000
61.72400	492.00000
61.74600	571.00000
61.76800	656.00000
61.79000	710.00000
61.81200	823.00000
61.83400	841.00000
61.85600	884.00000
61.87800	873.00000
61.90000	817.00000
61.92200	704.00000
61.94400	609.00000
61.96600	525.00000
61.98800	519.00000
62.01000	506.00000
62.03200	505.00000
62.05400	498.00000
62.07600	440.00000
62.09800	384.00000
62.12000	359.00000
62.14200	296.00000
62.16400	283.00000
62.18600	282.00000
62.20800	277.00000
62.23000	259.00000
62.25200	273.00000
62.27400	275.00000
62.29600	275.00000
62.31800	304.00000
62.34000	293.00000
62.36200	330.00000
62.38400	270.00000
62.40600	320.00000
62.42800	302.00000
62.45000	288.00000
62.47200	299.00000
62.49400	345.00000
62.51600	261.00000
62.53800	270.00000
62.56000	268.00000
62.58200	260.00000
62.60400	291.00000
62.62600	278.00000
62.64800	271.00000
62.67000	288.00000
62.69200	261.00000
62.71400	264.00000
62.73600	291.00000
62.75800	269.00000
62.78000	281.00000
62.80200	252.00000
62.82400	279.00000
62.84600	274.00000
62.86800	260.00000
62.89000	286.00000
62.91200	319.00000
62.93400	273.00000
62.95600	320.00000
62.97800	312.00000
63.00000	334.00000
63.02200	344.00000
63.04400	303.00000
63.06600	346.00000
63.08800	334.00000
63.11000	287.00000
63.13200	309.00000
63.15400	308.00000
63.17600	307.00000
63.19800	314.00000
63.22000	306.00000
63.24200	306.00000
63.26400	316.00000
63.28600	299.00000
63.30800	308.00000
63.33000	315.00000
63.35200	309.00000
63.37400	363.00000
63.39600	356.00000
63.41800	385.00000
63.44000	406.00000
63.46200	424.00000
63.48400	410.00000
63.50600	429.00000
63.52800	379.00000
63.55000	423.00000
63.57200	437.00000
63.59400	421.00000
63.61600	411.00000
63.63800	377.00000
63.66000	337.00000
63.68200	325.00000
63.70400	362.00000
63.72600	313.00000
63.74800	326.00000
63.77000	335.00000
63.79200	264.00000
63.81400	271.00000
63.83600	277.00000
63.85800	263.00000
63.88000	265.00000
63.90200	231.00000
63.92400	264.00000
63.94600	257.00000
63.96800	280.00000
63.99000	290.00000
64.01200	275.00000
64.03400	242.00000
64.05600	276.00000
64.07800	254.00000
64.10000	271.00000
64.12200	264.00000
64.14400	270.00000
64.16600	238.00000
64.18800	282.00000
64.21000	270.00000
64.23200	279.00000
64.25400	245.00000
64.27600	292.00000
64.29800	272.00000
64.32000	288.00000
64.34200	257.00000
64.36400	249.00000
64.38600	231.00000
64.40800	268.00000
64.43000	252.00000
64.45200	258.00000
64.47400	232.00000
64.49600	239.00000
64.51800	241.00000
64.54000	243.00000
64.56200	261.00000
64.58400	278.00000
64.60600	235.00000
64.62800	275.00000
64.65000	252.00000
64.67200	258.00000
64.69400	250.00000
64.71600	237.00000
64.73800	259.00000
64.76000	223.00000
64.78200	231.00000
64.80400	258.00000
64.82600	240.00000
64.84800	218.00000
64.87000	277.00000
64.89200	236.00000
64.91400	217.00000
64.93600	222.00000
64.95800	245.00000
64.98000	258.00000
65.00200	282.00000
65.02400	239.00000
65.04600	234.00000
65.06800	293.00000
65.09000	277.00000
65.11200	277.00000
65.13400	296.00000
65.15600	284.00000
65.17800	335.00000
65.20000	347.00000
65.22200	367.00000
65.24400	420.00000
65.26600	382.00000
65.28800	383.00000
65.31000	362.00000
65.33200	376.00000
65.35400	383.00000
65.37600	351.00000
65.39800	378.00000
65.42000	381.00000
65.44200	376.00000
65.46400	343.00000
65.48600	315.00000
65.50800	268.00000
65.53000	299.00000
65.55200	269.00000
65.57400	283.00000
65.59600	286.00000
65.61800	268.00000
65.64000	248.00000
65.66200	262.00000
65.68400	247.00000
65.70600	272.00000
65.72800	223.00000
65.75000	259.00000
65.77200	270.00000
65.79400	238.00000
65.81600	252.00000
65.83800	241.00000
65.86000	273.00000
65.88200	241.00000
65.90400	233.00000
65.92600	241.00000
65.94800	272.00000
65.97000	255.00000
65.99200	217.00000
66.01400	261.00000
66.03600	265.00000
66.05800	262.00000
66.08000	250.00000
66.10200	254.00000
66.12400	299.00000
66.14600	273.00000
66.16800	294.00000
66.19000	275.00000
66.21200	318.00000
66.23400	314.00000
66.25600	355.00000
66.27800	390.00000
66.30000	359.00000
66.32200	408.00000
66.34400	368.00000
66.36600	331.00000
66.38800	322.00000
66.41000	353.00000
66.43200	343.00000
66.45400	293.00000
66.47600	324.00000
66.49800	317.00000
66.52000	293.00000
66.54200	298.00000
66.56400	258.00000
66.58600	285.00000
66.60800	283.00000
66.63000	249.00000
66.65200	291.00000
66.67400	234.00000
66.69600	226.00000
66.71800	265.00000
66.74000	280.00000
66.76200	248.00000
66.78400	274.00000
66.80600	307.00000
66.82800	309.00000
66.85000	330.00000
66.87200	336.00000
66.89400	369.00000
66.91600	385.00000
66.93800	434.00000
66.96000	438.00000
66.98200	408.00000
67.00400	396.00000
67.02600	371.00000
67.04800	368.00000
67.07000	376.00000
67.09200	416.00000
67.11400	428.00000
67.13600	422.00000
67.15800	380.00000
67.18000	393.00000
67.20200	332.00000
67.22400	348.00000
67.24600	305.00000
67.26800	329.00000
67.29000	330.00000
67.31200	335.00000
67.33400	365.00000
67.35600	349.00000
67.37800	374.00000
67.40000	364.00000
67.42200	375.00000
67.44400	358.00000
67.46600	358.00000
67.48800	340.00000
67.51000	324.00000
67.53200	289.00000
67.55400	294.00000
67.57600	275.00000
67.59800	290.00000
67.62000	306.00000
67.64200	343.00000
67.66400	305.00000
67.68600	290.00000
67.70800	289.00000
67.73000	314.00000
67.75200	310.00000
67.77400	296.00000
67.79600	300.00000
67.81800	225.00000
67.84000	264.00000
67.86200	284.00000
67.88400	245.00000
67.90600	241.00000
67.92800	249.00000
67.95000	297.00000
67.97200	268.00000
67.99400	241.00000
68.01600	263.00000
68.03800	254.00000
68.06000	237.00000
68.08200	260.00000
68.10400	247.00000
68.12600	213.00000
68.14800	244.00000
68.17000	277.00000
68.19200	245.00000
68.21400	251.00000
68.23600	260.00000
68.25800	242.00000
68.28000	243.00000
68.30200	245.00000
68.32400	237.00000
68.34600	264.00000
68.36800	262.00000
68.39000	254.00000
68.41200	235.00000
68.43400	223.00000
68.45600	249.00000
68.47800	237.00000
68.50000	263.00000
68.52200	235.00000
68.54400	224.00000
68.56600	243.00000
68.58800	272.00000
68.61000	252.00000
68.63200	247.00000
68.65400	245.00000
68.67600	256.00000
68.69800	239.00000
68.72000	262.00000
68.74200	264.00000
68.76400	219.00000
68.78600	262.00000
68.80800	259.00000
68.83000	259.00000
68.85200	236.00000
68.87400	221.00000
68.89600	223.00000
68.91800	241.00000
68.94000	256.00000
68.96200	214.00000
68.98400	237.00000
69.00600	247.00000
69.02800	231.00000
69.05000	258.00000
69.07200	235.00000
69.09400	212.00000
69.11600	236.00000
69.13800	240.00000
69.16000	221.00000
69.18200	237.00000
69.20400	252.00000
69.22600	244.00000
69.24800	235.00000
69.27000	240.00000
69.29200	251.00000
69.31400	291.00000
69.33600	301.00000
69.35800	305.00000
69.38000	292.00000
69.40200	347.00000
69.42400	254.00000
69.44600	275.00000
69.46800	304.00000
69.49000	265.00000
69.51200	282.00000
69.53400	275.00000
69.55600	254.00000
69.57800	285.00000
69.60000	311.00000
69.62200	284.00000
69.64400	286.00000
69.66600	296.00000
69.68800	262.00000
69.71000	265.00000
69.73200	233.00000
69.75400	255.00000
69.77600	273.00000
69.79800	280.00000
69.82000	252.00000
69.84200	303.00000
69.86400	292.00000
69.88600	311.00000
69.90800	336.00000
69.93000	307.00000
69.95200	341.00000
69.97400	256.00000
69.99600	272.00000
70.01800	252.00000
70.04000	263.00000
70.06200	264.00000
70.08400	276.00000
70.10600	299.00000
70.12800	276.00000
70.15000	292.00000
70.17200	311.00000
70.19400	282.00000
70.21600	321.00000
70.23800	320.00000
70.26000	313.00000
70.28200	302.00000
70.30400	276.00000
70.32600	248.00000
70.34800	268.00000
70.37000	259.00000
70.39200	279.00000
70.41400	299.00000
70.43600	293.00000
70.45800	295.00000
70.48000	289.00000
70.50200	254.00000
70.52400	252.00000
70.54600	269.00000
70.56800	252.00000
70.59000	296.00000
70.61200	311.00000
70.63400	298.00000
70.65600	259.00000
70.67800	312.00000
70.70000	317.00000
70.72200	330.00000
70.74400	307.00000
70.76600	301.00000
70.78800	271.00000
70.81000	298.00000
70.83200	288.00000
70.85400	294.00000
70.87600	317.00000
70.89800	367.00000
70.92000	349.00000
70.94200	347.00000
70.96400	312.00000
70.98600	311.00000
71.00800	310.00000
71.03000	305.00000
71.05200	255.00000
71.07400	283.00000
71.09600	256.00000
71.11800	249.00000
71.14000	296.00000
71.16200	257.00000
71.18400	287.00000
71.20600	241.00000
71.22800	246.00000
71.25000	262.00000
71.27200	238.00000
71.29400	229.00000
71.31600	227.00000
71.33800	233.00000
71.36000	267.00000
71.38200	243.00000
71.40400	252.00000
71.42600	263.00000
71.44800	232.00000
71.47000	219.00000
71.49200	235.00000
71.51400	250.00000
71.53600	255.00000
71.55800	260.00000
71.58000	227.00000
71.60200	233.00000
71.62400	239.00000
71.64600	261.00000
71.66800	256.00000
71.69000	271.00000
71.71200	303.00000
71.73400	304.00000
71.75600	287.00000
71.77800	306.00000
71.80000	328.00000
71.82200	352.00000
71.84400	304.00000
71.86600	321.00000
71.88800	296.00000
71.91000	282.00000
71.93200	247.00000
71.95400	263.00000
71.97600	275.00000
71.99800	252.00000
72.02000	265.00000
72.04200	259.00000
72.06400	254.00000
72.08600	213.00000
72.10800	239.00000
72.13000	230.00000
72.15200	230.00000
72.17400	249.00000
72.19600	232.00000
72.21800	234.00000
72.24000	215.00000
72.26200	249.00000
72.28400	226.00000
72.30600	231.00000
72.32800	251.00000
72.35000	272.00000
72.37200	229.00000
72.39400	254.00000
72.41600	233.00000
72.43800	242.00000
72.46000	260.00000
72.48200	229.00000
72.50400	251.00000
72.52600	213.00000
72.54800	242.00000
72.57000	228.00000
72.59200	224.00000
72.61400	225.00000
72.63600	236.00000
72.65800	239.00000
72.68000	221.00000
72.70200	239.00000
72.72400	230.00000
72.74600	238.00000
72.76800	199.00000
72.79000	230.00000
72.81200	218.00000
72.83400	232.00000
72.85600	219.00000
72.87800	269.00000
72.90000	237.00000
72.92200	239.00000
72.94400	213.00000
72.96600	227.00000
72.98800	225.00000
73.01000	237.00000
73.03200	247.00000
73.05400	220.00000
73.07600	267.00000
73.09800	255.00000
73.12000	256.00000
73.14200	260.00000
73.16400	247.00000
73.18600	287.00000
73.20800	287.00000
73.23000	307.00000
73.25200	288.00000
73.27400	311.00000
73.29600	348.00000
73.31800	376.00000
73.34000	364.00000
73.36200	423.00000
73.38400	395.00000
73.40600	335.00000
73.42800	298.00000
73.45000	294.00000
73.47200	327.00000
73.49400	304.00000
73.51600	322.00000
73.53800	331.00000
73.56000	323.00000
73.58200	333.00000
73.60400	286.00000
73.62600	288.00000
73.64800	260.00000
73.67000	261.00000
73.69200	240.00000
73.71400	254.00000
73.73600	258.00000
73.75800	253.00000
73.78000	259.00000
73.80200	259.00000
73.82400	238.00000
73.84600	262.00000
73.86800	235.00000
73.89000	215.00000
73.91200	224.00000
73.93400	231.00000
73.95600	221.00000
73.97800	241.00000
74.00000	198.00000
74.02200	232.00000
74.04400	217.00000
74.06600	208.00000
74.08800	230.00000
74.11000	195.00000
74.13200	238.00000
74.15400	233.00000
74.17600	216.00000
74.19800	232.00000
74.22000	210.00000
74.24200	236.00000
74.26400	258.00000
74.28600	245.00000
74.30800	253.00000
74.33000	229.00000
74.35200	238.00000
74.37400	319.00000
74.39600	267.00000
74.41800	262.00000
74.44000	295.00000
74.46200	313.00000
74.48400	319.00000
74.50600	310.00000
74.52800	305.00000
74.55000	308.00000
74.57200	258.00000
74.59400	241.00000
74.61600	220.00000
74.63800	255.00000
74.66000	225.00000
74.68200	257.00000
74.70400	259.00000
74.72600	281.00000
74.74800	270.00000
74.77000	266.00000
74.79200	268.00000
74.81400	256.00000
74.83600	274.00000
74.85800	270.00000
74.88000	262.00000
74.90200	274.00000
74.92400	296.00000
74.94600	289.00000
74.96800	294.00000
74.99000	274.00000
75.01200	249.00000
75.03400	263.00000
75.05600	263.00000
75.07800	257.00000
75.10000	248.00000
75.12200	260.00000
75.14400	280.00000
75.16600	242.00000
75.18800	238.00000
75.21000	243.00000
75.23200	267.00000
75.25400	250.00000
75.27600	261.00000
75.29800	287.00000
75.32000	282.00000
75.34200	317.00000
75.36400	316.00000
75.38600	349.00000
75.40800	351.00000
75.43000	365.00000
75.45200	368.00000
75.47400	321.00000
75.49600	317.00000
75.51800	261.00000
75.54000	275.00000
75.56200	263.00000
75.58400	304.00000
75.60600	323.00000
75.62800	328.00000
75.65000	353.00000
75.67200	360.00000
75.69400	312.00000
75.71600	357.00000
75.73800	350.00000
75.76000	339.00000
75.78200	348.00000
75.80400	314.00000
75.82600	284.00000
75.84800	268.00000
75.87000	266.00000
75.89200	261.00000
75.91400	271.00000
75.93600	273.00000
75.95800	269.00000
75.98000	263.00000
76.00200	268.00000
76.02400	251.00000
76.04600	253.00000
76.06800	248.00000
76.09000	233.00000
76.11200	248.00000
76.13400	229.00000
76.15600	272.00000
76.17800	250.00000
76.20000	234.00000
76.22200	250.00000
76.24400	251.00000
76.26600	249.00000
76.28800	254.00000
76.31000	235.00000
76.33200	214.00000
76.35400	219.00000
76.37600	198.00000
76.39800	224.00000
76.42000	217.00000
76.44200	213.00000
76.46400	251.00000
76.48600	213.00000
76.50800	245.00000
76.53000	240.00000
76.55200	237.00000
76.57400	246.00000
76.59600	260.00000
76.61800	255.00000
76.64000	257.00000
76.66200	264.00000
76.68400	292.00000
76.70600	257.00000
76.72800	243.00000
76.75000	257.00000
76.77200	233.00000
76.79400	248.00000
76.81600	253.00000
76.83800	239.00000
76.86000	226.00000
76.88200	246.00000
76.90400	252.00000
76.92600	245.00000
76.94800	261.00000
76.97000	257.00000
76.99200	275.00000
77.01400	272.00000
77.03600	289.00000
77.05800	336.00000
77.08000	304.00000
77.10200	347.00000
77.12400	341.00000
77.14600	330.00000
77.16800	322.00000
77.19000	283.00000
77.21200	253.00000
77.23400	261.00000
77.25600	260.00000
77.27800	273.00000
77.30000	266.00000
77.32200	295.00000
77.34400	285.00000
77.36600	265.00000
77.38800	259.00000
77.41000	219.00000
77.43200	234.00000
77.45400	218.00000
77.47600	232.00000
77.49800	215.00000
77.52000	252.00000
77.54200	250.00000
77.56400	235.00000
77.58600	249.00000
77.60800	258.00000
77.63000	252.00000
77.65200	248.00000
77.67400	241.00000
77.69600	233.00000
77.71800	211.00000
77.74000	241.00000
77.76200	231.00000
77.78400	226.00000
77.80600	224.00000
77.82800	233.00000
77.85000	217.00000
77.87200	244.00000
77.89400	234.00000
77.91600	226.00000
77.93800	231.00000
77.96000	182.00000
77.98200	227.00000
78.00400	188.00000
78.02600	238.00000
78.04800	237.00000
78.07000	253.00000
78.09200	217.00000
78.11400	222.00000
78.13600	197.00000
78.15800	225.00000
78.18000	219.00000
78.20200	225.00000
78.22400	197.00000
78.24600	196.00000
78.26800	238.00000
78.29000	230.00000
78.31200	189.00000
78.33400	223.00000
78.35600	242.00000
78.37800	248.00000
78.40000	260.00000
78.42200	271.00000
78.44400	246.00000
78.46600	265.00000
78.48800	270.00000
78.51000	305.00000
78.53200	306.00000
78.55400	301.00000
78.57600	287.00000
78.59800	292.00000
78.62000	239.00000
78.64200	276.00000
78.66400	232.00000
78.68600	245.00000
78.70800	244.00000
78.73000	242.00000
78.75200	246.00000
78.77400	266.00000
78.79600	266.00000
78.81800	258.00000
78.84000	264.00000
78.86200	259.00000
78.88400	237.00000
78.90600	229.00000
78.92800	214.00000
78.95000	206.00000
78.97200	225.00000
78.99400	216.00000
79.01600	246.00000
79.03800	242.00000
79.06000	240.00000
79.08200	253.00000
79.10400	270.00000
79.12600	265.00000
79.14800	302.00000
79.17000	317.00000
79.19200	299.00000
79.21400	322.00000
79.23600	286.00000
79.25800	280.00000
79.28000	265.00000
79.30200	237.00000
79.32400	262.00000
79.34600	267.00000
79.36800	269.00000
79.39000	233.00000
79.41200	288.00000
79.43400	319.00000
79.45600	304.00000
79.47800	266.00000
79.50000	266.00000
79.52200	272.00000
79.54400	257.00000
79.56600	262.00000
79.58800	244.00000
79.61000	233.00000
79.63200	230.00000
79.65400	236.00000
79.67600	249.00000
79.69800	247.00000
79.72000	236.00000
79.74200	241.00000
79.76400	237.00000
79.78600	228.00000
79.80800	223.00000
79.83000	213.00000
79.85200	208.00000
79.87400	243.00000
79.89600	236.00000
79.91800	231.00000
79.94000	218.00000
79.96200	223.00000
79.98400	209.00000
80.00600	220.00000
80.02800	214.00000
80.05000	199.00000
80.07200	213.00000
80.09400	228.00000
80.11600	212.00000
80.13800	207.00000
80.16000	210.00000
80.18200	208.00000
80.20400	224.00000
80.22600	198.00000
80.24800	226.00000
80.27000	215.00000
80.29200	197.00000
80.31400	239.00000
80.33600	191.00000
80.35800	214.00000
80.38000	214.00000
80.40200	204.00000
80.42400	188.00000
80.44600	230.00000
80.46800	207.00000
80.49000	190.00000
80.51200	206.00000
80.53400	235.00000
80.55600	244.00000
80.57800	217.00000
80.60000	195.00000
80.62200	213.00000
80.64400	269.00000
80.66600	227.00000
80.68800	215.00000
80.71000	232.00000
80.73200	211.00000
80.75400	225.00000
80.77600	204.00000
80.79800	230.00000
80.82000	230.00000
80.84200	180.00000
80.86400	224.00000
80.88600	237.00000
80.90800	233.00000
80.93000	217.00000
80.95200	233.00000
80.97400	280.00000
80.99600	253.00000
81.01800	222.00000
81.04000	260.00000
81.06200	239.00000
81.08400	279.00000
81.10600	243.00000
81.12800	279.00000
81.15000	286.00000
81.17200	307.00000
81.19400	338.00000
81.21600	341.00000
81.23800	344.00000
81.26000	360.00000
81.28200	338.00000
81.30400	330.00000
81.32600	316.00000
81.34800	312.00000
81.37000	278.00000
81.39200	285.00000
81.41400	262.00000
81.43600	263.00000
81.45800	283.00000
81.48000	291.00000
81.50200	289.00000
81.52400	283.00000
81.54600	278.00000
81.56800	265.00000
81.59000	233.00000
81.61200	259.00000
81.63400	245.00000
81.65600	234.00000
81.67800	242.00000
81.70000	217.00000
81.72200	215.00000
81.74400	209.00000
81.76600	209.00000
81.78800	222.00000
81.81000	207.00000
81.83200	225.00000
81.85400	223.00000
81.87600	217.00000
81.89800	224.00000
81.92000	207.00000
81.94200	236.00000
81.96400	228.00000
81.98600	250.00000
82.00800	237.00000
82.03000	268.00000
82.05200	253.00000
82.07400	230.00000
82.09600	251.00000
82.11800	233.00000
82.14000	214.00000
82.16200	245.00000
82.18400	232.00000
82.20600	255.00000
82.22800	250.00000
82.25000	248.00000
82.27200	243.00000
82.29400	246.00000
82.31600	241.00000
82.33800	218.00000
82.36000	223.00000
82.38200	248.00000
82.40400	287.00000
82.42600	274.00000
82.44800	210.00000
82.47000	221.00000
82.49200	228.00000
82.51400	221.00000
82.53600	248.00000
82.55800	259.00000
82.58000	245.00000
82.60200	226.00000
82.62400	254.00000
82.64600	216.00000
82.66800	197.00000
82.69000	208.00000
82.71200	214.00000
82.73400	234.00000
82.75600	217.00000
82.77800	196.00000
82.80000	232.00000
82.82200	199.00000
82.84400	215.00000
82.86600	217.00000
82.88800	220.00000
82.91000	191.00000
82.93200	221.00000
82.95400	213.00000
82.97600	193.00000
82.99800	198.00000
83.02000	211.00000
83.04200	207.00000
83.06400	232.00000
83.08600	233.00000
83.10800	226.00000
83.13000	216.00000
83.15200	232.00000
83.17400	229.00000
83.19600	233.00000
83.21800	199.00000
83.24000	248.00000
83.26200	222.00000
83.28400	247.00000
83.30600	227.00000
83.32800	240.00000
83.35000	271.00000
83.37200	275.00000
83.39400	223.00000
83.41600	287.00000
83.43800	272.00000
83.46000	285.00000
83.48200	330.00000
83.50400	336.00000
83.52600	315.00000
83.54800	316.00000
83.57000	269.00000
83.59200	290.00000
83.61400	248.00000
83.63600	265.00000
83.65800	250.00000
83.68000	259.00000
83.70200	224.00000
83.72400	229.00000
83.74600	268.00000
83.76800	275.00000
83.79000	247.00000
83.81200	240.00000
83.83400	267.00000
83.85600	256.00000
83.87800	225.00000
83.90000	244.00000
83.92200	225.00000
83.94400	276.00000
83.96600	271.00000
83.98800	301.00000
84.01000	302.00000
84.03200	361.00000
84.05400	359.00000
84.07600	368.00000
84.09800	341.00000
84.12000	330.00000
84.14200	278.00000
84.16400	308.00000
84.18600	288.00000
84.20800	263.00000
84.23000	259.00000
84.25200	277.00000
84.27400	275.00000
84.29600	286.00000
84.31800	296.00000
84.34000	273.00000
84.36200	284.00000
84.38400	253.00000
84.40600	239.00000
84.42800	205.00000
84.45000	240.00000
84.47200	231.00000
84.49400	235.00000
84.51600	259.00000
84.53800	247.00000
84.56000	239.00000
84.58200	247.00000
84.60400	245.00000
84.62600	238.00000
84.64800	226.00000
84.67000	210.00000
84.69200	200.00000
84.71400	219.00000
84.73600	223.00000
84.75800	193.00000
84.78000	208.00000
84.80200	183.00000
84.82400	217.00000
84.84600	238.00000
84.86800	217.00000
84.89000	213.00000
84.91200	202.00000
84.93400	240.00000
84.95600	229.00000
84.97800	215.00000
85.00000	210.00000
85.02200	214.00000
85.04400	196.00000
85.06600	193.00000
85.08800	214.00000
85.11000	211.00000
85.13200	202.00000
85.15400	182.00000
85.17600	236.00000
85.19800	220.00000
85.22000	205.00000
85.24200	194.00000
85.26400	241.00000
85.28600	203.00000
85.30800	195.00000
85.33000	221.00000
85.35200	225.00000
85.37400	182.00000
85.39600	226.00000
85.41800	238.00000
85.44000	223.00000
85.46200	203.00000
85.48400	189.00000
85.50600	238.00000
85.52800	214.00000
85.55000	243.00000
85.57200	252.00000
85.59400	278.00000
85.61600	227.00000
85.63800	236.00000
85.66000	251.00000
85.68200	220.00000
85.70400	229.00000
85.72600	201.00000
85.74800	206.00000
85.77000	216.00000
85.79200	202.00000
85.81400	224.00000
85.83600	240.00000
85.85800	216.00000
85.88000	227.00000
85.90200	217.00000
85.92400	244.00000
85.94600	224.00000
85.96800	237.00000
85.99000	254.00000
86.01200	216.00000
86.03400	239.00000
86.05600	251.00000
86.07800	227.00000
86.10000	242.00000
86.12200	209.00000
86.14400	214.00000
86.16600	209.00000
86.18800	202.00000
86.21000	212.00000
86.23200	227.00000
86.25400	224.00000
86.27600	218.00000
86.29800	232.00000
86.32000	257.00000
86.34200	261.00000
86.36400	220.00000
86.38600	264.00000
86.40800	243.00000
86.43000	260.00000
86.45200	266.00000
86.47400	220.00000
86.49600	241.00000
86.51800	204.00000
86.54000	231.00000
86.56200	218.00000
86.58400	240.00000
86.60600	226.00000
86.62800	214.00000
86.65000	239.00000
86.67200	242.00000
86.69400	245.00000
86.71600	232.00000
86.73800	220.00000
86.76000	262.00000
86.78200	224.00000
86.80400	218.00000
86.82600	233.00000
86.84800	241.00000
86.87000	214.00000
86.89200	236.00000
86.91400	215.00000
86.93600	235.00000
86.95800	241.00000
86.98000	233.00000
87.00200	214.00000
87.02400	206.00000
87.04600	217.00000
87.06800	219.00000
87.09000	235.00000
87.11200	229.00000
87.13400	238.00000
87.15600	234.00000
87.17800	219.00000
87.20000	231.00000
87.22200	235.00000
87.24400	225.00000
87.26600	238.00000
87.28800	213.00000
87.31000	225.00000
87.33200	265.00000
87.35400	219.00000
87.37600	183.00000
87.39800	226.00000
87.42000	252.00000
87.44200	215.00000
87.46400	244.00000
87.48600	230.00000
87.50800	222.00000
87.53000	231.00000
87.55200	249.00000
87.57400	223.00000
87.59600	214.00000
87.61800	238.00000
87.64000	212.00000
87.66200	216.00000
87.68400	211.00000
87.70600	250.00000
87.72800	244.00000
87.75000	244.00000
87.77200	225.00000
87.79400	249.00000
87.81600	270.00000
87.83800	278.00000
87.86000	286.00000
87.88200	288.00000
87.90400	269.00000
87.92600	229.00000
87.94800	215.00000
87.97000	205.00000
87.99200	223.00000
88.01400	223.00000
88.03600	229.00000
88.05800	260.00000
88.08000	227.00000
88.10200	201.00000
88.12400	226.00000
88.14600	247.00000
88.16800	223.00000
88.19000	209.00000
88.21200	214.00000
88.23400	207.00000
88.25600	213.00000
88.27800	216.00000
88.30000	206.00000
88.32200	223.00000
88.34400	223.00000
88.36600	218.00000
88.38800	216.00000
88.41000	227.00000
88.43200	217.00000
88.45400	214.00000
88.47600	211.00000
88.49800	233.00000
88.52000	245.00000
88.54200	220.00000
88.56400	220.00000
88.58600	206.00000
88.60800	210.00000
88.63000	221.00000
88.65200	212.00000
88.67400	203.00000
88.69600	217.00000
88.71800	189.00000
88.74000	231.00000
88.76200	218.00000
88.78400	212.00000
88.80600	225.00000
88.82800	202.00000
88.85000	226.00000
88.87200	207.00000
88.89400	197.00000
88.91600	220.00000
88.93800	231.00000
88.96000	221.00000
88.98200	222.00000
89.00400	239.00000
89.02600	222.00000
89.04800	220.00000
89.07000	220.00000
89.09200	231.00000
89.11400	198.00000
89.13600	228.00000
89.15800	235.00000
89.18000	225.00000
89.20200	209.00000
89.22400	233.00000
89.24600	221.00000
89.26800	223.00000
89.29000	220.00000
89.31200	248.00000
89.33400	217.00000
89.35600	240.00000
89.37800	231.00000
89.40000	234.00000
89.42200	256.00000
89.44400	269.00000
89.46600	279.00000
89.48800	268.00000
89.51000	243.00000
89.53200	250.00000
89.55400	228.00000
89.57600	225.00000
89.59800	255.00000
89.62000	211.00000
89.64200	226.00000
89.66400	250.00000
89.68600	217.00000
89.70800	228.00000
89.73000	248.00000
89.75200	230.00000
89.77400	235.00000
89.79600	236.00000
89.81800	265.00000
89.84000	273.00000
89.86200	280.00000
89.88400	246.00000
89.90600	255.00000
89.92800	301.00000
89.95000	331.00000
89.97200	294.00000
89.99400	303.00000
