5.00000	38581.00000
5.02000	38327.00000
5.04000	38034.00000
5.06000	37931.00000
5.08000	37729.00000
5.10000	36985.00000
5.12000	37161.00000
5.14000	36635.00000
5.16000	36835.00000
5.18000	36068.00000
5.20000	35782.00000
5.22000	35918.00000
5.24000	35643.00000
5.26000	35538.00000
5.28000	34992.00000
5.30000	35223.00000
5.32000	34438.00000
5.34000	34589.00000
5.36000	34230.00000
5.38000	34164.00000
5.40000	33791.00000
5.42000	33826.00000
5.44000	33628.00000
5.46000	33508.00000
5.48000	33319.00000
5.50000	33506.00000
5.52000	33342.00000
5.54000	32789.00000
5.56000	32751.00000
5.58000	32680.00000
5.60000	32606.00000
5.62000	32387.00000
5.64000	32525.00000
5.66000	32011.00000
5.68000	32160.00000
5.70000	31667.00000
5.72000	31598.00000
5.74000	31890.00000
5.76000	31490.00000
5.78000	31464.00000
5.80000	31630.00000
5.82000	31323.00000
5.84000	31494.00000
5.86000	31150.00000
5.88000	31277.00000
5.90000	30931.00000
5.92000	30850.00000
5.94000	31080.00000
5.96000	30965.00000
5.98000	30788.00000
6.00000	30713.00000
6.02000	30788.00000
6.04000	30653.00000
6.06000	30414.00000
6.08000	30431.00000
6.10000	30509.00000
6.12000	30293.00000
6.14000	30527.00000
6.16000	30453.00000
6.18000	30420.00000
6.20000	30264.00000
6.22000	30371.00000
6.24000	30346.00000
6.26000	30388.00000
6.28000	30377.00000
6.30000	30287.00000
6.32000	30106.00000
6.34000	30107.00000
6.36000	29985.00000
6.38000	30105.00000
6.40000	30378.00000
6.42000	30523.00000
6.44000	30263.00000
6.46000	30279.00000
6.48000	30561.00000
6.50000	30462.00000
6.52000	30454.00000
6.54000	30498.00000
6.56000	30413.00000
6.58000	30684.00000
6.60000	30768.00000
6.62000	30847.00000
6.64000	30804.00000
6.66000	30689.00000
6.68000	30692.00000
6.70000	30624.00000
6.72000	30667.00000
6.74000	30704.00000
6.76000	30653.00000
6.78000	30742.00000
6.80000	30960.00000
6.82000	30899.00000
6.84000	31071.00000
6.86000	31156.00000
6.88000	31040.00000
6.90000	31176.00000
6.92000	31326.00000
6.94000	31494.00000
6.96000	31584.00000
6.98000	31748.00000
7.00000	31811.00000
7.02000	31569.00000
7.04000	31614.00000
7.06000	31912.00000
7.08000	32120.00000
7.10000	32312.00000
7.12000	32235.00000
7.14000	32135.00000
7.16000	32282.00000
7.18000	32423.00000
7.20000	32681.00000
7.22000	32683.00000
7.24000	32446.00000
7.26000	32467.00000
7.28000	32594.00000
7.30000	32662.00000
7.32000	32961.00000
7.34000	33033.00000
7.36000	32944.00000
7.38000	32999.00000
7.40000	33025.00000
7.42000	32956.00000
7.44000	33097.00000
7.46000	33296.00000
7.48000	33220.00000
7.50000	33168.00000
7.52000	33267.00000
7.54000	33272.00000
7.56000	33511.00000
7.58000	33513.00000
7.60000	33357.00000
7.62000	33457.00000
7.64000	33606.00000
7.66000	33443.00000
7.68000	33304.00000
7.70000	33220.00000
7.72000	33329.00000
7.74000	33323.00000
7.76000	33386.00000
7.78000	33558.00000
7.80000	33431.00000
7.82000	33501.00000
7.84000	33615.00000
7.86000	33746.00000
7.88000	33610.00000
7.90000	33700.00000
7.92000	33995.00000
7.94000	33430.00000
7.96000	33056.00000
7.98000	33135.00000
8.00000	32802.00000
8.02000	32809.00000
8.04000	32724.00000
8.06000	32782.00000
8.08000	32503.00000
8.10000	32438.00000
8.12000	32463.00000
8.14000	32184.00000
8.16000	32080.00000
8.18000	32143.00000
8.20000	32095.00000
8.22000	32131.00000
8.24000	32231.00000
8.26000	33131.00000
8.28000	33659.00000
8.30000	34138.00000
8.32000	33833.00000
8.34000	33549.00000
8.36000	33696.00000
8.38000	34332.00000
8.40000	34776.00000
8.42000	35450.00000
8.44000	37429.00000
8.46000	40335.00000
8.48000	42787.00000
8.50000	44912.00000
8.52000	48351.00000
8.54000	57361.00000
8.56000	72218.00000
8.58000	95684.00000
8.60000	124678.00000
8.62000	156390.00000
8.64000	196019.00000
8.66000	237457.00000
8.68000	297872.00000
8.70000	354538.00000
8.72000	363275.00000
8.74000	320191.00000
8.76000	218270.00000
8.78000	116667.00000
8.80000	60479.00000
8.82000	41680.00000
8.84000	37836.00000
8.86000	37013.00000
8.88000	36174.00000
8.90000	35633.00000
8.92000	35329.00000
8.94000	35119.00000
8.96000	34582.00000
8.98000	34261.00000
9.00000	33187.00000
9.02000	31984.00000
9.04000	30840.00000
9.06000	29759.00000
9.08000	28925.00000
9.10000	28051.00000
9.12000	27841.00000
9.14000	27666.00000
9.16000	27590.00000
9.18000	27459.00000
9.20000	27110.00000
9.22000	26985.00000
9.24000	26811.00000
9.26000	26853.00000
9.28000	26435.00000
9.30000	26279.00000
9.32000	26329.00000
9.34000	26349.00000
9.36000	26005.00000
9.38000	25976.00000
9.40000	25726.00000
9.42000	25807.00000
9.44000	25931.00000
9.46000	25631.00000
9.48000	25653.00000
9.50000	25541.00000
9.52000	25307.00000
9.54000	25352.00000
9.56000	25295.00000
9.58000	25277.00000
9.60000	24797.00000
9.62000	24686.00000
9.64000	24821.00000
9.66000	24460.00000
9.68000	24456.00000
9.70000	24299.00000
9.72000	24380.00000
9.74000	24119.00000
9.76000	23822.00000
9.78000	24053.00000
9.80000	24139.00000
9.82000	23786.00000
9.84000	23978.00000
9.86000	23749.00000
9.88000	23928.00000
9.90000	23844.00000
9.92000	23543.00000
9.94000	23721.00000
9.96000	23547.00000
9.98000	23401.00000
10.00000	23098.00000
10.02000	23334.00000
10.04000	23209.00000
10.06000	23267.00000
10.08000	23145.00000
10.10000	22973.00000
10.12000	22858.00000
10.14000	22859.00000
10.16000	22761.00000
10.18000	22824.00000
10.20000	22680.00000
10.22000	22871.00000
10.24000	22997.00000
10.26000	22620.00000
10.28000	22452.00000
10.30000	22737.00000
10.32000	22530.00000
10.34000	22359.00000
10.36000	22330.00000
10.38000	22433.00000
10.40000	22151.00000
10.42000	22188.00000
10.44000	22379.00000
10.46000	22374.00000
10.48000	22375.00000
10.50000	22216.00000
10.52000	22029.00000
10.54000	22193.00000
10.56000	22175.00000
10.58000	22214.00000
10.60000	22332.00000
10.62000	22509.00000
10.64000	22489.00000
10.66000	22569.00000
10.68000	22617.00000
10.70000	22737.00000
10.72000	22766.00000
10.74000	22782.00000
10.76000	22716.00000
10.78000	22608.00000
10.80000	22545.00000
10.82000	22306.00000
10.84000	22258.00000
10.86000	22272.00000
10.88000	22315.00000
10.90000	22330.00000
10.92000	22391.00000
10.94000	22418.00000
10.96000	22396.00000
10.98000	22308.00000
11.00000	22399.00000
11.02000	22419.00000
11.04000	22419.00000
11.06000	22602.00000
11.08000	22673.00000
11.10000	23076.00000
11.12000	23339.00000
11.14000	23643.00000
11.16000	23960.00000
11.18000	24082.00000
11.20000	24509.00000
11.22000	24905.00000
11.24000	25045.00000
11.26000	25376.00000
11.28000	25701.00000
11.30000	25852.00000
11.32000	25820.00000
11.34000	25658.00000
11.36000	25310.00000
11.38000	24951.00000
11.40000	24592.00000
11.42000	24301.00000
11.44000	23973.00000
11.46000	23743.00000
11.48000	23581.00000
11.50000	23258.00000
11.52000	22932.00000
11.54000	22724.00000
11.56000	22578.00000
11.58000	22489.00000
11.60000	22549.00000
11.62000	22479.00000
11.64000	22503.00000
11.66000	22698.00000
11.68000	22951.00000
11.70000	23883.00000
11.72000	26520.00000
11.74000	28849.00000
11.76000	29486.00000
11.78000	29599.00000
11.80000	31854.00000
11.82000	37652.00000
11.84000	44134.00000
11.86000	48098.00000
11.88000	49080.00000
11.90000	47823.00000
11.92000	43559.00000
11.94000	37821.00000
11.96000	32156.00000
11.98000	27018.00000
12.00000	23760.00000
12.02000	22508.00000
12.04000	21954.00000
12.06000	21643.00000
12.08000	21516.00000
12.10000	21499.00000
12.12000	21589.00000
12.14000	21346.00000
12.16000	21178.00000
12.18000	21150.00000
12.20000	21240.00000
12.22000	21158.00000
12.24000	20980.00000
12.26000	20853.00000
12.28000	20762.00000
12.30000	20729.00000
12.32000	20682.00000
12.34000	20883.00000
12.36000	21152.00000
12.38000	20823.00000
12.40000	20609.00000
12.42000	20432.00000
12.44000	20676.00000
12.46000	20736.00000
12.48000	20680.00000
12.50000	20629.00000
12.52000	20715.00000
12.54000	20734.00000
12.56000	20628.00000
12.58000	20678.00000
12.60000	20651.00000
12.62000	20723.00000
12.64000	20904.00000
12.66000	20474.00000
12.68000	20579.00000
12.70000	20229.00000
12.72000	20557.00000
12.74000	20590.00000
12.76000	20683.00000
12.78000	20720.00000
12.80000	20507.00000
12.82000	20567.00000
12.84000	20605.00000
12.86000	20561.00000
12.88000	20427.00000
12.90000	20470.00000
12.92000	20477.00000
12.94000	20243.00000
12.96000	20409.00000
12.98000	20656.00000
13.00000	20203.00000
13.02000	20364.00000
13.04000	20450.00000
13.06000	20601.00000
13.08000	20404.00000
13.10000	20284.00000
13.12000	20623.00000
13.14000	20458.00000
13.16000	20459.00000
13.18000	20612.00000
13.20000	20455.00000
13.22000	20468.00000
13.24000	20689.00000
13.26000	20593.00000
13.28000	20474.00000
13.30000	20554.00000
13.32000	20651.00000
13.34000	20570.00000
13.36000	20408.00000
13.38000	20684.00000
13.40000	20354.00000
13.42000	20549.00000
13.44000	20661.00000
13.46000	20464.00000
13.48000	20492.00000
13.50000	20493.00000
13.52000	20552.00000
13.54000	20601.00000
13.56000	20799.00000
13.58000	20432.00000
13.60000	20692.00000
13.62000	20598.00000
13.64000	20489.00000
13.66000	20484.00000
13.68000	20798.00000
13.70000	20149.00000
13.72000	20589.00000
13.74000	20324.00000
13.76000	20749.00000
13.78000	20528.00000
13.80000	20439.00000
13.82000	20414.00000
13.84000	20447.00000
13.86000	20434.00000
13.88000	20489.00000
13.90000	20658.00000
13.92000	20602.00000
13.94000	20804.00000
13.96000	20848.00000
13.98000	20596.00000
14.00000	20563.00000
14.02000	20763.00000
14.04000	20688.00000
14.06000	21013.00000
14.08000	20968.00000
14.10000	21182.00000
14.12000	21231.00000
14.14000	21316.00000
14.16000	21503.00000
14.18000	21933.00000
14.20000	22259.00000
14.22000	22871.00000
14.24000	23772.00000
14.26000	24099.00000
14.28000	24744.00000
14.30000	24862.00000
14.32000	25075.00000
14.34000	24798.00000
14.36000	24095.00000
14.38000	23358.00000
14.40000	22966.00000
14.42000	22393.00000
14.44000	21768.00000
14.46000	21392.00000
14.48000	21429.00000
14.50000	21344.00000
14.52000	21442.00000
14.54000	21817.00000
14.56000	22445.00000
14.58000	22702.00000
14.60000	22810.00000
14.62000	22866.00000
14.64000	22467.00000
14.66000	21692.00000
14.68000	21053.00000
14.70000	20739.00000
14.72000	20447.00000
14.74000	20319.00000
14.76000	20349.00000
14.78000	20345.00000
14.80000	20335.00000
14.82000	20545.00000
14.84000	20329.00000
14.86000	20280.00000
14.88000	20361.00000
14.90000	20416.00000
14.92000	20340.00000
14.94000	20168.00000
14.96000	20210.00000
14.98000	20360.00000
15.00000	20236.00000
15.02000	20237.00000
15.04000	20350.00000
15.06000	20159.00000
15.08000	20104.00000
15.10000	20273.00000
15.12000	20294.00000
15.14000	20425.00000
15.16000	20235.00000
15.18000	20133.00000
15.20000	20206.00000
15.22000	20219.00000
15.24000	20150.00000
15.26000	20304.00000
15.28000	20370.00000
15.30000	20204.00000
15.32000	20147.00000
15.34000	20078.00000
15.36000	19994.00000
15.38000	20044.00000
15.40000	20052.00000
15.42000	19975.00000
15.44000	20099.00000
15.46000	20070.00000
15.48000	20010.00000
15.50000	19976.00000
15.52000	19913.00000
15.54000	20019.00000
15.56000	20216.00000
15.58000	20176.00000
15.60000	20129.00000
15.62000	20067.00000
15.64000	19937.00000
15.66000	19965.00000
15.68000	19924.00000
15.70000	19882.00000
15.72000	20050.00000
15.74000	20057.00000
15.76000	20070.00000
15.78000	20101.00000
15.80000	20056.00000
15.82000	20121.00000
15.84000	20163.00000
15.86000	19951.00000
15.88000	19930.00000
15.90000	20044.00000
15.92000	20086.00000
15.94000	20102.00000
15.96000	20065.00000
15.98000	20026.00000
16.00000	19859.00000
16.02000	19900.00000
16.04000	20019.00000
16.06000	20139.00000
16.08000	20041.00000
16.10000	19920.00000
16.12000	19831.00000
16.14000	19929.00000
16.16000	19890.00000
16.18000	19985.00000
16.20000	20047.00000
16.22000	20006.00000
16.24000	20047.00000
16.26000	20004.00000
16.28000	19895.00000
16.30000	19850.00000
16.32000	19982.00000
16.34000	19815.00000
16.36000	19740.00000
16.38000	19891.00000
16.40000	19973.00000
16.42000	20039.00000
16.44000	19992.00000
16.46000	19936.00000
16.48000	19961.00000
16.50000	19932.00000
16.52000	19952.00000
16.54000	19964.00000
16.56000	19931.00000
16.58000	19908.00000
16.60000	20045.00000
16.62000	20042.00000
16.64000	20043.00000
16.66000	19935.00000
16.68000	20079.00000
16.70000	20165.00000
16.72000	20221.00000
16.74000	20334.00000
16.76000	20387.00000
16.78000	20404.00000
16.80000	20802.00000
16.82000	20862.00000
16.84000	20929.00000
16.86000	21686.00000
16.88000	22354.00000
16.90000	23682.00000
16.92000	24215.00000
16.94000	24612.00000
16.96000	26571.00000
16.98000	27517.00000
17.00000	26021.00000
17.02000	24547.00000
17.04000	22774.00000
17.06000	21723.00000
17.08000	21883.00000
17.10000	22473.00000
17.12000	23346.00000
17.14000	24360.00000
17.16000	25394.00000
17.18000	26195.00000
17.20000	26622.00000
17.22000	26761.00000
17.24000	26224.00000
17.26000	25142.00000
17.28000	23959.00000
17.30000	22071.00000
17.32000	21229.00000
17.34000	20893.00000
17.36000	20626.00000
17.38000	20373.00000
17.40000	20437.00000
17.42000	20342.00000
17.44000	20027.00000
17.46000	20539.00000
17.48000	20461.00000
17.50000	20548.00000
17.52000	20105.00000
17.54000	20169.00000
17.56000	20212.00000
17.58000	20468.00000
17.60000	20396.00000
17.62000	20377.00000
17.64000	20320.00000
17.66000	20405.00000
17.68000	20342.00000
17.70000	20177.00000
17.72000	19938.00000
17.74000	20269.00000
17.76000	20424.00000
17.78000	20073.00000
17.80000	20194.00000
17.82000	20276.00000
17.84000	20159.00000
17.86000	19935.00000
17.88000	20272.00000
17.90000	20376.00000
17.92000	20321.00000
17.94000	20161.00000
17.96000	20465.00000
17.98000	20452.00000
18.00000	20263.00000
18.02000	20229.00000
18.04000	20362.00000
18.06000	20278.00000
18.08000	20279.00000
18.10000	20436.00000
18.12000	20189.00000
18.14000	20023.00000
18.16000	20276.00000
18.18000	20374.00000
18.20000	20431.00000
18.22000	20175.00000
18.24000	20108.00000
18.26000	20171.00000
18.28000	20379.00000
18.30000	20269.00000
18.32000	20120.00000
18.34000	20446.00000
18.36000	20232.00000
18.38000	20400.00000
18.40000	20260.00000
18.42000	20217.00000
18.44000	20495.00000
18.46000	20198.00000
18.48000	20296.00000
18.50000	20273.00000
18.52000	20370.00000
18.54000	20380.00000
18.56000	20141.00000
18.58000	20045.00000
18.60000	20159.00000
18.62000	20185.00000
18.64000	20136.00000
18.66000	20197.00000
18.68000	20397.00000
18.70000	20152.00000
18.72000	20149.00000
18.74000	20202.00000
18.76000	20244.00000
18.78000	20385.00000
18.80000	20399.00000
18.82000	20331.00000
18.84000	20155.00000
18.86000	20154.00000
18.88000	20154.00000
18.90000	20163.00000
18.92000	20088.00000
18.94000	20376.00000
18.96000	20284.00000
18.98000	20169.00000
19.00000	20081.00000
19.02000	20182.00000
19.04000	20107.00000
19.06000	20093.00000
19.08000	20068.00000
19.10000	20218.00000
19.12000	20026.00000
19.14000	20020.00000
19.16000	19962.00000
19.18000	20057.00000
19.20000	19846.00000
19.22000	19923.00000
19.24000	19871.00000
19.26000	19839.00000
19.28000	19935.00000
19.30000	19969.00000
19.32000	19947.00000
19.34000	19987.00000
19.36000	20043.00000
19.38000	19797.00000
19.40000	19598.00000
19.42000	19666.00000
19.44000	19738.00000
19.46000	19789.00000
19.48000	19662.00000
19.50000	19542.00000
19.52000	19612.00000
19.54000	19436.00000
19.56000	19226.00000
19.58000	19391.00000
19.60000	19630.00000
19.62000	19606.00000
19.64000	19547.00000
19.66000	19639.00000
19.68000	19589.00000
19.70000	19451.00000
19.72000	19318.00000
19.74000	19349.00000
19.76000	19397.00000
19.78000	19354.00000
19.80000	19307.00000
19.82000	19278.00000
19.84000	19192.00000
19.86000	19254.00000
19.88000	19400.00000
19.90000	19332.00000
19.92000	19342.00000
19.94000	19421.00000
19.96000	19185.00000
19.98000	19147.00000
20.00000	19197.00000
20.02000	19237.00000
20.04000	19195.00000
20.06000	18958.00000
20.08000	18996.00000
20.10000	19002.00000
20.12000	18921.00000
20.14000	19057.00000
20.16000	19151.00000
20.18000	18913.00000
20.20000	18829.00000
20.22000	18826.00000
20.24000	18709.00000
20.26000	18871.00000
20.28000	19037.00000
20.30000	18866.00000
20.32000	18775.00000
20.34000	18721.00000
20.36000	18794.00000
20.38000	18845.00000
20.40000	18803.00000
20.42000	18618.00000
20.44000	18528.00000
20.46000	18572.00000
20.48000	18684.00000
20.50000	18551.00000
20.52000	18413.00000
20.54000	18414.00000
20.56000	18365.00000
20.58000	18495.00000
20.60000	18684.00000
20.62000	18673.00000
20.64000	18448.00000
20.66000	18376.00000
20.68000	18450.00000
20.70000	18338.00000
20.72000	18271.00000
20.74000	18292.00000
20.76000	18290.00000
20.78000	18311.00000
20.80000	18051.00000
20.82000	18183.00000
20.84000	18284.00000
20.86000	18430.00000
20.88000	18313.00000
20.90000	18247.00000
20.92000	18324.00000
20.94000	18150.00000
20.96000	18061.00000
20.98000	18312.00000
21.00000	18223.00000
21.02000	18072.00000
21.04000	18053.00000
21.06000	17939.00000
21.08000	18200.00000
21.10000	18178.00000
21.12000	18056.00000
21.14000	18048.00000
21.16000	18049.00000
21.18000	17836.00000
21.20000	17952.00000
21.22000	18197.00000
21.24000	17932.00000
21.26000	17868.00000
21.28000	18034.00000
21.30000	18096.00000
21.32000	18093.00000
21.34000	17834.00000
21.36000	18245.00000
21.38000	17981.00000
21.40000	18129.00000
21.42000	17941.00000
21.44000	17956.00000
21.46000	18150.00000
21.48000	18235.00000
21.50000	17975.00000
21.52000	17993.00000
21.54000	17801.00000
21.56000	17900.00000
21.58000	17913.00000
21.60000	18127.00000
21.62000	17808.00000
21.64000	17782.00000
21.66000	17949.00000
21.68000	18015.00000
21.70000	17813.00000
21.72000	17989.00000
21.74000	17966.00000
21.76000	17899.00000
21.78000	18026.00000
21.80000	17877.00000
21.82000	18059.00000
21.84000	18079.00000
21.86000	18227.00000
21.88000	18498.00000
21.90000	18322.00000
21.92000	18400.00000
21.94000	18987.00000
21.96000	19067.00000
21.98000	19255.00000
22.00000	19951.00000
22.02000	20310.00000
22.04000	20771.00000
22.06000	21134.00000
22.08000	21338.00000
22.10000	21186.00000
22.12000	21005.00000
22.14000	20752.00000
22.16000	19902.00000
22.18000	19309.00000
22.20000	18898.00000
22.22000	18623.00000
22.24000	18316.00000
22.26000	18138.00000
22.28000	18283.00000
22.30000	18308.00000
22.32000	18398.00000
22.34000	18589.00000
22.36000	18792.00000
22.38000	18790.00000
22.40000	18837.00000
22.42000	18816.00000
22.44000	18875.00000
22.46000	18800.00000
22.48000	18915.00000
22.50000	19094.00000
22.52000	19461.00000
22.54000	20042.00000
22.56000	20293.00000
22.58000	20529.00000
22.60000	20818.00000
22.62000	20661.00000
22.64000	20378.00000
22.66000	19841.00000
22.68000	19388.00000
22.70000	18951.00000
22.72000	18737.00000
22.74000	18727.00000
22.76000	18737.00000
22.78000	18658.00000
22.80000	18747.00000
22.82000	18597.00000
22.84000	18586.00000
22.86000	18520.00000
22.88000	18640.00000
22.90000	18727.00000
22.92000	18499.00000
22.94000	18444.00000
22.96000	18407.00000
22.98000	18374.00000
23.00000	18423.00000
23.02000	18488.00000
23.04000	18276.00000
23.06000	18329.00000
23.08000	18538.00000
23.10000	18678.00000
23.12000	18565.00000
23.14000	18399.00000
23.16000	18489.00000
23.18000	18780.00000
23.20000	18683.00000
23.22000	18549.00000
23.24000	18509.00000
23.26000	18503.00000
23.28000	18498.00000
23.30000	18614.00000
23.32000	18719.00000
23.34000	18642.00000
23.36000	18750.00000
23.38000	18541.00000
23.40000	18449.00000
23.42000	18653.00000
23.44000	18928.00000
23.46000	19050.00000
23.48000	19134.00000
23.50000	19191.00000
23.52000	19284.00000
23.54000	19600.00000
23.56000	19974.00000
23.58000	20312.00000
23.60000	20867.00000
23.62000	21370.00000
23.64000	21852.00000
23.66000	22101.00000
23.68000	21678.00000
23.70000	21158.00000
23.72000	20565.00000
23.74000	20013.00000
23.76000	19443.00000
23.78000	18936.00000
23.80000	18545.00000
23.82000	18327.00000
23.84000	18133.00000
23.86000	17973.00000
23.88000	17867.00000
23.90000	17988.00000
23.92000	18162.00000
23.94000	18022.00000
23.96000	17987.00000
23.98000	18076.00000
24.00000	18031.00000
24.02000	18032.00000
24.04000	18093.00000
24.06000	18081.00000
24.08000	18123.00000
24.10000	18036.00000
24.12000	17898.00000
24.14000	18008.00000
24.16000	18027.00000
24.18000	17972.00000
24.20000	17986.00000
24.22000	17862.00000
24.24000	17747.00000
24.26000	17799.00000
24.28000	17810.00000
24.30000	17715.00000
24.32000	17602.00000
24.34000	17697.00000
24.36000	17731.00000
24.38000	17826.00000
24.40000	17667.00000
24.42000	17630.00000
24.44000	17870.00000
24.46000	17844.00000
24.48000	17896.00000
24.50000	17865.00000
24.52000	17861.00000
24.54000	17884.00000
24.56000	18035.00000
24.58000	17934.00000
24.60000	17838.00000
24.62000	17850.00000
24.64000	17879.00000
24.66000	18009.00000
24.68000	17942.00000
24.70000	17991.00000
24.72000	18010.00000
24.74000	17932.00000
24.76000	17996.00000
24.78000	18109.00000
24.80000	18212.00000
24.82000	18054.00000
24.84000	18024.00000
24.86000	18115.00000
24.88000	18175.00000
24.90000	18288.00000
24.92000	18057.00000
24.94000	18362.00000
24.96000	18290.00000
24.98000	18226.00000
25.00000	18450.00000
25.02000	18472.00000
25.04000	18535.00000
25.06000	18569.00000
25.08000	18709.00000
25.10000	18727.00000
25.12000	18942.00000
25.14000	18991.00000
25.16000	18983.00000
25.18000	19072.00000
25.20000	19208.00000
25.22000	19792.00000
25.24000	19866.00000
25.26000	20275.00000
25.28000	20253.00000
25.30000	20663.00000
25.32000	21039.00000
25.34000	21573.00000
25.36000	21867.00000
25.38000	22568.00000
25.40000	23203.00000
25.42000	23773.00000
25.44000	24233.00000
25.46000	24762.00000
25.48000	25092.00000
25.50000	25358.00000
25.52000	25421.00000
25.54000	25577.00000
25.56000	25621.00000
25.58000	25325.00000
25.60000	25105.00000
25.62000	24549.00000
25.64000	24054.00000
25.66000	23313.00000
25.68000	22914.00000
25.70000	22734.00000
25.72000	22216.00000
25.74000	22101.00000
25.76000	21874.00000
25.78000	21626.00000
25.80000	21426.00000
25.82000	21426.00000
25.84000	21397.00000
25.86000	21398.00000
25.88000	21051.00000
25.90000	20819.00000
25.92000	20787.00000
25.94000	20729.00000
25.96000	20625.00000
25.98000	20283.00000
26.00000	20409.00000
26.02000	20327.00000
26.04000	20291.00000
26.06000	20556.00000
26.08000	20803.00000
26.10000	21125.00000
26.12000	20861.00000
26.14000	20927.00000
26.16000	21094.00000
26.18000	21209.00000
26.20000	21717.00000
26.22000	22066.00000
26.24000	22032.00000
26.26000	22310.00000
26.28000	22512.00000
26.30000	22976.00000
26.32000	23273.00000
26.34000	23768.00000
26.36000	24048.00000
26.38000	24409.00000
26.40000	25033.00000
26.42000	25312.00000
26.44000	25706.00000
26.46000	26162.00000
26.48000	26084.00000
26.50000	26469.00000
26.52000	26853.00000
26.54000	27310.00000
26.56000	27662.00000
26.58000	27864.00000
26.60000	27971.00000
26.62000	28473.00000
26.64000	29383.00000
26.66000	30718.00000
26.68000	32084.00000
26.70000	34577.00000
26.72000	38211.00000
26.74000	42763.00000
26.76000	45540.00000
26.78000	47826.00000
26.80000	53903.00000
26.82000	60278.00000
26.84000	55457.00000
26.86000	48818.00000
26.88000	45508.00000
26.90000	41587.00000
26.92000	36445.00000
26.94000	32407.00000
26.96000	30079.00000
26.98000	29188.00000
27.00000	28957.00000
27.02000	28934.00000
27.04000	28947.00000
27.06000	29032.00000
27.08000	29463.00000
27.10000	29389.00000
27.12000	30042.00000
27.14000	30220.00000
27.16000	30126.00000
27.18000	30512.00000
27.20000	30766.00000
27.22000	30744.00000
27.24000	31173.00000
27.26000	31669.00000
27.28000	31922.00000
27.30000	32105.00000
27.32000	32277.00000
27.34000	32591.00000
27.36000	32666.00000
27.38000	33171.00000
27.40000	33401.00000
27.42000	33709.00000
27.44000	33915.00000
27.46000	33953.00000
27.48000	34128.00000
27.50000	34412.00000
27.52000	34409.00000
27.54000	34475.00000
27.56000	34550.00000
27.58000	34616.00000
27.60000	34602.00000
27.62000	34852.00000
27.64000	34828.00000
27.66000	34834.00000
27.68000	34741.00000
27.70000	34881.00000
27.72000	34912.00000
27.74000	34796.00000
27.76000	34444.00000
27.78000	34449.00000
27.80000	34603.00000
27.82000	34701.00000
27.84000	34943.00000
27.86000	34980.00000
27.88000	34807.00000
27.90000	34665.00000
27.92000	34485.00000
27.94000	33952.00000
27.96000	33146.00000
27.98000	32398.00000
28.00000	31583.00000
28.02000	30933.00000
28.04000	30231.00000
28.06000	29611.00000
28.08000	29262.00000
28.10000	28769.00000
28.12000	28173.00000
28.14000	27742.00000
28.16000	27462.00000
28.18000	27135.00000
28.20000	26835.00000
28.22000	26475.00000
28.24000	26074.00000
28.26000	25818.00000
28.28000	25411.00000
28.30000	25117.00000
28.32000	24924.00000
28.34000	24729.00000
28.36000	24602.00000
28.38000	24250.00000
28.40000	24122.00000
28.42000	23829.00000
28.44000	23579.00000
28.46000	23569.00000
28.48000	23205.00000
28.50000	22955.00000
28.52000	23040.00000
28.54000	22823.00000
28.56000	22466.00000
28.58000	22625.00000
28.60000	22502.00000
28.62000	22360.00000
28.64000	22260.00000
28.66000	22094.00000
28.68000	21912.00000
28.70000	21630.00000
28.72000	21434.00000
28.74000	21381.00000
28.76000	21302.00000
28.78000	20983.00000
28.80000	20813.00000
28.82000	20575.00000
28.84000	20643.00000
28.86000	20335.00000
28.88000	20076.00000
28.90000	19807.00000
28.92000	19650.00000
28.94000	19466.00000
28.96000	19300.00000
28.98000	19378.00000
29.00000	19258.00000
29.02000	19305.00000
29.04000	19273.00000
29.06000	19043.00000
29.08000	18984.00000
29.10000	19134.00000
29.12000	19075.00000
29.14000	19123.00000
29.16000	19044.00000
29.18000	19154.00000
29.20000	19223.00000
29.22000	19034.00000
29.24000	19022.00000
29.26000	19012.00000
29.28000	18837.00000
29.30000	18876.00000
29.32000	18960.00000
29.34000	18860.00000
29.36000	19245.00000
29.38000	20336.00000
29.40000	21131.00000
29.42000	21732.00000
29.44000	22432.00000
29.46000	22402.00000
29.48000	22491.00000
29.50000	22731.00000
29.52000	22466.00000
29.54000	21713.00000
29.56000	21131.00000
29.58000	20699.00000
29.60000	20677.00000
29.62000	20888.00000
29.64000	21250.00000
29.66000	20874.00000
29.68000	20640.00000
29.70000	20517.00000
29.72000	20484.00000
29.74000	19991.00000
29.76000	19599.00000
29.78000	19062.00000
29.80000	18550.00000
29.82000	18047.00000
29.84000	17702.00000
29.86000	17609.00000
29.88000	17104.00000
29.90000	17026.00000
29.92000	17041.00000
29.94000	17139.00000
29.96000	16832.00000
29.98000	17061.00000
30.00000	16845.00000
30.02000	17065.00000
30.04000	16876.00000
30.06000	16869.00000
30.08000	16599.00000
30.10000	16491.00000
30.12000	16263.00000
30.14000	16432.00000
30.16000	16483.00000
30.18000	16382.00000
30.20000	16455.00000
30.22000	16277.00000
30.24000	16274.00000
30.26000	16432.00000
30.28000	16339.00000
30.30000	16170.00000
30.32000	16221.00000
30.34000	16084.00000
30.36000	16159.00000
30.38000	16094.00000
30.40000	16079.00000
30.42000	16256.00000
30.44000	16013.00000
30.46000	15914.00000
30.48000	16045.00000
30.50000	16024.00000
30.52000	16031.00000
30.54000	16200.00000
30.56000	16020.00000
30.58000	16075.00000
30.60000	15982.00000
30.62000	15903.00000
30.64000	16060.00000
30.66000	16023.00000
30.68000	15848.00000
30.70000	15854.00000
30.72000	15859.00000
30.74000	15963.00000
30.76000	15929.00000
30.78000	16103.00000
30.80000	16128.00000
30.82000	15925.00000
30.84000	15962.00000
30.86000	15799.00000
30.88000	15902.00000
30.90000	15613.00000
30.92000	15465.00000
30.94000	15529.00000
30.96000	15385.00000
30.98000	15591.00000
31.00000	15716.00000
31.02000	15479.00000
31.04000	15666.00000
31.06000	15509.00000
31.08000	15354.00000
31.10000	15393.00000
31.12000	15284.00000
31.14000	15405.00000
31.16000	15510.00000
31.18000	15388.00000
31.20000	15353.00000
31.22000	15317.00000
31.24000	15135.00000
31.26000	15218.00000
31.28000	15220.00000
31.30000	15232.00000
31.32000	15234.00000
31.34000	15128.00000
31.36000	15255.00000
31.38000	15006.00000
31.40000	15046.00000
31.42000	15166.00000
31.44000	15155.00000
31.46000	15311.00000
31.48000	15028.00000
31.50000	15027.00000
31.52000	15161.00000
31.54000	15035.00000
31.56000	14972.00000
31.58000	14998.00000
31.60000	15150.00000
31.62000	15138.00000
31.64000	15116.00000
31.66000	15039.00000
31.68000	14972.00000
31.70000	14980.00000
31.72000	15082.00000
31.74000	15044.00000
31.76000	15152.00000
31.78000	14892.00000
31.80000	14919.00000
31.82000	14965.00000
31.84000	15077.00000
31.86000	14947.00000
31.88000	14965.00000
31.90000	15008.00000
31.92000	15152.00000
31.94000	15101.00000
31.96000	15021.00000
31.98000	15282.00000
32.00000	15335.00000
32.02000	15299.00000
32.04000	15233.00000
32.06000	15118.00000
32.08000	15226.00000
32.10000	15196.00000
32.12000	15142.00000
32.14000	15102.00000
32.16000	15115.00000
32.18000	14896.00000
32.20000	14885.00000
32.22000	14911.00000
32.24000	14808.00000
32.26000	14779.00000
32.28000	14727.00000
32.30000	14735.00000
32.32000	14766.00000
32.34000	14664.00000
32.36000	14639.00000
32.38000	14665.00000
32.40000	14688.00000
32.42000	14728.00000
32.44000	14854.00000
32.46000	14930.00000
32.48000	14761.00000
32.50000	14659.00000
32.52000	14674.00000
32.54000	14711.00000
32.56000	14680.00000
32.58000	14638.00000
32.60000	14623.00000
32.62000	14680.00000
32.64000	14705.00000
32.66000	14603.00000
32.68000	14505.00000
32.70000	14640.00000
32.72000	14723.00000
32.74000	14638.00000
32.76000	14620.00000
32.78000	14764.00000
32.80000	14648.00000
32.82000	14596.00000
32.84000	14750.00000
32.86000	14706.00000
32.88000	14748.00000
32.90000	14752.00000
32.92000	14787.00000
32.94000	14889.00000
32.96000	14756.00000
32.98000	14642.00000
33.00000	14715.00000
33.02000	14656.00000
33.04000	14731.00000
33.06000	14657.00000
33.08000	14641.00000
33.10000	14699.00000
33.12000	14616.00000
33.14000	14625.00000
33.16000	14607.00000
33.18000	14593.00000
33.20000	14650.00000
33.22000	14571.00000
33.24000	14587.00000
33.26000	14629.00000
33.28000	14655.00000
33.30000	14663.00000
33.32000	14757.00000
33.34000	14762.00000
33.36000	14610.00000
33.38000	14723.00000
33.40000	14733.00000
33.42000	14828.00000
33.44000	14855.00000
33.46000	14946.00000
33.48000	14871.00000
33.50000	15089.00000
33.52000	15263.00000
33.54000	15158.00000
33.56000	15208.00000
33.58000	15065.00000
33.60000	14911.00000
33.62000	14655.00000
33.64000	14659.00000
33.66000	14694.00000
33.68000	14667.00000
33.70000	14488.00000
33.72000	14409.00000
33.74000	14436.00000
33.76000	14544.00000
33.78000	14324.00000
33.80000	14448.00000
33.82000	14616.00000
33.84000	14484.00000
33.86000	14542.00000
33.88000	14540.00000
33.90000	14633.00000
33.92000	14439.00000
33.94000	14625.00000
33.96000	14717.00000
33.98000	14569.00000
34.00000	14719.00000
34.02000	14656.00000
34.04000	14693.00000
34.06000	14523.00000
34.08000	14673.00000
34.10000	14777.00000
34.12000	14669.00000
34.14000	14741.00000
34.16000	14618.00000
34.18000	14744.00000
34.20000	14754.00000
34.22000	14897.00000
34.24000	14754.00000
34.26000	14674.00000
34.28000	14759.00000
34.30000	14654.00000
34.32000	14475.00000
34.34000	14703.00000
34.36000	15018.00000
34.38000	15012.00000
34.40000	15291.00000
34.42000	15817.00000
34.44000	15792.00000
34.46000	15846.00000
34.48000	15892.00000
34.50000	16138.00000
34.52000	16189.00000
34.54000	16235.00000
34.56000	15940.00000
34.58000	15993.00000
34.60000	16319.00000
34.62000	16003.00000
34.64000	15858.00000
34.66000	15737.00000
34.68000	15465.00000
34.70000	15187.00000
34.72000	15198.00000
34.74000	15041.00000
34.76000	14898.00000
34.78000	14758.00000
34.80000	14683.00000
34.82000	14774.00000
34.84000	14725.00000
34.86000	14663.00000
34.88000	14394.00000
34.90000	14548.00000
34.92000	14492.00000
34.94000	14511.00000
34.96000	14340.00000
34.98000	14223.00000
35.00000	14263.00000
35.02000	14250.00000
35.04000	14341.00000
35.06000	14076.00000
35.08000	14149.00000
35.10000	14201.00000
35.12000	14103.00000
35.14000	14213.00000
35.16000	14009.00000
35.18000	14052.00000
35.20000	13929.00000
35.22000	14011.00000
35.24000	14189.00000
35.26000	14116.00000
35.28000	14096.00000
35.30000	14088.00000
35.32000	14039.00000
35.34000	13859.00000
35.36000	14061.00000
35.38000	14082.00000
35.40000	14230.00000
35.42000	14273.00000
35.44000	14102.00000
35.46000	14157.00000
35.48000	14277.00000
35.50000	14331.00000
35.52000	14306.00000
35.54000	14293.00000
35.56000	14468.00000
35.58000	14474.00000
35.60000	14645.00000
35.62000	14783.00000
35.64000	15015.00000
35.66000	15005.00000
35.68000	15153.00000
35.70000	15039.00000
35.72000	14937.00000
35.74000	14911.00000
35.76000	14699.00000
35.78000	14544.00000
35.80000	14466.00000
35.82000	14512.00000
35.84000	14558.00000
35.86000	14133.00000
35.88000	14149.00000
35.90000	14176.00000
35.92000	14176.00000
35.94000	14165.00000
35.96000	14281.00000
35.98000	14198.00000
36.00000	14269.00000
36.02000	14163.00000
36.04000	14280.00000
36.06000	14245.00000
36.08000	14212.00000
36.10000	14006.00000
36.12000	14029.00000
36.14000	14071.00000
36.16000	14108.00000
36.18000	14106.00000
36.20000	14038.00000
36.22000	13978.00000
36.24000	13967.00000
36.26000	14129.00000
36.28000	14039.00000
36.30000	14027.00000
36.32000	13743.00000
36.34000	13765.00000
36.36000	13931.00000
36.38000	13932.00000
36.40000	13832.00000
36.42000	13863.00000
36.44000	13846.00000
36.46000	13884.00000
36.48000	13786.00000
36.50000	13775.00000
36.52000	13749.00000
36.54000	13816.00000
36.56000	13837.00000
36.58000	13751.00000
36.60000	13717.00000
36.62000	13622.00000
36.64000	13741.00000
36.66000	13897.00000
36.68000	13867.00000
36.70000	13912.00000
36.72000	14027.00000
36.74000	13944.00000
36.76000	13971.00000
36.78000	14021.00000
36.80000	13878.00000
36.82000	13946.00000
36.84000	13949.00000
36.86000	13902.00000
36.88000	13961.00000
36.90000	13913.00000
36.92000	13858.00000
36.94000	13819.00000
36.96000	13883.00000
36.98000	13912.00000
37.00000	13860.00000
37.02000	13931.00000
37.04000	14066.00000
37.06000	14023.00000
37.08000	13864.00000
37.10000	13939.00000
37.12000	13992.00000
37.14000	14091.00000
37.16000	14094.00000
37.18000	14290.00000
37.20000	14489.00000
37.22000	14371.00000
37.24000	14429.00000
37.26000	14677.00000
37.28000	15046.00000
37.30000	15570.00000
37.32000	15768.00000
37.34000	15901.00000
37.36000	16282.00000
37.38000	16626.00000
37.40000	16985.00000
37.42000	17308.00000
37.44000	17583.00000
37.46000	17473.00000
37.48000	17439.00000
37.50000	17181.00000
37.52000	16581.00000
37.54000	15943.00000
37.56000	15394.00000
37.58000	15101.00000
37.60000	14979.00000
37.62000	14610.00000
37.64000	14392.00000
37.66000	14225.00000
37.68000	14125.00000
37.70000	14147.00000
37.72000	14030.00000
37.74000	14076.00000
37.76000	14136.00000
37.78000	14148.00000
37.80000	14240.00000
37.82000	13801.00000
37.84000	13870.00000
37.86000	14011.00000
37.88000	13866.00000
37.90000	14047.00000
37.92000	13835.00000
37.94000	13903.00000
37.96000	13823.00000
37.98000	13990.00000
38.00000	14061.00000
38.02000	13970.00000
38.04000	14064.00000
38.06000	13948.00000
38.08000	14153.00000
38.10000	14189.00000
38.12000	14073.00000
38.14000	14087.00000
38.16000	14147.00000
38.18000	14015.00000
38.20000	14206.00000
38.22000	14188.00000
38.24000	14107.00000
38.26000	13991.00000
38.28000	14007.00000
38.30000	13954.00000
38.32000	14185.00000
38.34000	13978.00000
38.36000	13944.00000
38.38000	14007.00000
38.40000	13904.00000
38.42000	13816.00000
38.44000	14057.00000
38.46000	13884.00000
38.48000	13997.00000
38.50000	14159.00000
38.52000	13937.00000
38.54000	13879.00000
38.56000	13997.00000
38.58000	13841.00000
38.60000	14080.00000
38.62000	14101.00000
38.64000	14038.00000
38.66000	14129.00000
38.68000	14084.00000
38.70000	13817.00000
38.72000	14065.00000
38.74000	14220.00000
38.76000	14153.00000
38.78000	13905.00000
38.80000	13901.00000
38.82000	13977.00000
38.84000	13877.00000
38.86000	13913.00000
38.88000	14142.00000
38.90000	14101.00000
38.92000	14112.00000
38.94000	13941.00000
38.96000	14143.00000
38.98000	14125.00000
39.00000	13763.00000
39.02000	14197.00000
39.04000	13846.00000
39.06000	14166.00000
39.08000	14198.00000
39.10000	14192.00000
39.12000	14053.00000
39.14000	14251.00000
39.16000	14135.00000
39.18000	14123.00000
39.20000	14066.00000
39.22000	14051.00000
39.24000	13934.00000
39.26000	14258.00000
39.28000	14306.00000
39.30000	14215.00000
39.32000	14232.00000
39.34000	14047.00000
39.36000	14254.00000
39.38000	14138.00000
39.40000	14037.00000
39.42000	14272.00000
39.44000	14293.00000
39.46000	14510.00000
39.48000	14196.00000
39.50000	14334.00000
39.52000	14384.00000
39.54000	14472.00000
39.56000	14248.00000
39.58000	14459.00000
39.60000	14360.00000
39.62000	14661.00000
39.64000	14732.00000
39.66000	14629.00000
39.68000	14642.00000
39.70000	14762.00000
39.72000	14926.00000
39.74000	14969.00000
39.76000	15019.00000
39.78000	14978.00000
39.80000	14872.00000
39.82000	15073.00000
39.84000	14923.00000
39.86000	14833.00000
39.88000	14851.00000
39.90000	14849.00000
39.92000	14870.00000
39.94000	14880.00000
39.96000	14794.00000
39.98000	14733.00000
40.00000	14877.00000
40.02000	14992.00000
40.04000	15229.00000
40.06000	15345.00000
40.08000	15754.00000
40.10000	16082.00000
40.12000	16202.00000
40.14000	16726.00000
40.16000	17128.00000
40.18000	17753.00000
40.20000	18404.00000
40.22000	18908.00000
40.24000	19095.00000
40.26000	19264.00000
40.28000	19426.00000
40.30000	19388.00000
40.32000	19378.00000
40.34000	19213.00000
40.36000	18835.00000
40.38000	18360.00000
40.40000	17783.00000
40.42000	17184.00000
40.44000	16568.00000
40.46000	16198.00000
40.48000	15873.00000
40.50000	15468.00000
40.52000	15195.00000
40.54000	14896.00000
40.56000	14578.00000
40.58000	14444.00000
40.60000	14516.00000
40.62000	14445.00000
40.64000	14323.00000
40.66000	14270.00000
40.68000	14264.00000
40.70000	14246.00000
40.72000	14277.00000
40.74000	14198.00000
40.76000	14111.00000
40.78000	14041.00000
40.80000	14156.00000
40.82000	14132.00000
40.84000	14174.00000
40.86000	14272.00000
40.88000	14380.00000
40.90000	14500.00000
40.92000	14371.00000
40.94000	14295.00000
40.96000	14328.00000
40.98000	14545.00000
41.00000	14694.00000
41.02000	14839.00000
41.04000	15100.00000
41.06000	15126.00000
41.08000	15070.00000
41.10000	15052.00000
41.12000	15075.00000
41.14000	14984.00000
41.16000	14839.00000
41.18000	14789.00000
41.20000	14873.00000
41.22000	15019.00000
41.24000	14991.00000
41.26000	14954.00000
41.28000	14966.00000
41.30000	15021.00000
41.32000	14862.00000
41.34000	14789.00000
41.36000	14853.00000
41.38000	14914.00000
41.40000	14976.00000
41.42000	14877.00000
41.44000	15033.00000
41.46000	15166.00000
41.48000	15050.00000
41.50000	15110.00000
41.52000	15098.00000
41.54000	15153.00000
41.56000	15219.00000
41.58000	15319.00000
41.60000	15063.00000
41.62000	15076.00000
41.64000	14941.00000
41.66000	14693.00000
41.68000	14648.00000
41.70000	14630.00000
41.72000	14562.00000
41.74000	14314.00000
41.76000	14369.00000
41.78000	14290.00000
41.80000	14271.00000
41.82000	14218.00000
41.84000	14185.00000
41.86000	14141.00000
41.88000	14091.00000
41.90000	13996.00000
41.92000	14165.00000
41.94000	14191.00000
41.96000	14140.00000
41.98000	14292.00000
42.00000	14350.00000
42.02000	14216.00000
42.04000	14279.00000
42.06000	14338.00000
42.08000	14179.00000
42.10000	14201.00000
42.12000	14312.00000
42.14000	14247.00000
42.16000	14417.00000
42.18000	14210.00000
42.20000	14199.00000
42.22000	14041.00000
42.24000	14129.00000
42.26000	14340.00000
42.28000	14075.00000
42.30000	14159.00000
42.32000	14050.00000
42.34000	14212.00000
42.36000	14165.00000
42.38000	14073.00000
42.40000	14126.00000
42.42000	14026.00000
42.44000	14217.00000
42.46000	14139.00000
42.48000	14258.00000
42.50000	14193.00000
42.52000	14252.00000
42.54000	14243.00000
42.56000	14186.00000
42.58000	14327.00000
42.60000	14138.00000
42.62000	14228.00000
42.64000	14261.00000
42.66000	14302.00000
42.68000	14308.00000
42.70000	14187.00000
42.72000	14388.00000
42.74000	14184.00000
42.76000	14296.00000
42.78000	14171.00000
42.80000	14067.00000
42.82000	14061.00000
42.84000	14183.00000
42.86000	13959.00000
42.88000	14317.00000
42.90000	14217.00000
42.92000	14171.00000
42.94000	14169.00000
42.96000	14094.00000
42.98000	14260.00000
43.00000	14299.00000
43.02000	14352.00000
43.04000	14268.00000
43.06000	14100.00000
43.08000	14435.00000
43.10000	14305.00000
43.12000	14288.00000
43.14000	14160.00000
43.16000	14196.00000
43.18000	14317.00000
43.20000	14166.00000
43.22000	14331.00000
43.24000	14357.00000
43.26000	14412.00000
43.28000	14908.00000
43.30000	15068.00000
43.32000	15155.00000
43.34000	15293.00000
43.36000	15268.00000
43.38000	15474.00000
43.40000	15673.00000
43.42000	15766.00000
43.44000	15970.00000
43.46000	16008.00000
43.48000	15891.00000
43.50000	15979.00000
43.52000	15781.00000
43.54000	15851.00000
43.56000	15826.00000
43.58000	16073.00000
43.60000	15730.00000
43.62000	15585.00000
43.64000	15228.00000
43.66000	14969.00000
43.68000	14777.00000
43.70000	14810.00000
43.72000	14671.00000
43.74000	14686.00000
43.76000	14327.00000
43.78000	14402.00000
43.80000	14297.00000
43.82000	14159.00000
43.84000	14122.00000
43.86000	14225.00000
43.88000	14238.00000
43.90000	14169.00000
43.92000	14140.00000
43.94000	14235.00000
43.96000	14196.00000
43.98000	14000.00000
44.00000	14101.00000
44.02000	14009.00000
44.04000	14036.00000
44.06000	14124.00000
44.08000	14050.00000
44.10000	13854.00000
44.12000	14061.00000
44.14000	14149.00000
44.16000	14067.00000
44.18000	14046.00000
44.20000	13922.00000
44.22000	13825.00000
44.24000	13971.00000
44.26000	14114.00000
44.28000	14157.00000
44.30000	14160.00000
44.32000	14024.00000
44.34000	14025.00000
44.36000	14028.00000
44.38000	14150.00000
44.40000	14355.00000
44.42000	14340.00000
44.44000	14644.00000
44.46000	14726.00000
44.48000	14614.00000
44.50000	14701.00000
44.52000	14868.00000
44.54000	15241.00000
44.56000	15330.00000
44.58000	15232.00000
44.60000	15422.00000
44.62000	15183.00000
44.64000	15171.00000
44.66000	15357.00000
44.68000	15306.00000
44.70000	15219.00000
44.72000	15214.00000
44.74000	15228.00000
44.76000	15053.00000
44.78000	15074.00000
44.80000	15245.00000
44.82000	15321.00000
44.84000	15266.00000
44.86000	15534.00000
44.88000	16072.00000
44.90000	16857.00000
44.92000	17520.00000
44.94000	17934.00000
44.96000	18661.00000
44.98000	19115.00000
45.00000	19281.00000
45.02000	19371.00000
45.04000	19603.00000
45.06000	19447.00000
45.08000	18823.00000
45.10000	18300.00000
45.12000	18090.00000
45.14000	17786.00000
45.16000	17126.00000
45.18000	16507.00000
45.20000	15844.00000
45.22000	15162.00000
45.24000	14939.00000
45.26000	14869.00000
45.28000	14488.00000
45.30000	14231.00000
45.32000	14064.00000
45.34000	13995.00000
45.36000	13985.00000
45.38000	13942.00000
45.40000	13885.00000
45.42000	13728.00000
45.44000	13782.00000
45.46000	13769.00000
45.48000	13822.00000
45.50000	13846.00000
45.52000	13730.00000
45.54000	13837.00000
45.56000	13907.00000
45.58000	13773.00000
45.60000	13702.00000
45.62000	13616.00000
45.64000	13670.00000
45.66000	13855.00000
45.68000	13810.00000
45.70000	13606.00000
45.72000	13602.00000
45.74000	13659.00000
45.76000	13600.00000
45.78000	13612.00000
45.80000	13660.00000
45.82000	13612.00000
45.84000	13535.00000
45.86000	13581.00000
45.88000	13690.00000
45.90000	13847.00000
45.92000	13779.00000
45.94000	13574.00000
45.96000	13601.00000
45.98000	13593.00000
46.00000	13645.00000
46.02000	13515.00000
46.04000	13552.00000
46.06000	13511.00000
46.08000	13360.00000
46.10000	13270.00000
46.12000	13474.00000
46.14000	13360.00000
46.16000	13386.00000
46.18000	13476.00000
46.20000	13470.00000
46.22000	13330.00000
46.24000	13337.00000
46.26000	13351.00000
46.28000	13307.00000
46.30000	13288.00000
46.32000	13278.00000
46.34000	13408.00000
46.36000	13378.00000
46.38000	13280.00000
46.40000	13284.00000
46.42000	13203.00000
46.44000	13238.00000
46.46000	13138.00000
46.48000	13440.00000
46.50000	13441.00000
46.52000	13435.00000
46.54000	13237.00000
46.56000	13109.00000
46.58000	13125.00000
46.60000	13203.00000
46.62000	13262.00000
46.64000	13201.00000
46.66000	13399.00000
46.68000	13346.00000
46.70000	13065.00000
46.72000	13296.00000
46.74000	13325.00000
46.76000	13316.00000
46.78000	13260.00000
46.80000	13213.00000
46.82000	13215.00000
46.84000	13232.00000
46.86000	13226.00000
46.88000	13232.00000
46.90000	13261.00000
46.92000	13468.00000
46.94000	13284.00000
46.96000	13116.00000
46.98000	13269.00000
47.00000	13304.00000
47.02000	13162.00000
47.04000	13155.00000
47.06000	13213.00000
47.08000	13156.00000
47.10000	13244.00000
47.12000	13187.00000
47.14000	13357.00000
47.16000	13188.00000
47.18000	13474.00000
47.20000	13648.00000
47.22000	13689.00000
47.24000	13966.00000
47.26000	14308.00000
47.28000	14459.00000
47.30000	14557.00000
47.32000	14452.00000
47.34000	14115.00000
47.36000	14033.00000
47.38000	13647.00000
47.40000	13464.00000
47.42000	13654.00000
47.44000	13768.00000
47.46000	13696.00000
47.48000	13489.00000
47.50000	13174.00000
47.52000	13247.00000
47.54000	13191.00000
47.56000	12940.00000
47.58000	13024.00000
47.60000	13291.00000
47.62000	13058.00000
47.64000	12992.00000
47.66000	13120.00000
47.68000	13144.00000
47.70000	13203.00000
47.72000	13093.00000
47.74000	12826.00000
47.76000	13053.00000
47.78000	13171.00000
47.80000	12969.00000
47.82000	13015.00000
47.84000	12923.00000
47.86000	13063.00000
47.88000	13101.00000
47.90000	12901.00000
47.92000	12791.00000
47.94000	12833.00000
47.96000	12901.00000
47.98000	13114.00000
48.00000	13123.00000
48.02000	13146.00000
48.04000	13213.00000
48.06000	13030.00000
48.08000	13211.00000
48.10000	13180.00000
48.12000	13247.00000
48.14000	13409.00000
48.16000	13486.00000
48.18000	13654.00000
48.20000	13882.00000
48.22000	13891.00000
48.24000	14114.00000
48.26000	14216.00000
48.28000	14326.00000
48.30000	14265.00000
48.32000	14389.00000
48.34000	14689.00000
48.36000	14703.00000
48.38000	14878.00000
48.40000	15209.00000
48.42000	15611.00000
48.44000	15620.00000
48.46000	15186.00000
48.48000	14497.00000
48.50000	14119.00000
48.52000	13960.00000
48.54000	13956.00000
48.56000	13943.00000
48.58000	13771.00000
48.60000	13502.00000
48.62000	13340.00000
48.64000	13023.00000
48.66000	12813.00000
48.68000	12805.00000
48.70000	12808.00000
48.72000	12764.00000
48.74000	12842.00000
48.76000	12760.00000
48.78000	12867.00000
48.80000	12826.00000
48.82000	12757.00000
48.84000	12758.00000
48.86000	12792.00000
48.88000	12686.00000
48.90000	12754.00000
48.92000	12680.00000
48.94000	12634.00000
48.96000	12827.00000
48.98000	12905.00000
49.00000	12825.00000
49.02000	12857.00000
49.04000	12792.00000
49.06000	12841.00000
49.08000	12843.00000
49.10000	12689.00000
49.12000	12608.00000
49.14000	12655.00000
49.16000	12712.00000
49.18000	12738.00000
49.20000	12706.00000
49.22000	12777.00000
49.24000	12906.00000
49.26000	12916.00000
49.28000	12855.00000
49.30000	12881.00000
49.32000	12809.00000
49.34000	12866.00000
49.36000	12930.00000
49.38000	12917.00000
49.40000	12954.00000
49.42000	12823.00000
49.44000	12801.00000
49.46000	12999.00000
49.48000	13083.00000
49.50000	12959.00000
49.52000	12980.00000
49.54000	13043.00000
49.56000	13049.00000
49.58000	13051.00000
49.60000	13076.00000
49.62000	12894.00000
49.64000	12775.00000
49.66000	12803.00000
49.68000	12787.00000
49.70000	12915.00000
49.72000	12782.00000
49.74000	12744.00000
49.76000	12760.00000
49.78000	12721.00000
49.80000	12652.00000
49.82000	12660.00000
49.84000	12679.00000
49.86000	12643.00000
49.88000	12543.00000
49.90000	12505.00000
49.92000	12511.00000
49.94000	12557.00000
49.96000	12515.00000
49.98000	12460.00000
50.00000	12445.00000
50.02000	12528.00000
50.04000	12468.00000
50.06000	12489.00000
50.08000	12548.00000
50.10000	12473.00000
50.12000	12375.00000
50.14000	12473.00000
50.16000	12439.00000
50.18000	12370.00000
50.20000	12446.00000
50.22000	12468.00000
50.24000	12394.00000
50.26000	12475.00000
50.28000	12360.00000
50.30000	12320.00000
50.32000	12432.00000
50.34000	12326.00000
50.36000	12332.00000
50.38000	12297.00000
50.40000	12297.00000
50.42000	12347.00000
50.44000	12193.00000
50.46000	12196.00000
50.48000	12252.00000
50.50000	12249.00000
50.52000	12243.00000
50.54000	12296.00000
50.56000	12247.00000
50.58000	12319.00000
50.60000	12237.00000
50.62000	12320.00000
50.64000	12199.00000
50.66000	12252.00000
50.68000	12376.00000
50.70000	12404.00000
50.72000	12499.00000
50.74000	12366.00000
50.76000	12317.00000
50.78000	12287.00000
50.80000	12601.00000
50.82000	12778.00000
50.84000	12505.00000
50.86000	12542.00000
50.88000	12552.00000
50.90000	12442.00000
50.92000	12496.00000
50.94000	12409.00000
50.96000	12332.00000
50.98000	12463.00000
51.00000	12364.00000
51.02000	12207.00000
51.04000	12262.00000
51.06000	12292.00000
51.08000	12184.00000
51.10000	12246.00000
51.12000	12223.00000
51.14000	12296.00000
51.16000	12184.00000
51.18000	12212.00000
51.20000	12325.00000
51.22000	12117.00000
51.24000	12106.00000
51.26000	12092.00000
51.28000	12162.00000
51.30000	12148.00000
51.32000	11953.00000
51.34000	12075.00000
51.36000	12262.00000
51.38000	12025.00000
51.40000	12047.00000
51.42000	12080.00000
51.44000	12124.00000
51.46000	11962.00000
51.48000	11834.00000
51.50000	12094.00000
51.52000	12091.00000
51.54000	12104.00000
51.56000	12100.00000
51.58000	12029.00000
51.60000	11961.00000
51.62000	12171.00000
51.64000	12028.00000
51.66000	12139.00000
51.68000	12120.00000
51.70000	11987.00000
51.72000	12089.00000
51.74000	12166.00000
51.76000	12019.00000
51.78000	11915.00000
51.80000	11925.00000
51.82000	11791.00000
51.84000	11898.00000
51.86000	12135.00000
51.88000	12067.00000
51.90000	11892.00000
51.92000	11938.00000
51.94000	12065.00000
51.96000	11961.00000
51.98000	12269.00000
52.00000	12246.00000
52.02000	12411.00000
52.04000	12216.00000
52.06000	12219.00000
52.08000	12143.00000
52.10000	12232.00000
52.12000	12299.00000
52.14000	12185.00000
52.16000	12224.00000
52.18000	12153.00000
52.20000	12117.00000
52.22000	11985.00000
52.24000	12000.00000
52.26000	12115.00000
52.28000	11915.00000
52.30000	11960.00000
52.32000	12076.00000
52.34000	12064.00000
52.36000	12181.00000
52.38000	12036.00000
52.40000	12114.00000
52.42000	12117.00000
52.44000	12146.00000
52.46000	12049.00000
52.48000	12112.00000
52.50000	12315.00000
52.52000	12129.00000
52.54000	12311.00000
52.56000	12361.00000
52.58000	12460.00000
52.60000	12749.00000
52.62000	13137.00000
52.64000	13526.00000
52.66000	13648.00000
52.68000	13895.00000
52.70000	13701.00000
52.72000	13168.00000
52.74000	12861.00000
52.76000	12812.00000
52.78000	12842.00000
52.80000	12898.00000
52.82000	12910.00000
52.84000	12730.00000
52.86000	12428.00000
52.88000	12270.00000
52.90000	12121.00000
52.92000	11961.00000
52.94000	11902.00000
52.96000	11844.00000
52.98000	11864.00000
53.00000	11822.00000
53.02000	11936.00000
53.04000	11994.00000
53.06000	11860.00000
53.08000	11906.00000
53.10000	11900.00000
53.12000	11897.00000
53.14000	12001.00000
53.16000	11956.00000
53.18000	11879.00000
53.20000	11828.00000
53.22000	11829.00000
53.24000	11930.00000
53.26000	11894.00000
53.28000	11873.00000
53.30000	11902.00000
53.32000	12033.00000
53.34000	11975.00000
53.36000	11806.00000
53.38000	11846.00000
53.40000	11913.00000
53.42000	11821.00000
53.44000	11816.00000
53.46000	11653.00000
53.48000	11591.00000
53.50000	11672.00000
53.52000	11812.00000
53.54000	11841.00000
53.56000	11849.00000
53.58000	11914.00000
53.60000	11863.00000
53.62000	11828.00000
53.64000	11830.00000
53.66000	11775.00000
53.68000	11790.00000
53.70000	11791.00000
53.72000	11787.00000
53.74000	11883.00000
53.76000	11867.00000
53.78000	11771.00000
53.80000	11677.00000
53.82000	11789.00000
53.84000	11689.00000
53.86000	11598.00000
53.88000	11808.00000
53.90000	11921.00000
53.92000	11899.00000
53.94000	12015.00000
53.96000	11960.00000
53.98000	11804.00000
54.00000	11947.00000
54.02000	11895.00000
54.04000	11926.00000
54.06000	12073.00000
54.08000	12185.00000
54.10000	12171.00000
54.12000	12098.00000
54.14000	12206.00000
54.16000	12269.00000
54.18000	12263.00000
54.20000	12406.00000
54.22000	12552.00000
54.24000	12525.00000
54.26000	12346.00000
54.28000	12430.00000
54.30000	12430.00000
54.32000	12415.00000
54.34000	12358.00000
54.36000	12311.00000
54.38000	12298.00000
54.40000	12229.00000
54.42000	12237.00000
54.44000	12212.00000
54.46000	12284.00000
54.48000	12267.00000
54.50000	12244.00000
54.52000	12230.00000
54.54000	12388.00000
54.56000	12397.00000
54.58000	12294.00000
54.60000	12144.00000
54.62000	12214.00000
54.64000	12053.00000
54.66000	12045.00000
54.68000	12024.00000
54.70000	11981.00000
54.72000	12221.00000
54.74000	12093.00000
54.76000	12111.00000
54.78000	12112.00000
54.80000	11911.00000
54.82000	12004.00000
54.84000	11887.00000
54.86000	11876.00000
54.88000	11961.00000
54.90000	11801.00000
54.92000	11847.00000
54.94000	11647.00000
54.96000	11855.00000
54.98000	11780.00000
55.00000	11696.00000
55.02000	11765.00000
55.04000	11973.00000
55.06000	11727.00000
55.08000	11779.00000
55.10000	11731.00000
55.12000	11676.00000
55.14000	11631.00000
55.16000	11746.00000
55.18000	11571.00000
55.20000	11620.00000
55.22000	11757.00000
55.24000	11802.00000
55.26000	11774.00000
55.28000	11677.00000
55.30000	11670.00000
55.32000	11615.00000
55.34000	11697.00000
55.36000	11656.00000
55.38000	11749.00000
55.40000	11724.00000
55.42000	11679.00000
55.44000	11688.00000
55.46000	11853.00000
55.48000	11696.00000
55.50000	11669.00000
55.52000	11762.00000
55.54000	11636.00000
55.56000	11576.00000
55.58000	11819.00000
55.60000	11618.00000
55.62000	11700.00000
55.64000	11786.00000
55.66000	11557.00000
55.68000	11650.00000
55.70000	11747.00000
55.72000	11690.00000
55.74000	11711.00000
55.76000	11846.00000
55.78000	11782.00000
55.80000	11837.00000
55.82000	11757.00000
55.84000	11875.00000
55.86000	11822.00000
55.88000	11767.00000
55.90000	11760.00000
55.92000	11701.00000
55.94000	11960.00000
55.96000	11773.00000
55.98000	11751.00000
56.00000	11846.00000
56.02000	12010.00000
56.04000	11716.00000
56.06000	11712.00000
56.08000	11672.00000
56.10000	11830.00000
56.12000	11890.00000
56.14000	11688.00000
56.16000	11992.00000
56.18000	11736.00000
56.20000	11575.00000
56.22000	11801.00000
56.24000	11759.00000
56.26000	11659.00000
56.28000	11855.00000
56.30000	11859.00000
56.32000	12031.00000
56.34000	11849.00000
56.36000	11868.00000
56.38000	11767.00000
56.40000	11646.00000
56.42000	11985.00000
56.44000	11696.00000
56.46000	11709.00000
56.48000	11944.00000
56.50000	11981.00000
56.52000	11791.00000
56.54000	11950.00000
56.56000	11764.00000
56.58000	11560.00000
56.60000	11737.00000
56.62000	11940.00000
56.64000	11820.00000
56.66000	11704.00000
56.68000	11716.00000
56.70000	11744.00000
56.72000	11668.00000
56.74000	11860.00000
56.76000	11939.00000
56.78000	11830.00000
56.80000	11776.00000
56.82000	11795.00000
56.84000	11838.00000
56.86000	11824.00000
56.88000	11889.00000
56.90000	11908.00000
56.92000	11897.00000
56.94000	11897.00000
56.96000	11978.00000
56.98000	11732.00000
57.00000	11741.00000
57.02000	11942.00000
57.04000	11986.00000
57.06000	11980.00000
57.08000	11930.00000
57.10000	11911.00000
57.12000	11954.00000
57.14000	11836.00000
57.16000	11689.00000
57.18000	11712.00000
57.20000	11745.00000
57.22000	11673.00000
57.24000	11737.00000
57.26000	11840.00000
57.28000	11682.00000
57.30000	11770.00000
57.32000	11937.00000
57.34000	11952.00000
57.36000	11800.00000
57.38000	11769.00000
57.40000	11775.00000
57.42000	11922.00000
57.44000	12135.00000
57.46000	12245.00000
57.48000	12315.00000
57.50000	12301.00000
57.52000	12358.00000
57.54000	12203.00000
57.56000	12091.00000
57.58000	12104.00000
57.60000	12130.00000
57.62000	11990.00000
57.64000	11959.00000
57.66000	11943.00000
57.68000	11808.00000
57.70000	11707.00000
57.72000	11625.00000
57.74000	11609.00000
57.76000	11684.00000
57.78000	11618.00000
57.80000	11435.00000
57.82000	11447.00000
57.84000	11424.00000
57.86000	11494.00000
57.88000	11499.00000
57.90000	11409.00000
57.92000	11330.00000
57.94000	11243.00000
57.96000	11232.00000
57.98000	11246.00000
58.00000	11136.00000
58.02000	11136.00000
58.04000	11298.00000
58.06000	11356.00000
58.08000	11429.00000
58.10000	11382.00000
58.12000	11340.00000
58.14000	11205.00000
58.16000	11220.00000
58.18000	11381.00000
58.20000	11308.00000
58.22000	11383.00000
58.24000	11491.00000
58.26000	11393.00000
58.28000	11297.00000
58.30000	11375.00000
58.32000	11502.00000
58.34000	11474.00000
58.36000	11416.00000
58.38000	11335.00000
58.40000	11330.00000
58.42000	11450.00000
58.44000	11385.00000
58.46000	11365.00000
58.48000	11385.00000
58.50000	11384.00000
58.52000	11520.00000
58.54000	11565.00000
58.56000	11586.00000
58.58000	11671.00000
58.60000	11545.00000
58.62000	11517.00000
58.64000	11455.00000
58.66000	11508.00000
58.68000	11562.00000
58.70000	11546.00000
58.72000	11600.00000
58.74000	11378.00000
58.76000	11394.00000
58.78000	11467.00000
58.80000	11381.00000
58.82000	11280.00000
58.84000	11216.00000
58.86000	11263.00000
58.88000	11265.00000
58.90000	11327.00000
58.92000	11419.00000
58.94000	11368.00000
58.96000	11390.00000
58.98000	11258.00000
59.00000	11249.00000
59.02000	11356.00000
59.04000	11352.00000
59.06000	11337.00000
59.08000	11298.00000
59.10000	11335.00000
59.12000	11295.00000
59.14000	11266.00000
59.16000	11403.00000
59.18000	11403.00000
59.20000	11380.00000
59.22000	11509.00000
59.24000	11138.00000
59.26000	11272.00000
59.28000	11270.00000
59.30000	11291.00000
59.32000	11319.00000
59.34000	11330.00000
59.36000	11282.00000
59.38000	11025.00000
59.40000	11193.00000
59.42000	11359.00000
59.44000	11323.00000
59.46000	11178.00000
59.48000	11188.00000
59.50000	11196.00000
59.52000	11065.00000
59.54000	11355.00000
59.56000	11461.00000
59.58000	11316.00000
59.60000	11234.00000
59.62000	11317.00000
59.64000	11537.00000
59.66000	11349.00000
59.68000	11210.00000
59.70000	11180.00000
59.72000	11345.00000
59.74000	11168.00000
59.76000	11244.00000
59.78000	11291.00000
59.80000	11296.00000
59.82000	11169.00000
59.84000	11104.00000
59.86000	11166.00000
59.88000	11307.00000
59.90000	11260.00000
59.92000	11069.00000
59.94000	11050.00000
59.96000	11208.00000
59.98000	11219.00000
60.00000	11258.00000
