1.01090	999.00000
1.02761	951.00000
1.04432	950.00000
1.06103	1060.00000
1.07774	990.00000
1.09445	1028.00000
1.11117	1063.00000
1.12788	1076.00000
1.14459	1075.00000
1.16130	1188.00000
1.17801	1186.00000
1.19472	1160.00000
1.21143	1244.00000
1.22814	1136.00000
1.24485	1139.00000
1.26156	1173.00000
1.27828	1155.00000
1.29499	1219.00000
1.31170	1154.00000
1.32841	1195.00000
1.34512	1177.00000
1.36183	1179.00000
1.37854	1224.00000
1.39525	1153.00000
1.41196	1222.00000
1.42867	1182.00000
1.44539	1129.00000
1.46210	1160.00000
1.47881	1255.00000
1.49552	1226.00000
1.51223	1153.00000
1.52894	1197.00000
1.54565	1137.00000
1.56236	1197.00000
1.57907	1237.00000
1.59578	1157.00000
1.61250	1193.00000
1.62921	1224.00000
1.64592	1162.00000
1.66263	1202.00000
1.67934	1201.00000
1.69605	1223.00000
1.71276	1121.00000
1.72947	1187.00000
1.74618	1167.00000
1.76289	1177.00000
1.77961	1118.00000
1.79632	1214.00000
1.81303	1200.00000
1.82974	1142.00000
1.84645	1157.00000
1.86316	1185.00000
1.87987	1158.00000
1.89658	1133.00000
1.91329	1134.00000
1.93000	1155.00000
1.94672	1113.00000
1.96343	1108.00000
1.98014	1181.00000
1.99685	1199.00000
2.01356	1167.00000
2.03027	1109.00000
2.04698	1161.00000
2.06369	1181.00000
2.08040	1139.00000
2.09711	1201.00000
2.11383	1137.00000
2.13054	1107.00000
2.14725	1215.00000
2.16396	1101.00000
2.18067	1156.00000
2.19738	1081.00000
2.21409	1106.00000
2.23080	1187.00000
2.24751	1106.00000
2.26422	1178.00000
2.28094	1182.00000
2.29765	1151.00000
2.31436	1151.00000
2.33107	1111.00000
2.34778	1119.00000
2.36449	1163.00000
2.38120	1101.00000
2.39791	1142.00000
2.41462	1173.00000
2.43133	1123.00000
2.44805	1153.00000
2.46476	1191.00000
2.48147	1168.00000
2.49818	1161.00000
2.51489	1076.00000
2.53160	1133.00000
2.54831	1154.00000
2.56502	1058.00000
2.58173	1160.00000
2.59844	1151.00000
2.61516	1167.00000
2.63187	1097.00000
2.64858	1200.00000
2.66529	1153.00000
2.68200	1104.00000
2.69871	1112.00000
2.71542	1150.00000
2.73213	1118.00000
2.74884	1149.00000
2.76555	1134.00000
2.78227	1135.00000
2.79898	1077.00000
2.81569	1216.00000
2.83240	1112.00000
2.84911	1186.00000
2.86582	1120.00000
2.88253	1194.00000
2.89924	1158.00000
2.91595	1202.00000
2.93266	1129.00000
2.94938	1166.00000
2.96609	1151.00000
2.98280	1120.00000
2.99951	1152.00000
3.01622	1141.00000
3.03293	1157.00000
3.04964	1197.00000
3.06635	1152.00000
3.08306	1127.00000
3.09977	1144.00000
3.11649	1139.00000
3.13320	1227.00000
3.14991	1166.00000
3.16662	1207.00000
3.18333	1238.00000
3.20004	1250.00000
3.21675	1218.00000
3.23346	1290.00000
3.25017	1369.00000
3.26688	1424.00000
3.28360	1301.00000
3.30031	1241.00000
3.31702	1149.00000
3.33373	1086.00000
3.35044	1084.00000
3.36715	1163.00000
3.38386	1142.00000
3.40057	1126.00000
3.41728	1136.00000
3.43399	1115.00000
3.45071	1160.00000
3.46742	1149.00000
3.48413	1144.00000
3.50084	1075.00000
3.51755	1140.00000
3.53426	1113.00000
3.55097	1150.00000
3.56768	1127.00000
3.58439	1166.00000
3.60110	1130.00000
3.61782	1160.00000
3.63453	1162.00000
3.65124	1117.00000
3.66795	1195.00000
3.68466	1192.00000
3.70137	1105.00000
3.71808	1166.00000
3.73479	1131.00000
3.75150	1160.00000
3.76821	1211.00000
3.78493	1206.00000
3.80164	1165.00000
3.81835	1170.00000
3.83506	1177.00000
3.85177	1219.00000
3.86848	1179.00000
3.88519	1174.00000
3.90190	1278.00000
3.91861	1168.00000
3.93532	1347.00000
3.95204	1290.00000
3.96875	1343.00000
3.98546	1384.00000
4.00217	1397.00000
4.01888	1450.00000
4.03559	1398.00000
4.05230	1572.00000
4.06901	1678.00000
4.08572	1673.00000
4.10243	1752.00000
4.11915	1873.00000
4.13586	1955.00000
4.15257	2064.00000
4.16928	2213.00000
4.18599	2446.00000
4.20270	2688.00000
4.21941	3004.00000
4.23612	3187.00000
4.25283	4052.00000
4.26954	4537.00000
4.28626	5673.00000
4.30297	7109.00000
4.31968	7632.00000
4.33639	6263.00000
4.35310	4544.00000
4.36981	2746.00000
4.38652	1741.00000
4.40323	1402.00000
4.41994	1257.00000
4.43665	1285.00000
4.45337	1188.00000
4.47008	1170.00000
4.48679	1114.00000
4.50350	1146.00000
4.52021	1205.00000
4.53692	1184.00000
4.55363	1107.00000
4.57034	1156.00000
4.58705	1127.00000
4.60376	1138.00000
4.62048	1073.00000
4.63719	1175.00000
4.65390	1121.00000
4.67061	1138.00000
4.68732	1144.00000
4.70403	1140.00000
4.72074	1085.00000
4.73745	1057.00000
4.75416	1136.00000
4.77087	1126.00000
4.78759	1109.00000
4.80430	1110.00000
4.82101	1142.00000
4.83772	1139.00000
4.85443	1179.00000
4.87114	1101.00000
4.88785	1189.00000
4.90456	1117.00000
4.92127	1097.00000
4.93798	1120.00000
4.95470	1166.00000
4.97141	1054.00000
4.98812	1190.00000
5.00483	1122.00000
5.02154	1135.00000
5.03825	1210.00000
5.05496	1103.00000
5.07167	1155.00000
5.08838	1170.00000
5.10509	1101.00000
5.12181	1140.00000
5.13852	1110.00000
5.15523	1123.00000
5.17194	1136.00000
5.18865	1153.00000
5.20536	1168.00000
5.22207	1114.00000
5.23878	1185.00000
5.25549	1151.00000
5.27220	1115.00000
5.28892	1124.00000
5.30563	1171.00000
5.32234	1130.00000
5.33905	1188.00000
5.35576	1248.00000
5.37247	1146.00000
5.38918	1122.00000
5.40589	1112.00000
5.42260	1105.00000
5.43931	1182.00000
5.45603	1197.00000
5.47274	1212.00000
5.48945	1197.00000
5.50616	1179.00000
5.52287	1163.00000
5.53958	1195.00000
5.55629	1184.00000
5.57300	1158.00000
5.58971	1223.00000
5.60642	1179.00000
5.62314	1204.00000
5.63985	1212.00000
5.65656	1190.00000
5.67327	1197.00000
5.68998	1271.00000
5.70669	1234.00000
5.72340	1249.00000
5.74011	1193.00000
5.75682	1169.00000
5.77353	1228.00000
5.79025	1191.00000
5.80696	1234.00000
5.82367	1144.00000
5.84038	1175.00000
5.85709	1251.00000
5.87380	1216.00000
5.89051	1162.00000
5.90722	1246.00000
5.92393	1182.00000
5.94064	1257.00000
5.95736	1212.00000
5.97407	1191.00000
5.99078	1266.00000
6.00749	1290.00000
6.02420	1211.00000
6.04091	1252.00000
6.05762	1260.00000
6.07433	1240.00000
6.09104	1207.00000
6.10775	1258.00000
6.12447	1223.00000
6.14118	1200.00000
6.15789	1312.00000
6.17460	1251.00000
6.19131	1293.00000
6.20802	1212.00000
6.22473	1296.00000
6.24144	1203.00000
6.25815	1384.00000
6.27486	1406.00000
6.29158	1319.00000
6.30829	1387.00000
6.32500	1377.00000
6.34171	1438.00000
6.35842	1372.00000
6.37513	1500.00000
6.39184	1600.00000
6.40855	1599.00000
6.42526	1616.00000
6.44197	1735.00000
6.45869	1836.00000
6.47540	1981.00000
6.49211	2213.00000
6.50882	2533.00000
6.52553	2961.00000
6.54224	3219.00000
6.55895	3062.00000
6.57566	2627.00000
6.59237	2378.00000
6.60908	1998.00000
6.62580	1672.00000
6.64251	1622.00000
6.65922	1595.00000
6.67593	1558.00000
6.69264	1540.00000
6.70935	1545.00000
6.72606	1511.00000
6.74277	1409.00000
6.75948	1509.00000
6.77619	1451.00000
6.79291	1418.00000
6.80962	1433.00000
6.82633	1517.00000
6.84304	1487.00000
6.85975	1524.00000
6.87646	1506.00000
6.89317	1406.00000
6.90988	1485.00000
6.92659	1463.00000
6.94330	1470.00000
6.96002	1506.00000
6.97673	1480.00000
6.99344	1510.00000
7.01015	1511.00000
7.02686	1551.00000
7.04357	1533.00000
7.06028	1555.00000
7.07699	1558.00000
7.09370	1565.00000
7.11041	1555.00000
7.12713	1584.00000
7.14384	1600.00000
7.16055	1625.00000
7.17726	1651.00000
7.19397	1538.00000
7.21068	1653.00000
7.22739	1594.00000
7.24410	1707.00000
7.26081	1626.00000
7.27752	1665.00000
7.29424	1764.00000
7.31095	1715.00000
7.32766	1830.00000
7.34437	1879.00000
7.36108	1967.00000
7.37779	2058.00000
7.39450	2284.00000
7.41121	2443.00000
7.42792	2564.00000
7.44463	2643.00000
7.46135	2530.00000
7.47806	2431.00000
7.49477	2197.00000
7.51148	2110.00000
7.52819	1917.00000
7.54490	1859.00000
7.56161	1812.00000
7.57832	1760.00000
7.59503	1816.00000
7.61174	1855.00000
7.62846	1927.00000
7.64517	1917.00000
7.66188	1996.00000
7.67859	2000.00000
7.69530	1950.00000
7.71201	1967.00000
7.72872	1913.00000
7.74543	1912.00000
7.76214	1922.00000
7.77885	1854.00000
7.79557	1840.00000
7.81228	1839.00000
7.82899	1788.00000
7.84570	1971.00000
7.86241	1914.00000
7.87912	1911.00000
7.89583	2001.00000
7.91254	2008.00000
7.92925	1921.00000
7.94596	2128.00000
7.96268	2117.00000
7.97939	2197.00000
7.99610	2157.00000
8.01281	2356.00000
8.02952	2330.00000
8.04623	2479.00000
8.06294	2560.00000
8.07965	2822.00000
8.09636	2991.00000
8.11307	3318.00000
8.12979	3740.00000
8.14650	4277.00000
8.16321	5077.00000
8.17992	6239.00000
8.19663	8113.00000
8.21334	10851.00000
8.23005	12354.00000
8.24676	10859.00000
8.26347	8357.00000
8.28018	7462.00000
8.29690	6492.00000
8.31361	4584.00000
8.33032	3020.00000
8.34703	2541.00000
8.36374	2526.00000
8.38045	2514.00000
8.39716	2615.00000
8.41387	2736.00000
8.43058	2869.00000
8.44729	3054.00000
8.46401	3161.00000
8.48072	3075.00000
8.49743	3281.00000
8.51414	3278.00000
8.53085	3438.00000
8.54756	3678.00000
8.56427	4163.00000
8.58098	4893.00000
8.59769	5848.00000
8.61440	7467.00000
8.63112	9418.00000
8.64783	10323.00000
8.66454	9463.00000
8.68125	7748.00000
8.69796	6887.00000
8.71467	6113.00000
8.73138	4915.00000
8.74809	4023.00000
8.76480	3700.00000
8.78151	3903.00000
8.79823	3730.00000
8.81494	3406.00000
8.83165	3221.00000
8.84836	3147.00000
8.86507	3069.00000
8.88178	2841.00000
8.89849	2775.00000
8.91520	2816.00000
8.93191	3010.00000
8.94862	3183.00000
8.96534	3030.00000
8.98205	2771.00000
8.99876	2656.00000
9.01547	2633.00000
9.03218	2493.00000
9.04889	2300.00000
9.06560	2270.00000
9.08231	2235.00000
9.09902	2279.00000
9.11573	2196.00000
9.13245	2191.00000
9.14916	2301.00000
9.16587	2402.00000
9.18258	2346.00000
9.19929	2335.00000
9.21600	2342.00000
9.23271	2259.00000
9.24942	2185.00000
9.26613	2249.00000
9.28284	2097.00000
9.29956	2139.00000
9.31627	2226.00000
9.33298	2049.00000
9.34969	2146.00000
9.36640	2094.00000
9.38311	2065.00000
9.39982	2097.00000
9.41653	2186.00000
9.43324	2073.00000
9.44995	2133.00000
9.46667	2191.00000
9.48338	2076.00000
9.50009	2203.00000
9.51680	2196.00000
9.53351	2217.00000
9.55022	2170.00000
9.56693	2091.00000
9.58364	2218.00000
9.60035	2227.00000
9.61706	2221.00000
9.63378	2384.00000
9.65049	2389.00000
9.66720	2477.00000
9.68391	2582.00000
9.70062	2794.00000
9.71733	2991.00000
9.73404	3208.00000
9.75075	3322.00000
9.76746	3250.00000
9.78417	3403.00000
9.80089	3534.00000
9.81760	3910.00000
9.83431	4070.00000
9.85102	4338.00000
9.86773	4882.00000
9.88444	5749.00000
9.90115	7176.00000
9.91786	8240.00000
9.93457	8674.00000
9.95128	7816.00000
9.96800	6767.00000
9.98471	5953.00000
10.00142	5527.00000
10.01813	4833.00000
10.03484	3938.00000
10.05155	3116.00000
10.06826	2727.00000
10.08497	2581.00000
10.10168	2513.00000
10.11839	2416.00000
10.13511	2354.00000
10.15182	2250.00000
10.16853	2274.00000
10.18524	2208.00000
10.20195	2319.00000
10.21866	2357.00000
10.23537	2543.00000
10.25208	2559.00000
10.26879	2567.00000
10.28550	2525.00000
10.30222	2381.00000
10.31893	2366.00000
10.33564	2321.00000
10.35235	2364.00000
10.36906	2234.00000
10.38577	2139.00000
10.40248	2153.00000
10.41919	2254.00000
10.43590	2154.00000
10.45261	2106.00000
10.46933	2108.00000
10.48604	2163.00000
10.50275	2092.00000
10.51946	2148.00000
10.53617	2136.00000
10.55288	2036.00000
10.56959	2114.00000
10.58630	2111.00000
10.60301	2144.00000
10.61972	2108.00000
10.63644	2178.00000
10.65315	2129.00000
10.66986	2149.00000
10.68657	2092.00000
10.70328	2213.00000
10.71999	2120.00000
10.73670	2110.00000
10.75341	2197.00000
10.77012	2084.00000
10.78683	2106.00000
10.80355	2144.00000
10.82026	2222.00000
10.83697	2188.00000
10.85368	2205.00000
10.87039	2177.00000
10.88710	2341.00000
10.90381	2469.00000
10.92052	2258.00000
10.93723	2310.00000
10.95394	2312.00000
10.97066	2276.00000
10.98737	2332.00000
11.00408	2284.00000
11.02079	2274.00000
11.03750	2321.00000
11.05421	2338.00000
11.07092	2380.00000
11.08763	2372.00000
11.10434	2527.00000
11.12105	2585.00000
11.13777	2759.00000
11.15448	2838.00000
11.17119	3074.00000
11.18790	3358.00000
11.20461	3644.00000
11.22132	4235.00000
11.23803	4945.00000
11.25474	5906.00000
11.27145	7226.00000
11.28816	9482.00000
11.30488	13192.00000
11.32159	16185.00000
11.33830	17920.00000
11.35501	16347.00000
11.37172	13828.00000
11.38843	11879.00000
11.40514	10634.00000
11.42185	9564.00000
11.43856	7363.00000
11.45527	5160.00000
11.47199	3767.00000
11.48870	2892.00000
11.50541	2616.00000
11.52212	2466.00000
11.53883	2369.00000
11.55554	2424.00000
11.57225	2204.00000
11.58896	2240.00000
11.60567	2282.00000
11.62238	2115.00000
11.63910	2303.00000
11.65581	2149.00000
11.67252	2247.00000
11.68923	2165.00000
11.70594	2136.00000
11.72265	2111.00000
11.73936	2226.00000
11.75607	2018.00000
11.77278	2124.00000
11.78949	2172.00000
11.80621	2093.00000
11.82292	2130.00000
11.83963	2130.00000
11.85634	2156.00000
11.87305	2147.00000
11.88976	2082.00000
11.90647	2149.00000
11.92318	1955.00000
11.93989	2024.00000
11.95660	2134.00000
11.97332	2227.00000
11.99003	2189.00000
12.00674	2166.00000
12.02345	2194.00000
12.04016	2228.00000
12.05687	2256.00000
12.07358	2164.00000
12.09029	2272.00000
12.10700	2300.00000
12.12371	2254.00000
12.14043	2256.00000
12.15714	2302.00000
12.17385	2339.00000
12.19056	2516.00000
12.20727	2707.00000
12.22398	2949.00000
12.24069	3118.00000
12.25740	3184.00000
12.27411	3021.00000
12.29082	2810.00000
12.30754	2681.00000
12.32425	2597.00000
12.34096	2646.00000
12.35767	2517.00000
12.37438	2324.00000
12.39109	2255.00000
12.40780	2229.00000
12.42451	2237.00000
12.44122	2366.00000
12.45793	2275.00000
12.47465	2346.00000
12.49136	2299.00000
12.50807	2164.00000
12.52478	2049.00000
12.54149	2104.00000
12.55820	2114.00000
12.57491	2087.00000
12.59162	2128.00000
12.60833	2097.00000
12.62504	2064.00000
12.64176	2119.00000
12.65847	2085.00000
12.67518	2140.00000
12.69189	2041.00000
12.70860	2143.00000
12.72531	2187.00000
12.74202	2052.00000
12.75873	2168.00000
12.77544	2049.00000
12.79215	2056.00000
12.80887	2094.00000
12.82558	2179.00000
12.84229	2082.00000
12.85900	2173.00000
12.87571	2339.00000
12.89242	2396.00000
12.90913	2501.00000
12.92584	2491.00000
12.94255	2683.00000
12.95926	2721.00000
12.97598	2813.00000
12.99269	2811.00000
13.00940	2903.00000
13.02611	2986.00000
13.04282	2956.00000
13.05953	3051.00000
13.07624	3328.00000
13.09295	3537.00000
13.10966	3719.00000
13.12637	3735.00000
13.14309	3500.00000
13.15980	3280.00000
13.17651	3264.00000
13.19322	3366.00000
13.20993	3465.00000
13.22664	3668.00000
13.24335	3719.00000
13.26006	3940.00000
13.27677	4264.00000
13.29348	4790.00000
13.31020	5035.00000
13.32691	5782.00000
13.34362	6141.00000
13.36033	6714.00000
13.37704	6700.00000
13.39375	6179.00000
13.41046	5601.00000
13.42717	4951.00000
13.44388	4672.00000
13.46059	4362.00000
13.47731	4013.00000
13.49402	3680.00000
13.51073	3428.00000
13.52744	3264.00000
13.54415	3319.00000
13.56086	3426.00000
13.57757	3803.00000
13.59428	4219.00000
13.61099	4633.00000
13.62770	4488.00000
13.64442	3878.00000
13.66113	3424.00000
13.67784	3350.00000
13.69455	3353.00000
13.71126	3271.00000
13.72797	2863.00000
13.74468	2595.00000
13.76139	2369.00000
13.77810	2234.00000
13.79481	2299.00000
13.81153	2300.00000
13.82824	2430.00000
13.84495	2590.00000
13.86166	2903.00000
13.87837	3135.00000
13.89508	3253.00000
13.91179	3048.00000
13.92850	3064.00000
13.94521	2965.00000
13.96192	2816.00000
13.97864	2792.00000
13.99535	2687.00000
14.01206	2541.00000
14.02877	2527.00000
14.04548	2420.00000
14.06219	2467.00000
14.07890	2560.00000
14.09561	2875.00000
14.11232	3045.00000
14.12903	3310.00000
14.14575	3442.00000
14.16246	3221.00000
14.17917	3097.00000
14.19588	3007.00000
14.21259	2755.00000
14.22930	2740.00000
14.24601	2637.00000
14.26272	2453.00000
14.27943	2286.00000
14.29614	2159.00000
14.31286	2058.00000
14.32957	2018.00000
14.34628	2072.00000
14.36299	1977.00000
14.37970	2069.00000
14.39641	2106.00000
14.41312	2150.00000
14.42983	2046.00000
14.44654	2182.00000
14.46325	2189.00000
14.47997	2198.00000
14.49668	2288.00000
14.51339	2147.00000
14.53010	2229.00000
14.54681	2207.00000
14.56352	2178.00000
14.58023	2195.00000
14.59694	2099.00000
14.61365	2113.00000
14.63036	2074.00000
14.64708	2191.00000
14.66379	2314.00000
14.68050	2191.00000
14.69721	2191.00000
14.71392	2342.00000
14.73063	2356.00000
14.74734	2510.00000
14.76405	2795.00000
14.78076	3248.00000
14.79747	3645.00000
14.81419	3990.00000
14.83090	4055.00000
14.84761	4055.00000
14.86432	4102.00000
14.88103	4194.00000
14.89774	4319.00000
14.91445	4338.00000
14.93116	3975.00000
14.94787	3886.00000
14.96458	3577.00000
14.98130	3391.00000
14.99801	3192.00000
15.01472	3058.00000
15.03143	2931.00000
15.04814	2630.00000
15.06485	2705.00000
15.08156	2606.00000
15.09827	2910.00000
15.11498	3181.00000
15.13169	3679.00000
15.14841	4736.00000
15.16512	6336.00000
15.18183	8012.00000
15.19854	8722.00000
15.21525	8067.00000
15.23196	6543.00000
15.24867	5508.00000
15.26538	5214.00000
15.28209	5441.00000
15.29880	5308.00000
15.31552	4950.00000
15.33223	4058.00000
15.34894	3301.00000
15.36565	2764.00000
15.38236	2655.00000
15.39907	2704.00000
15.41578	2715.00000
15.43249	2788.00000
15.44920	3021.00000
15.46591	3395.00000
15.48263	3807.00000
15.49934	3973.00000
15.51605	3998.00000
15.53276	3877.00000
15.54947	3718.00000
15.56618	3527.00000
15.58289	3323.00000
15.59960	3088.00000
15.61631	2884.00000
15.63302	2670.00000
15.64974	2605.00000
15.66645	2411.00000
15.68316	2231.00000
15.69987	2081.00000
15.71658	2072.00000
15.73329	1915.00000
15.75000	1972.00000
15.76671	2044.00000
15.78342	2079.00000
15.80013	2202.00000
15.81685	2366.00000
15.83356	2513.00000
15.85027	2713.00000
15.86698	2684.00000
15.88369	2751.00000
15.90040	2737.00000
15.91711	2793.00000
15.93382	2896.00000
15.95053	2869.00000
15.96724	2854.00000
15.98396	2833.00000
16.00067	2584.00000
16.01738	2308.00000
16.03409	2435.00000
16.05080	2262.00000
16.06751	2259.00000
16.08422	2162.00000
16.10093	2078.00000
16.11764	1958.00000
16.13435	1912.00000
16.15107	1873.00000
16.16778	1791.00000
16.18449	1823.00000
16.20120	1927.00000
16.21791	1776.00000
16.23462	1781.00000
16.25133	1799.00000
16.26804	1777.00000
16.28475	1796.00000
16.30146	1831.00000
16.31818	1728.00000
16.33489	1857.00000
16.35160	1861.00000
16.36831	2064.00000
16.38502	2056.00000
16.40173	2003.00000
16.41844	2059.00000
16.43515	2068.00000
16.45186	2034.00000
16.46857	1995.00000
16.48529	2041.00000
16.50200	2123.00000
16.51871	2065.00000
16.53542	2056.00000
16.55213	2121.00000
16.56884	2191.00000
16.58555	2229.00000
16.60226	2372.00000
16.61897	2460.00000
16.63568	2801.00000
16.65240	2759.00000
16.66911	2801.00000
16.68582	2773.00000
16.70253	2461.00000
16.71924	2423.00000
16.73595	2470.00000
16.75266	2262.00000
16.76937	2346.00000
16.78608	2299.00000
16.80279	2323.00000
16.81951	2378.00000
16.83622	2552.00000
16.85293	2613.00000
16.86964	3149.00000
16.88635	3588.00000
16.90306	4186.00000
16.91977	4265.00000
16.93648	4236.00000
16.95319	4146.00000
16.96990	3981.00000
16.98662	3791.00000
17.00333	3713.00000
17.02004	3642.00000
17.03675	3614.00000
17.05346	3431.00000
17.07017	3290.00000
17.08688	3168.00000
17.10359	2922.00000
17.12030	2817.00000
17.13701	2707.00000
17.15373	2665.00000
17.17044	2638.00000
17.18715	2645.00000
17.20386	2563.00000
17.22057	2388.00000
17.23728	2433.00000
17.25399	2292.00000
17.27070	2285.00000
17.28741	2247.00000
17.30412	2115.00000
17.32084	2015.00000
17.33755	2117.00000
17.35426	1954.00000
17.37097	1963.00000
17.38768	1978.00000
17.40439	1850.00000
17.42110	1931.00000
17.43781	1862.00000
17.45452	1822.00000
17.47123	1925.00000
17.48795	1856.00000
17.50466	1920.00000
17.52137	2061.00000
17.53808	2104.00000
17.55479	2330.00000
17.57150	2396.00000
17.58821	2466.00000
17.60492	2375.00000
17.62163	2387.00000
17.63834	2384.00000
17.65506	2331.00000
17.67177	2378.00000
17.68848	2462.00000
17.70519	2669.00000
17.72190	2648.00000
17.73861	2729.00000
17.75532	2472.00000
17.77203	2405.00000
17.78874	2237.00000
17.80545	2355.00000
17.82217	2414.00000
17.83888	2454.00000
17.85559	2532.00000
17.87230	2508.00000
17.88901	2344.00000
17.90572	2240.00000
17.92243	2204.00000
17.93914	2117.00000
17.95585	2140.00000
17.97256	2277.00000
17.98928	2357.00000
18.00599	2343.00000
18.02270	2181.00000
18.03941	2235.00000
18.05612	2231.00000
18.07283	2034.00000
18.08954	2045.00000
18.10625	2009.00000
18.12296	1993.00000
18.13967	1847.00000
18.15639	1856.00000
18.17310	1775.00000
18.18981	1815.00000
18.20652	1794.00000
18.22323	1738.00000
18.23994	1800.00000
18.25665	1819.00000
18.27336	1691.00000
18.29007	1703.00000
18.30678	1668.00000
18.32350	1595.00000
18.34021	1628.00000
18.35692	1597.00000
18.37363	1634.00000
18.39034	1592.00000
18.40705	1571.00000
18.42376	1613.00000
18.44047	1595.00000
18.45718	1625.00000
18.47389	1548.00000
18.49061	1514.00000
18.50732	1595.00000
18.52403	1535.00000
18.54074	1576.00000
18.55745	1625.00000
18.57416	1724.00000
18.59087	1687.00000
18.60758	1707.00000
18.62429	1838.00000
18.64100	1715.00000
18.65772	1658.00000
18.67443	1669.00000
18.69114	1671.00000
18.70785	1737.00000
18.72456	1820.00000
18.74127	1870.00000
18.75798	1825.00000
18.77469	1854.00000
18.79140	1785.00000
18.80811	1608.00000
18.82483	1712.00000
18.84154	1642.00000
18.85825	1631.00000
18.87496	1732.00000
18.89167	1820.00000
18.90838	1748.00000
18.92509	1725.00000
18.94180	1719.00000
18.95851	1690.00000
18.97522	1708.00000
18.99194	1642.00000
19.00865	1621.00000
19.02536	1628.00000
19.04207	1535.00000
19.05878	1569.00000
19.07549	1590.00000
19.09220	1515.00000
19.10891	1534.00000
19.12562	1563.00000
19.14233	1456.00000
19.15905	1408.00000
19.17576	1514.00000
19.19247	1492.00000
19.20918	1516.00000
19.22589	1583.00000
19.24260	1654.00000
19.25931	1645.00000
19.27602	1729.00000
19.29273	1771.00000
19.30944	1842.00000
19.32616	1959.00000
19.34287	2155.00000
19.35958	2176.00000
19.37629	2075.00000
19.39300	2069.00000
19.40971	2063.00000
19.42642	1934.00000
19.44313	1918.00000
19.45984	1890.00000
19.47655	1992.00000
19.49327	1952.00000
19.50998	1972.00000
19.52669	1984.00000
19.54340	2067.00000
19.56011	2056.00000
19.57682	2080.00000
19.59353	2121.00000
19.61024	2080.00000
19.62695	2142.00000
19.64366	2177.00000
19.66038	2227.00000
19.67709	2204.00000
19.69380	2051.00000
19.71051	2020.00000
19.72722	2095.00000
19.74393	2136.00000
19.76064	2096.00000
19.77735	2091.00000
19.79406	1911.00000
19.81077	1842.00000
19.82749	1794.00000
19.84420	1870.00000
19.86091	1918.00000
19.87762	1928.00000
19.89433	2073.00000
19.91104	2107.00000
19.92775	2104.00000
19.94446	2001.00000
19.96117	1991.00000
19.97788	1879.00000
19.99460	1750.00000
20.01131	1796.00000
20.02802	1764.00000
20.04473	1857.00000
20.06144	1819.00000
20.07815	1830.00000
20.09486	1847.00000
20.11157	1981.00000
20.12828	2169.00000
20.14499	2152.00000
20.16171	2335.00000
20.17842	2368.00000
20.19513	2306.00000
20.21184	2311.00000
20.22855	2308.00000
20.24526	2226.00000
20.26197	2234.00000
20.27868	2174.00000
20.29539	2159.00000
20.31210	2072.00000
20.32882	2119.00000
20.34553	2046.00000
20.36224	2001.00000
20.37895	1911.00000
20.39566	1890.00000
20.41237	1684.00000
20.42908	1702.00000
20.44579	1646.00000
20.46250	1581.00000
20.47921	1610.00000
20.49593	1548.00000
20.51264	1567.00000
20.52935	1562.00000
20.54606	1546.00000
20.56277	1519.00000
20.57948	1507.00000
20.59619	1650.00000
20.61290	1565.00000
20.62961	1749.00000
20.64632	1667.00000
20.66304	1703.00000
20.67975	1705.00000
20.69646	1530.00000
20.71317	1624.00000
20.72988	1663.00000
20.74659	1588.00000
20.76330	1621.00000
20.78001	1696.00000
20.79672	1664.00000
20.81343	1862.00000
20.83015	1772.00000
20.84686	1785.00000
20.86357	1896.00000
20.88028	2033.00000
20.89699	2043.00000
20.91370	2035.00000
20.93041	2023.00000
20.94712	1925.00000
20.96383	1851.00000
20.98054	1745.00000
20.99726	1693.00000
21.01397	1686.00000
21.03068	1710.00000
21.04739	1658.00000
21.06410	1613.00000
21.08081	1619.00000
21.09752	1531.00000
21.11423	1445.00000
21.13094	1545.00000
21.14765	1429.00000
21.16437	1507.00000
21.18108	1618.00000
21.19779	1678.00000
21.21450	1745.00000
21.23121	1708.00000
21.24792	1839.00000
21.26463	1932.00000
21.28134	1875.00000
21.29805	1751.00000
21.31476	1791.00000
21.33148	1710.00000
21.34819	1641.00000
21.36490	1688.00000
21.38161	1696.00000
21.39832	1654.00000
21.41503	1602.00000
21.43174	1567.00000
21.44845	1522.00000
21.46516	1454.00000
21.48187	1418.00000
21.49859	1397.00000
21.51530	1321.00000
21.53201	1380.00000
21.54872	1371.00000
21.56543	1306.00000
21.58214	1343.00000
21.59885	1372.00000
21.61556	1441.00000
21.63227	1494.00000
21.64898	1480.00000
21.66570	1440.00000
21.68241	1424.00000
21.69912	1408.00000
21.71583	1441.00000
21.73254	1479.00000
21.74925	1558.00000
21.76596	1502.00000
21.78267	1524.00000
21.79938	1597.00000
21.81609	1591.00000
21.83281	1574.00000
21.84952	1554.00000
21.86623	1510.00000
21.88294	1480.00000
21.89965	1521.00000
21.91636	1591.00000
21.93307	1560.00000
21.94978	1696.00000
21.96649	1748.00000
21.98320	1713.00000
21.99992	1659.00000
22.01663	1673.00000
22.03334	1607.00000
22.05005	1578.00000
22.06676	1711.00000
22.08347	1654.00000
22.10018	1671.00000
22.11689	1681.00000
22.13360	1675.00000
22.15031	1662.00000
22.16703	1672.00000
22.18374	1618.00000
22.20045	1480.00000
22.21716	1531.00000
22.23387	1478.00000
22.25058	1555.00000
22.26729	1441.00000
22.28400	1495.00000
22.30071	1365.00000
22.31742	1447.00000
22.33414	1408.00000
22.35085	1515.00000
22.36756	1489.00000
22.38427	1576.00000
22.40098	1580.00000
22.41769	1586.00000
22.43440	1476.00000
22.45111	1526.00000
22.46782	1517.00000
22.48453	1539.00000
22.50125	1457.00000
22.51796	1534.00000
22.53467	1429.00000
22.55138	1560.00000
22.56809	1524.00000
22.58480	1452.00000
22.60151	1415.00000
22.61822	1370.00000
22.63493	1411.00000
22.65164	1346.00000
22.66836	1340.00000
22.68507	1338.00000
22.70178	1430.00000
22.71849	1549.00000
22.73520	1646.00000
22.75191	1660.00000
22.76862	1855.00000
22.78533	1889.00000
22.80204	1953.00000
22.81875	1862.00000
22.83547	1891.00000
22.85218	1758.00000
22.86889	1806.00000
22.88560	1780.00000
22.90231	1802.00000
22.91902	1838.00000
22.93573	1861.00000
22.95244	1833.00000
22.96915	1812.00000
22.98586	1709.00000
23.00258	1642.00000
23.01929	1655.00000
23.03600	1627.00000
23.05271	1474.00000
23.06942	1424.00000
23.08613	1436.00000
23.10284	1419.00000
23.11955	1405.00000
23.13626	1388.00000
23.15297	1311.00000
23.16969	1325.00000
23.18640	1376.00000
23.20311	1315.00000
23.21982	1343.00000
23.23653	1328.00000
23.25324	1327.00000
23.26995	1317.00000
23.28666	1325.00000
23.30337	1319.00000
23.32008	1349.00000
23.33680	1413.00000
23.35351	1433.00000
23.37022	1516.00000
23.38693	1485.00000
23.40364	1570.00000
23.42035	1584.00000
23.43706	1582.00000
23.45377	1599.00000
23.47048	1546.00000
23.48719	1500.00000
23.50391	1383.00000
23.52062	1365.00000
23.53733	1301.00000
23.55404	1363.00000
23.57075	1372.00000
23.58746	1366.00000
23.60417	1329.00000
23.62088	1444.00000
23.63759	1262.00000
23.65430	1293.00000
23.67102	1220.00000
23.68773	1226.00000
23.70444	1275.00000
23.72115	1222.00000
23.73786	1167.00000
23.75457	1230.00000
23.77128	1146.00000
23.78799	1208.00000
23.80470	1248.00000
23.82141	1235.00000
23.83813	1248.00000
23.85484	1208.00000
23.87155	1247.00000
23.88826	1207.00000
23.90497	1172.00000
23.92168	1220.00000
23.93839	1224.00000
23.95510	1254.00000
23.97181	1161.00000
23.98852	1219.00000
24.00524	1232.00000
24.02195	1224.00000
24.03866	1293.00000
24.05537	1330.00000
24.07208	1231.00000
24.08879	1293.00000
24.10550	1264.00000
24.12221	1279.00000
24.13892	1312.00000
24.15563	1285.00000
24.17235	1400.00000
24.18906	1357.00000
24.20577	1311.00000
24.22248	1335.00000
24.23919	1361.00000
24.25590	1336.00000
24.27261	1322.00000
24.28932	1349.00000
24.30603	1393.00000
24.32274	1308.00000
24.33946	1355.00000
24.35617	1330.00000
24.37288	1337.00000
24.38959	1306.00000
24.40630	1412.00000
24.42301	1323.00000
24.43972	1371.00000
24.45643	1323.00000
24.47314	1337.00000
24.48985	1332.00000
24.50657	1255.00000
24.52328	1299.00000
24.53999	1291.00000
24.55670	1258.00000
24.57341	1300.00000
24.59012	1251.00000
24.60683	1247.00000
24.62354	1260.00000
24.64025	1303.00000
24.65696	1359.00000
24.67368	1334.00000
24.69039	1307.00000
24.70710	1329.00000
24.72381	1378.00000
24.74052	1259.00000
24.75723	1302.00000
24.77394	1312.00000
24.79065	1305.00000
24.80736	1317.00000
24.82407	1384.00000
24.84079	1432.00000
24.85750	1589.00000
24.87421	1457.00000
24.89092	1433.00000
24.90763	1427.00000
24.92434	1464.00000
24.94105	1399.00000
24.95776	1431.00000
24.97447	1456.00000
24.99118	1506.00000
25.00790	1468.00000
25.02461	1594.00000
25.04132	1486.00000
25.05803	1472.00000
25.07474	1438.00000
25.09145	1456.00000
25.10816	1502.00000
25.12487	1434.00000
25.14158	1621.00000
25.15829	1548.00000
25.17501	1506.00000
25.19172	1527.00000
25.20843	1500.00000
25.22514	1487.00000
25.24185	1555.00000
25.25856	1443.00000
25.27527	1436.00000
25.29198	1497.00000
25.30869	1405.00000
25.32540	1514.00000
25.34212	1453.00000
25.35883	1432.00000
25.37554	1473.00000
25.39225	1457.00000
25.40896	1538.00000
25.42567	1503.00000
25.44238	1541.00000
25.45909	1466.00000
25.47580	1420.00000
25.49251	1337.00000
25.50923	1353.00000
25.52594	1360.00000
25.54265	1395.00000
25.55936	1433.00000
25.57607	1388.00000
25.59278	1453.00000
25.60949	1486.00000
25.62620	1444.00000
25.64291	1404.00000
25.65962	1414.00000
25.67634	1511.00000
25.69305	1531.00000
25.70976	1448.00000
25.72647	1522.00000
25.74318	1555.00000
25.75989	1411.00000
25.77660	1486.00000
25.79331	1462.00000
25.81002	1412.00000
25.82673	1400.00000
25.84345	1316.00000
25.86016	1345.00000
25.87687	1373.00000
25.89358	1339.00000
25.91029	1341.00000
25.92700	1309.00000
25.94371	1243.00000
25.96042	1303.00000
25.97713	1268.00000
25.99384	1221.00000
26.01056	1268.00000
26.02727	1258.00000
26.04398	1263.00000
26.06069	1256.00000
26.07740	1284.00000
26.09411	1344.00000
26.11082	1345.00000
26.12753	1448.00000
26.14424	1478.00000
26.16095	1515.00000
26.17767	1465.00000
26.19438	1571.00000
26.21109	1493.00000
26.22780	1482.00000
26.24451	1479.00000
26.26122	1437.00000
26.27793	1460.00000
26.29464	1411.00000
26.31135	1450.00000
26.32806	1403.00000
26.34478	1369.00000
26.36149	1352.00000
26.37820	1385.00000
26.39491	1347.00000
26.41162	1381.00000
26.42833	1350.00000
26.44504	1357.00000
26.46175	1239.00000
26.47846	1270.00000
26.49517	1274.00000
26.51189	1336.00000
26.52860	1301.00000
26.54531	1339.00000
26.56202	1276.00000
26.57873	1332.00000
26.59544	1331.00000
26.61215	1288.00000
26.62886	1268.00000
26.64557	1320.00000
26.66228	1284.00000
26.67900	1228.00000
26.69571	1325.00000
26.71242	1370.00000
26.72913	1350.00000
26.74584	1375.00000
26.76255	1390.00000
26.77926	1387.00000
26.79597	1298.00000
26.81268	1280.00000
26.82939	1289.00000
26.84611	1276.00000
26.86282	1291.00000
26.87953	1350.00000
26.89624	1325.00000
26.91295	1330.00000
26.92966	1321.00000
26.94637	1334.00000
26.96308	1278.00000
26.97979	1287.00000
26.99650	1330.00000
27.01322	1322.00000
27.02993	1271.00000
27.04664	1271.00000
27.06335	1265.00000
27.08006	1287.00000
27.09677	1211.00000
27.11348	1312.00000
27.13019	1238.00000
27.14690	1306.00000
27.16361	1214.00000
27.18033	1262.00000
27.19704	1240.00000
27.21375	1206.00000
27.23046	1262.00000
27.24717	1205.00000
27.26388	1205.00000
27.28059	1202.00000
27.29730	1253.00000
27.31401	1235.00000
27.33072	1236.00000
27.34744	1263.00000
27.36415	1295.00000
27.38086	1281.00000
27.39757	1266.00000
27.41428	1239.00000
27.43099	1278.00000
27.44770	1235.00000
27.46441	1257.00000
27.48112	1230.00000
27.49783	1202.00000
27.51455	1276.00000
27.53126	1265.00000
27.54797	1287.00000
27.56468	1217.00000
27.58139	1303.00000
27.59810	1321.00000
27.61481	1340.00000
27.63152	1315.00000
27.64823	1346.00000
27.66494	1327.00000
27.68166	1377.00000
27.69837	1345.00000
27.71508	1334.00000
27.73179	1344.00000
27.74850	1328.00000
27.76521	1364.00000
27.78192	1378.00000
27.79863	1403.00000
27.81534	1315.00000
27.83205	1305.00000
27.84877	1323.00000
27.86548	1256.00000
27.88219	1389.00000
27.89890	1252.00000
27.91561	1322.00000
27.93232	1295.00000
27.94903	1295.00000
27.96574	1303.00000
27.98245	1338.00000
27.99916	1287.00000
28.01588	1256.00000
28.03259	1287.00000
28.04930	1269.00000
28.06601	1227.00000
28.08272	1269.00000
28.09943	1259.00000
28.11614	1254.00000
28.13285	1268.00000
28.14956	1235.00000
28.16627	1249.00000
28.18299	1278.00000
28.19970	1272.00000
28.21641	1253.00000
28.23312	1264.00000
28.24983	1218.00000
28.26654	1268.00000
28.28325	1264.00000
28.29996	1264.00000
28.31667	1230.00000
28.33338	1246.00000
28.35010	1266.00000
28.36681	1173.00000
28.38352	1197.00000
28.40023	1224.00000
28.41694	1274.00000
28.43365	1236.00000
28.45036	1241.00000
28.46707	1295.00000
28.48378	1230.00000
28.50049	1231.00000
28.51721	1278.00000
28.53392	1227.00000
28.55063	1276.00000
28.56734	1288.00000
28.58405	1222.00000
28.60076	1240.00000
28.61747	1231.00000
28.63418	1201.00000
28.65089	1219.00000
28.66760	1264.00000
28.68432	1281.00000
28.70103	1236.00000
28.71774	1249.00000
28.73445	1327.00000
28.75116	1237.00000
28.76787	1284.00000
28.78458	1278.00000
28.80129	1273.00000
28.81800	1324.00000
28.83471	1232.00000
28.85143	1288.00000
28.86814	1283.00000
28.88485	1280.00000
28.90156	1195.00000
28.91827	1274.00000
28.93498	1228.00000
28.95169	1288.00000
28.96840	1231.00000
28.98511	1224.00000
29.00182	1199.00000
29.01854	1237.00000
29.03525	1257.00000
29.05196	1247.00000
29.06867	1199.00000
29.08538	1185.00000
29.10209	1153.00000
29.11880	1157.00000
29.13551	1210.00000
29.15222	1111.00000
29.16893	1173.00000
29.18565	1185.00000
29.20236	1198.00000
29.21907	1227.00000
29.23578	1212.00000
29.25249	1311.00000
29.26920	1212.00000
29.28591	1325.00000
29.30262	1328.00000
29.31933	1302.00000
29.33604	1334.00000
29.35276	1300.00000
29.36947	1248.00000
29.38618	1199.00000
29.40289	1193.00000
29.41960	1186.00000
29.43631	1230.00000
29.45302	1219.00000
29.46973	1243.00000
29.48644	1236.00000
29.50315	1329.00000
29.51987	1259.00000
29.53658	1275.00000
29.55329	1282.00000
29.57000	1236.00000
29.58671	1165.00000
29.60342	1250.00000
29.62013	1250.00000
29.63684	1198.00000
29.65355	1158.00000
29.67026	1204.00000
29.68698	1172.00000
29.70369	1183.00000
29.72040	1163.00000
29.73711	1211.00000
29.75382	1263.00000
29.77053	1246.00000
29.78724	1171.00000
29.80395	1324.00000
29.82066	1181.00000
29.83737	1303.00000
29.85409	1221.00000
29.87080	1233.00000
29.88751	1187.00000
29.90422	1173.00000
29.92093	1249.00000
29.93764	1189.00000
29.95435	1239.00000
29.97106	1224.00000
29.98777	1232.00000
30.00448	1222.00000
30.02120	1177.00000
30.03791	1211.00000
30.05462	1192.00000
30.07133	1194.00000
30.08804	1269.00000
30.10475	1170.00000
30.12146	1186.00000
30.13817	1171.00000
30.15488	1281.00000
30.17159	1241.00000
30.18831	1172.00000
30.20502	1225.00000
30.22173	1199.00000
30.23844	1276.00000
30.25515	1255.00000
30.27186	1286.00000
30.28857	1376.00000
30.30528	1285.00000
30.32199	1332.00000
30.33870	1325.00000
30.35542	1288.00000
30.37213	1257.00000
30.38884	1170.00000
30.40555	1239.00000
30.42226	1136.00000
30.43897	1150.00000
30.45568	1234.00000
30.47239	1209.00000
30.48910	1264.00000
30.50581	1214.00000
30.52253	1215.00000
30.53924	1217.00000
30.55595	1223.00000
30.57266	1220.00000
30.58937	1202.00000
30.60608	1306.00000
30.62279	1219.00000
30.63950	1282.00000
30.65621	1302.00000
30.67292	1226.00000
30.68964	1262.00000
30.70635	1244.00000
30.72306	1246.00000
30.73977	1200.00000
30.75648	1219.00000
30.77319	1139.00000
30.78990	1156.00000
30.80661	1124.00000
30.82332	1104.00000
30.84003	1154.00000
30.85675	1167.00000
30.87346	1218.00000
30.89017	1184.00000
30.90688	1106.00000
30.92359	1183.00000
30.94030	1170.00000
30.95701	1150.00000
30.97372	1121.00000
30.99043	1139.00000
31.00714	1144.00000
31.02386	1066.00000
31.04057	1128.00000
31.05728	1081.00000
31.07399	1126.00000
31.09070	1126.00000
31.10741	1072.00000
31.12412	1013.00000
31.14083	1100.00000
31.15754	1078.00000
31.17425	1049.00000
31.19097	1101.00000
31.20768	1100.00000
31.22439	1070.00000
31.24110	1092.00000
31.25781	1027.00000
31.27452	1072.00000
31.29123	1114.00000
31.30794	1081.00000
31.32465	1113.00000
31.34136	1127.00000
31.35808	1176.00000
31.37479	1102.00000
31.39150	1103.00000
31.40821	1109.00000
31.42492	1059.00000
31.44163	1121.00000
31.45834	1090.00000
31.47505	1088.00000
31.49176	1103.00000
31.50847	1046.00000
31.52519	1172.00000
31.54190	1114.00000
31.55861	1085.00000
31.57532	1115.00000
31.59203	1237.00000
31.60874	1121.00000
31.62545	1101.00000
31.64216	1189.00000
31.65887	1123.00000
31.67558	1111.00000
31.69230	1141.00000
31.70901	1105.00000
31.72572	1112.00000
31.74243	1135.00000
31.75914	1156.00000
31.77585	1191.00000
31.79256	1209.00000
31.80927	1130.00000
31.82598	1102.00000
31.84269	1123.00000
31.85941	1150.00000
31.87612	1120.00000
31.89283	1142.00000
31.90954	1161.00000
31.92625	1167.00000
31.94296	1134.00000
31.95967	1205.00000
31.97638	1139.00000
31.99309	1112.00000
32.00980	1179.00000
32.02652	1179.00000
32.04323	1135.00000
32.05994	1155.00000
32.07665	1130.00000
32.09336	1203.00000
32.11007	1166.00000
32.12678	1079.00000
32.14349	1200.00000
32.16020	1080.00000
32.17691	1109.00000
32.19363	1202.00000
32.21034	1154.00000
32.22705	1137.00000
32.24376	1177.00000
32.26047	1215.00000
32.27718	1160.00000
32.29389	1153.00000
32.31060	1141.00000
32.32731	1149.00000
32.34402	1205.00000
32.36074	1086.00000
32.37745	1118.00000
32.39416	1062.00000
32.41087	1064.00000
32.42758	1177.00000
32.44429	1144.00000
32.46100	1138.00000
32.47771	1210.00000
32.49442	1109.00000
32.51113	1114.00000
32.52785	1100.00000
32.54456	1128.00000
32.56127	1060.00000
32.57798	1110.00000
32.59469	1157.00000
32.61140	1128.00000
32.62811	1042.00000
32.64482	1072.00000
32.66153	1080.00000
32.67824	1082.00000
32.69496	1107.00000
32.71167	1029.00000
32.72838	1122.00000
32.74509	1073.00000
32.76180	1053.00000
32.77851	1075.00000
32.79522	1140.00000
32.81193	1123.00000
32.82864	1091.00000
32.84535	1107.00000
32.86207	1114.00000
32.87878	1109.00000
32.89549	1146.00000
32.91220	1047.00000
32.92891	1110.00000
32.94562	1052.00000
32.96233	1183.00000
32.97904	1104.00000
32.99575	1088.00000
33.01246	1139.00000
33.02918	1145.00000
33.04589	1107.00000
33.06260	1118.00000
33.07931	1123.00000
33.09602	1131.00000
33.11273	1182.00000
33.12944	1136.00000
33.14615	1174.00000
33.16286	1187.00000
33.17957	1175.00000
33.19629	1172.00000
33.21300	1084.00000
33.22971	1141.00000
33.24642	1121.00000
33.26313	1086.00000
33.27984	1149.00000
33.29655	1133.00000
33.31326	1091.00000
33.32997	1092.00000
33.34668	1094.00000
33.36340	1101.00000
33.38011	1088.00000
33.39682	1074.00000
33.41353	1153.00000
33.43024	1125.00000
33.44695	1096.00000
33.46366	1175.00000
33.48037	1202.00000
33.49708	1193.00000
33.51379	1138.00000
33.53051	1158.00000
33.54722	1147.00000
33.56393	1094.00000
33.58064	1188.00000
33.59735	1050.00000
33.61406	1062.00000
33.63077	1089.00000
33.64748	1137.00000
33.66419	1118.00000
33.68090	1101.00000
33.69762	1109.00000
33.71433	1034.00000
33.73104	1102.00000
33.74775	1096.00000
33.76446	1040.00000
33.78117	1087.00000
33.79788	1082.00000
33.81459	1040.00000
33.83130	1013.00000
33.84801	1080.00000
33.86473	1037.00000
33.88144	1063.00000
33.89815	1023.00000
33.91486	1076.00000
33.93157	1107.00000
33.94828	1016.00000
33.96499	1078.00000
33.98170	1087.00000
33.99841	1119.00000
34.01512	1058.00000
34.03184	1039.00000
34.04855	1080.00000
34.06526	1133.00000
34.08197	1112.00000
34.09868	1017.00000
34.11539	1131.00000
34.13210	1085.00000
34.14881	1085.00000
34.16552	1146.00000
34.18223	1066.00000
34.19895	1076.00000
34.21566	1109.00000
34.23237	1093.00000
34.24908	1044.00000
34.26579	1062.00000
34.28250	1081.00000
34.29921	1127.00000
34.31592	1075.00000
34.33263	1118.00000
34.34934	1055.00000
34.36606	1095.00000
34.38277	1052.00000
34.39948	1137.00000
34.41619	1080.00000
34.43290	1082.00000
34.44961	1123.00000
34.46632	1046.00000
34.48303	1081.00000
34.49974	1070.00000
34.51645	1101.00000
34.53317	1040.00000
34.54988	1107.00000
34.56659	1029.00000
34.58330	1103.00000
34.60001	982.00000
34.61672	1075.00000
34.63343	1068.00000
34.65014	1075.00000
34.66685	1025.00000
34.68356	1049.00000
34.70028	980.00000
34.71699	997.00000
34.73370	1014.00000
34.75041	985.00000
34.76712	985.00000
34.78383	1004.00000
34.80054	974.00000
34.81725	983.00000
34.83396	976.00000
34.85067	1006.00000
34.86739	980.00000
34.88410	1034.00000
34.90081	1069.00000
34.91752	997.00000
34.93423	960.00000
34.95094	1039.00000
34.96765	1038.00000
34.98436	1073.00000
35.00107	1089.00000
35.01778	1041.00000
35.03450	1005.00000
35.05121	989.00000
35.06792	1043.00000
35.08463	1093.00000
35.10134	1040.00000
35.11805	1094.00000
35.13476	1038.00000
35.15147	1069.00000
35.16818	1043.00000
35.18489	1062.00000
35.20161	1056.00000
35.21832	1110.00000
35.23503	1080.00000
35.25174	1089.00000
35.26845	1122.00000
35.28516	1086.00000
35.30187	1053.00000
35.31858	1071.00000
35.33529	1137.00000
35.35200	1040.00000
35.36872	1036.00000
35.38543	1061.00000
35.40214	1047.00000
35.41885	1094.00000
35.43556	1043.00000
35.45227	1016.00000
35.46898	1045.00000
35.48569	1032.00000
35.50240	1027.00000
35.51911	1014.00000
35.53583	1064.00000
35.55254	1055.00000
35.56925	1015.00000
35.58596	1046.00000
35.60267	1033.00000
35.61938	1024.00000
35.63609	1052.00000
35.65280	1042.00000
35.66951	1029.00000
35.68622	1046.00000
35.70294	1004.00000
35.71965	984.00000
35.73636	1061.00000
35.75307	1050.00000
35.76978	978.00000
35.78649	967.00000
35.80320	1076.00000
35.81991	1015.00000
35.83662	993.00000
35.85333	957.00000
35.87005	964.00000
35.88676	1032.00000
35.90347	1009.00000
35.92018	1052.00000
35.93689	1072.00000
35.95360	1054.00000
35.97031	1016.00000
35.98702	1013.00000
36.00373	1024.00000
36.02044	963.00000
36.03716	995.00000
36.05387	966.00000
36.07058	968.00000
36.08729	1009.00000
36.10400	929.00000
36.12071	959.00000
36.13742	927.00000
36.15413	943.00000
36.17084	1010.00000
36.18755	952.00000
36.20427	997.00000
36.22098	931.00000
36.23769	932.00000
36.25440	918.00000
36.27111	934.00000
36.28782	933.00000
36.30453	936.00000
36.32124	930.00000
36.33795	973.00000
36.35466	958.00000
36.37138	1011.00000
36.38809	966.00000
36.40480	1026.00000
36.42151	973.00000
36.43822	941.00000
36.45493	941.00000
36.47164	937.00000
36.48835	1005.00000
36.50506	951.00000
36.52177	1021.00000
36.53849	980.00000
36.55520	1027.00000
36.57191	1063.00000
36.58862	972.00000
36.60533	1052.00000
36.62204	1043.00000
36.63875	1052.00000
36.65546	1021.00000
36.67217	1000.00000
36.68888	990.00000
36.70560	1057.00000
36.72231	1045.00000
36.73902	1016.00000
36.75573	1018.00000
36.77244	1039.00000
36.78915	967.00000
36.80586	1095.00000
36.82257	1006.00000
36.83928	1038.00000
36.85599	1007.00000
36.87271	952.00000
36.88942	945.00000
36.90613	949.00000
36.92284	942.00000
36.93955	1008.00000
36.95626	934.00000
36.97297	1034.00000
36.98968	936.00000
37.00639	933.00000
37.02310	952.00000
37.03982	993.00000
37.05653	950.00000
37.07324	920.00000
37.08995	956.00000
37.10666	990.00000
37.12337	1001.00000
37.14008	991.00000
37.15679	979.00000
37.17350	991.00000
37.19021	934.00000
37.20693	975.00000
37.22364	916.00000
37.24035	930.00000
37.25706	946.00000
37.27377	974.00000
37.29048	941.00000
37.30719	1003.00000
37.32390	932.00000
37.34061	999.00000
37.35732	988.00000
37.37404	992.00000
37.39075	951.00000
37.40746	951.00000
37.42417	960.00000
37.44088	942.00000
37.45759	960.00000
37.47430	956.00000
37.49101	1013.00000
37.50772	1025.00000
37.52443	968.00000
37.54115	973.00000
37.55786	964.00000
37.57457	957.00000
37.59128	1043.00000
37.60799	977.00000
37.62470	992.00000
37.64141	985.00000
37.65812	982.00000
37.67483	1074.00000
37.69154	1000.00000
37.70826	973.00000
37.72497	988.00000
37.74168	994.00000
37.75839	978.00000
37.77510	1021.00000
37.79181	998.00000
37.80852	1030.00000
37.82523	991.00000
37.84194	1012.00000
37.85865	984.00000
37.87537	928.00000
37.89208	976.00000
37.90879	929.00000
37.92550	996.00000
37.94221	944.00000
37.95892	867.00000
37.97563	949.00000
37.99234	862.00000
38.00905	897.00000
38.02576	943.00000
38.04248	916.00000
38.05919	939.00000
38.07590	949.00000
38.09261	936.00000
38.10932	919.00000
38.12603	928.00000
38.14274	939.00000
38.15945	914.00000
38.17616	978.00000
38.19287	952.00000
38.20959	941.00000
38.22630	981.00000
38.24301	974.00000
38.25972	897.00000
38.27643	957.00000
38.29314	918.00000
38.30985	919.00000
38.32656	955.00000
38.34327	947.00000
38.35998	858.00000
38.37670	931.00000
38.39341	915.00000
38.41012	893.00000
38.42683	955.00000
38.44354	932.00000
38.46025	929.00000
38.47696	968.00000
38.49367	1017.00000
38.51038	952.00000
38.52709	953.00000
38.54381	933.00000
38.56052	919.00000
38.57723	932.00000
38.59394	910.00000
38.61065	956.00000
38.62736	906.00000
38.64407	923.00000
38.66078	890.00000
38.67749	876.00000
38.69420	918.00000
38.71092	963.00000
38.72763	920.00000
38.74434	983.00000
38.76105	886.00000
38.77776	874.00000
38.79447	928.00000
38.81118	956.00000
38.82789	871.00000
38.84460	907.00000
38.86131	977.00000
38.87803	937.00000
38.89474	947.00000
38.91145	863.00000
38.92816	887.00000
38.94487	925.00000
38.96158	911.00000
38.97829	941.00000
38.99500	931.00000
39.01171	952.00000
39.02842	1008.00000
39.04514	978.00000
39.06185	933.00000
39.07856	928.00000
39.09527	931.00000
39.11198	955.00000
39.12869	934.00000
39.14540	949.00000
39.16211	956.00000
39.17882	962.00000
39.19553	898.00000
39.21225	972.00000
39.22896	939.00000
39.24567	915.00000
39.26238	953.00000
39.27909	931.00000
39.29580	963.00000
39.31251	940.00000
39.32922	992.00000
39.34593	927.00000
39.36264	907.00000
39.37936	920.00000
39.39607	911.00000
39.41278	929.00000
39.42949	891.00000
39.44620	891.00000
39.46291	884.00000
39.47962	899.00000
39.49633	926.00000
39.51304	955.00000
39.52975	930.00000
39.54647	915.00000
39.56318	903.00000
39.57989	943.00000
39.59660	897.00000
39.61331	892.00000
39.63002	926.00000
39.64673	902.00000
39.66344	881.00000
39.68015	908.00000
39.69686	960.00000
39.71358	903.00000
39.73029	908.00000
39.74700	915.00000
39.76371	901.00000
39.78042	862.00000
39.79713	892.00000
39.81384	859.00000
39.83055	926.00000
39.84726	903.00000
39.86397	892.00000
39.88069	947.00000
39.89740	885.00000
39.91411	919.00000
39.93082	896.00000
39.94753	855.00000
39.96424	925.00000
39.98095	940.00000
39.99766	885.00000
40.01437	940.00000
40.03108	926.00000
40.04780	904.00000
40.06451	890.00000
40.08122	927.00000
40.09793	908.00000
40.11464	901.00000
40.13135	884.00000
40.14806	903.00000
40.16477	839.00000
40.18148	837.00000
40.19819	896.00000
40.21491	884.00000
40.23162	834.00000
40.24833	872.00000
40.26504	893.00000
40.28175	881.00000
40.29846	943.00000
40.31517	863.00000
40.33188	880.00000
40.34859	906.00000
40.36530	876.00000
40.38202	836.00000
40.39873	894.00000
40.41544	850.00000
40.43215	856.00000
40.44886	826.00000
40.46557	844.00000
40.48228	903.00000
40.49899	887.00000
40.51570	852.00000
40.53241	865.00000
40.54913	856.00000
40.56584	865.00000
40.58255	865.00000
40.59926	878.00000
40.61597	845.00000
40.63268	839.00000
40.64939	849.00000
40.66610	891.00000
40.68281	894.00000
40.69952	837.00000
40.71624	922.00000
40.73295	836.00000
40.74966	836.00000
40.76637	887.00000
40.78308	865.00000
40.79979	860.00000
40.81650	835.00000
40.83321	881.00000
40.84992	888.00000
40.86663	846.00000
40.88335	837.00000
40.90006	875.00000
40.91677	845.00000
40.93348	883.00000
40.95019	923.00000
40.96690	931.00000
40.98361	879.00000
41.00032	915.00000
41.01703	912.00000
41.03374	884.00000
41.05046	896.00000
41.06717	866.00000
41.08388	908.00000
41.10059	875.00000
41.11730	945.00000
41.13401	849.00000
41.15072	893.00000
41.16743	901.00000
41.18414	922.00000
41.20085	898.00000
41.21757	918.00000
41.23428	853.00000
41.25099	865.00000
41.26770	896.00000
41.28441	917.00000
41.30112	840.00000
41.31783	896.00000
41.33454	868.00000
41.35125	882.00000
41.36796	894.00000
41.38468	891.00000
41.40139	863.00000
41.41810	837.00000
41.43481	847.00000
41.45152	863.00000
41.46823	856.00000
41.48494	877.00000
41.50165	823.00000
41.51836	851.00000
41.53507	834.00000
41.55179	825.00000
41.56850	855.00000
41.58521	877.00000
41.60192	807.00000
41.61863	874.00000
41.63534	859.00000
41.65205	901.00000
41.66876	858.00000
41.68547	838.00000
41.70218	870.00000
41.71890	854.00000
41.73561	816.00000
41.75232	871.00000
41.76903	872.00000
41.78574	828.00000
41.80245	842.00000
41.81916	865.00000
41.83587	820.00000
41.85258	903.00000
41.86929	861.00000
41.88601	910.00000
41.90272	847.00000
41.91943	903.00000
41.93614	809.00000
41.95285	869.00000
41.96956	904.00000
41.98627	874.00000
42.00298	867.00000
42.01969	888.00000
42.03640	801.00000
42.05312	852.00000
42.06983	869.00000
42.08654	826.00000
42.10325	814.00000
42.11996	886.00000
42.13667	872.00000
42.15338	891.00000
42.17009	879.00000
42.18680	888.00000
42.20351	850.00000
42.22023	888.00000
42.23694	814.00000
42.25365	842.00000
42.27036	854.00000
42.28707	825.00000
42.30378	859.00000
42.32049	863.00000
42.33720	895.00000
42.35391	830.00000
42.37062	805.00000
42.38734	884.00000
42.40405	848.00000
42.42076	845.00000
42.43747	838.00000
42.45418	848.00000
42.47089	842.00000
42.48760	823.00000
42.50431	836.00000
42.52102	861.00000
42.53773	859.00000
42.55445	812.00000
42.57116	794.00000
42.58787	834.00000
42.60458	846.00000
42.62129	826.00000
42.63800	854.00000
42.65471	813.00000
42.67142	840.00000
42.68813	775.00000
42.70484	863.00000
42.72156	847.00000
42.73827	805.00000
42.75498	752.00000
42.77169	829.00000
42.78840	900.00000
42.80511	780.00000
42.82182	805.00000
42.83853	867.00000
42.85524	863.00000
42.87195	839.00000
42.88867	875.00000
42.90538	866.00000
42.92209	829.00000
42.93880	845.00000
42.95551	865.00000
42.97222	838.00000
42.98893	811.00000
43.00564	815.00000
43.02235	820.00000
43.03906	835.00000
43.05578	849.00000
43.07249	856.00000
43.08920	896.00000
43.10591	854.00000
43.12262	811.00000
43.13933	818.00000
43.15604	835.00000
43.17275	811.00000
43.18946	851.00000
43.20617	807.00000
43.22289	847.00000
43.23960	849.00000
43.25631	839.00000
43.27302	834.00000
43.28973	845.00000
43.30644	821.00000
43.32315	805.00000
43.33986	797.00000
43.35657	798.00000
43.37328	737.00000
43.39000	823.00000
43.40671	805.00000
43.42342	817.00000
43.44013	780.00000
43.45684	822.00000
43.47355	786.00000
43.49026	803.00000
43.50697	775.00000
43.52368	818.00000
43.54039	795.00000
43.55711	840.00000
43.57382	802.00000
43.59053	763.00000
43.60724	829.00000
43.62395	805.00000
43.64066	773.00000
43.65737	777.00000
43.67408	758.00000
43.69079	830.00000
43.70750	801.00000
43.72422	831.00000
43.74093	783.00000
43.75764	836.00000
43.77435	791.00000
43.79106	784.00000
43.80777	833.00000
43.82448	785.00000
43.84119	833.00000
43.85790	732.00000
43.87461	774.00000
43.89133	815.00000
43.90804	761.00000
43.92475	813.00000
43.94146	772.00000
43.95817	807.00000
43.97488	781.00000
43.99159	802.00000
44.00830	844.00000
44.02501	747.00000
44.04172	757.00000
44.05844	739.00000
44.07515	809.00000
44.09186	820.00000
44.10857	817.00000
44.12528	791.00000
44.14199	802.00000
44.15870	807.00000
44.17541	761.00000
44.19212	716.00000
44.20883	788.00000
44.22555	762.00000
44.24226	810.00000
44.25897	806.00000
44.27568	793.00000
44.29239	758.00000
44.30910	801.00000
44.32581	777.00000
44.34252	741.00000
44.35923	781.00000
44.37594	767.00000
44.39266	764.00000
44.40937	755.00000
44.42608	761.00000
44.44279	772.00000
44.45950	787.00000
44.47621	794.00000
44.49292	740.00000
44.50963	749.00000
44.52634	786.00000
44.54305	783.00000
44.55977	754.00000
44.57648	809.00000
44.59319	764.00000
44.60990	775.00000
44.62661	729.00000
44.64332	771.00000
44.66003	795.00000
44.67674	771.00000
44.69345	747.00000
44.71016	782.00000
44.72688	726.00000
44.74359	773.00000
44.76030	757.00000
44.77701	803.00000
44.79372	772.00000
44.81043	784.00000
44.82714	749.00000
44.84385	797.00000
44.86056	853.00000
44.87727	789.00000
44.89399	781.00000
44.91070	768.00000
44.92741	773.00000
44.94412	763.00000
44.96083	770.00000
44.97754	764.00000
44.99425	749.00000
45.01096	781.00000
45.02767	777.00000
45.04438	751.00000
45.06110	804.00000
45.07781	773.00000
45.09452	765.00000
45.11123	719.00000
45.12794	791.00000
45.14465	729.00000
45.16136	796.00000
45.17807	797.00000
45.19478	738.00000
45.21149	707.00000
45.22821	773.00000
45.24492	759.00000
45.26163	759.00000
45.27834	742.00000
45.29505	781.00000
45.31176	756.00000
45.32847	768.00000
45.34518	791.00000
45.36189	747.00000
45.37860	759.00000
45.39532	738.00000
45.41203	745.00000
45.42874	731.00000
45.44545	770.00000
45.46216	800.00000
45.47887	757.00000
45.49558	802.00000
45.51229	823.00000
45.52900	780.00000
45.54571	755.00000
45.56243	797.00000
45.57914	781.00000
45.59585	777.00000
45.61256	784.00000
45.62927	778.00000
45.64598	781.00000
45.66269	811.00000
45.67940	757.00000
45.69611	787.00000
45.71282	783.00000
45.72954	774.00000
45.74625	794.00000
45.76296	753.00000
45.77967	739.00000
45.79638	767.00000
45.81309	772.00000
45.82980	759.00000
45.84651	779.00000
45.86322	768.00000
45.87993	773.00000
45.89665	742.00000
45.91336	774.00000
45.93007	725.00000
45.94678	731.00000
45.96349	775.00000
45.98020	745.00000
45.99691	743.00000
46.01362	783.00000
46.03033	788.00000
46.04704	691.00000
46.06376	734.00000
46.08047	739.00000
46.09718	793.00000
46.11389	774.00000
46.13060	769.00000
46.14731	719.00000
46.16402	701.00000
46.18073	725.00000
46.19744	743.00000
46.21415	767.00000
46.23087	723.00000
46.24758	755.00000
46.26429	730.00000
46.28100	728.00000
46.29771	718.00000
46.31442	694.00000
46.33113	751.00000
46.34784	794.00000
46.36455	751.00000
46.38126	734.00000
46.39798	765.00000
46.41469	722.00000
46.43140	704.00000
46.44811	741.00000
46.46482	724.00000
46.48153	713.00000
46.49824	757.00000
46.51495	794.00000
46.53166	749.00000
46.54837	747.00000
46.56509	698.00000
46.58180	714.00000
46.59851	694.00000
46.61522	718.00000
46.63193	735.00000
46.64864	796.00000
46.66535	746.00000
46.68206	753.00000
46.69877	738.00000
46.71548	710.00000
46.73220	773.00000
46.74891	761.00000
46.76562	763.00000
46.78233	714.00000
46.79904	722.00000
46.81575	718.00000
46.83246	758.00000
46.84917	723.00000
46.86588	692.00000
46.88259	743.00000
46.89931	699.00000
46.91602	766.00000
46.93273	706.00000
46.94944	717.00000
46.96615	750.00000
46.98286	710.00000
46.99957	718.00000
47.01628	709.00000
47.03299	754.00000
47.04970	745.00000
47.06642	750.00000
47.08313	721.00000
47.09984	741.00000
47.11655	707.00000
47.13326	688.00000
47.14997	724.00000
47.16668	704.00000
47.18339	741.00000
47.20010	749.00000
47.21681	749.00000
47.23353	674.00000
47.25024	671.00000
47.26695	775.00000
47.28366	684.00000
47.30037	723.00000
47.31708	669.00000
47.33379	689.00000
47.35050	686.00000
47.36721	769.00000
47.38392	710.00000
47.40064	720.00000
47.41735	721.00000
47.43406	733.00000
47.45077	793.00000
47.46748	764.00000
47.48419	688.00000
47.50090	694.00000
47.51761	689.00000
47.53432	761.00000
47.55103	702.00000
47.56775	775.00000
47.58446	736.00000
47.60117	710.00000
47.61788	748.00000
47.63459	708.00000
47.65130	734.00000
47.66801	682.00000
47.68472	697.00000
47.70143	730.00000
47.71814	746.00000
47.73486	700.00000
47.75157	682.00000
47.76828	746.00000
47.78499	745.00000
47.80170	751.00000
47.81841	814.00000
47.83512	700.00000
47.85183	752.00000
47.86854	758.00000
47.88525	715.00000
47.90197	763.00000
47.91868	720.00000
47.93539	766.00000
47.95210	705.00000
47.96881	725.00000
47.98552	765.00000
48.00223	753.00000
48.01894	713.00000
48.03565	758.00000
48.05236	765.00000
48.06908	736.00000
48.08579	690.00000
48.10250	720.00000
48.11921	777.00000
48.13592	689.00000
48.15263	735.00000
48.16934	692.00000
48.18605	745.00000
48.20276	686.00000
48.21947	720.00000
48.23619	762.00000
48.25290	707.00000
48.26961	781.00000
48.28632	729.00000
48.30303	696.00000
48.31974	743.00000
48.33645	745.00000
48.35316	707.00000
48.36987	741.00000
48.38658	712.00000
48.40330	675.00000
48.42001	730.00000
48.43672	729.00000
48.45343	700.00000
48.47014	672.00000
48.48685	737.00000
48.50356	657.00000
48.52027	689.00000
48.53698	701.00000
48.55369	749.00000
48.57041	641.00000
48.58712	709.00000
48.60383	640.00000
48.62054	693.00000
48.63725	707.00000
48.65396	688.00000
48.67067	706.00000
48.68738	676.00000
48.70409	732.00000
48.72080	680.00000
48.73752	686.00000
48.75423	643.00000
48.77094	700.00000
48.78765	664.00000
48.80436	657.00000
48.82107	690.00000
48.83778	677.00000
48.85449	655.00000
48.87120	696.00000
48.88791	673.00000
48.90463	692.00000
48.92134	736.00000
48.93805	689.00000
48.95476	689.00000
48.97147	719.00000
48.98818	654.00000
49.00489	771.00000
49.02160	743.00000
49.03831	685.00000
49.05502	703.00000
49.07174	714.00000
49.08845	692.00000
49.10516	743.00000
49.12187	725.00000
49.13858	713.00000
49.15529	710.00000
49.17200	690.00000
49.18871	680.00000
49.20542	667.00000
49.22213	737.00000
49.23885	723.00000
49.25556	691.00000
49.27227	728.00000
49.28898	724.00000
49.30569	664.00000
49.32240	720.00000
49.33911	697.00000
49.35582	648.00000
49.37253	621.00000
49.38924	709.00000
49.40596	649.00000
49.42267	697.00000
49.43938	704.00000
49.45609	720.00000
49.47280	655.00000
49.48951	697.00000
49.50622	698.00000
49.52293	634.00000
49.53964	643.00000
49.55635	696.00000
49.57307	665.00000
49.58978	722.00000
49.60649	700.00000
49.62320	714.00000
49.63991	678.00000
49.65662	700.00000
49.67333	655.00000
49.69004	703.00000
49.70675	735.00000
49.72346	722.00000
49.74018	661.00000
49.75689	658.00000
49.77360	683.00000
49.79031	649.00000
49.80702	719.00000
49.82373	682.00000
49.84044	645.00000
49.85715	700.00000
49.87386	638.00000
49.89057	699.00000
49.90729	651.00000
49.92400	653.00000
49.94071	740.00000
49.95742	714.00000
49.97413	709.00000
49.99084	632.00000
